# Im(epsi1)     Re(omega/c)      Im(omega/c)      Eq(det).Opt det CON kz, R=0.5 \mum, mu_c=0.3, Re(epsi1)=3.90solve_det_conkz_vs_kz.py
0.000000000e+00	1.340053446e-01	-4.804878327e-04	9.594405123e-12
-1.000000000e-04	1.340053522e-01	-4.791269926e-04	7.938315315e-12
-2.000000000e-04	1.340053598e-01	-4.777661520e-04	1.501442146e-11
-3.000000000e-04	1.340053673e-01	-4.764053110e-04	3.318747894e-11
-4.000000000e-04	1.340053748e-01	-4.750444695e-04	3.354597468e-11
-5.000000000e-04	1.340053823e-01	-4.736836275e-04	6.604950030e-12
-6.000000000e-04	1.340053897e-01	-4.723227851e-04	1.633396053e-11
-7.000000000e-04	1.340053970e-01	-4.709619423e-04	5.276917694e-11
-8.000000000e-04	1.340054044e-01	-4.696010990e-04	7.538147089e-12
-9.000000000e-04	1.340054116e-01	-4.682402553e-04	9.403813423e-12
-1.000000000e-03	1.340054189e-01	-4.668794111e-04	1.578291193e-11
-1.100000000e-03	1.340054261e-01	-4.655185665e-04	1.061532382e-11
-1.200000000e-03	1.340054332e-01	-4.641577214e-04	3.375613742e-11
-1.300000000e-03	1.340054403e-01	-4.627968759e-04	1.290255661e-11
-1.400000000e-03	1.340054474e-01	-4.614360300e-04	1.139091295e-11
-1.500000000e-03	1.340054544e-01	-4.600751837e-04	8.356853036e-12
-1.600000000e-03	1.340054614e-01	-4.587143369e-04	4.850292350e-12
-1.700000000e-03	1.340054684e-01	-4.573534897e-04	7.193270061e-12
-1.800000000e-03	1.340054753e-01	-4.559926421e-04	8.215846615e-12
-1.900000000e-03	1.340054822e-01	-4.546317940e-04	7.326744047e-11
-2.000000000e-03	1.340054890e-01	-4.532709455e-04	2.309903912e-11
-2.100000000e-03	1.340054958e-01	-4.519100966e-04	6.969244071e-12
-2.200000000e-03	1.340055025e-01	-4.505492473e-04	1.073766935e-11
-2.300000000e-03	1.340055092e-01	-4.491883976e-04	1.104830969e-11
-2.400000000e-03	1.340055159e-01	-4.478275475e-04	8.664165485e-12
-2.500000000e-03	1.340055225e-01	-4.464666969e-04	3.979928100e-12
-2.600000000e-03	1.340055291e-01	-4.451058460e-04	1.250098498e-11
-2.700000000e-03	1.340055356e-01	-4.437449946e-04	9.368368490e-12
-2.800000000e-03	1.340055421e-01	-4.423841429e-04	1.053045776e-11
-2.900000000e-03	1.340055486e-01	-4.410232907e-04	2.225390029e-11
-3.000000000e-03	1.340055550e-01	-4.396624381e-04	5.787052095e-12
-3.100000000e-03	1.340055613e-01	-4.383015852e-04	6.694910908e-12
-3.200000000e-03	1.340055677e-01	-4.369407318e-04	1.290593375e-11
-3.300000000e-03	1.340055740e-01	-4.355798781e-04	2.481835116e-11
-3.400000000e-03	1.340055802e-01	-4.342190239e-04	1.248508830e-11
-3.500000000e-03	1.340055864e-01	-4.328581694e-04	1.536343448e-11
-3.600000000e-03	1.340055926e-01	-4.314973145e-04	1.684413146e-11
-3.700000000e-03	1.340055987e-01	-4.301364592e-04	1.566102520e-11
-3.800000000e-03	1.340056048e-01	-4.287756035e-04	3.597898255e-11
-3.900000000e-03	1.340056108e-01	-4.274147474e-04	1.937039226e-11
-4.000000000e-03	1.340056168e-01	-4.260538910e-04	1.569193326e-11
-4.100000000e-03	1.340056228e-01	-4.246930341e-04	3.183972581e-11
-4.200000000e-03	1.340056287e-01	-4.233321769e-04	1.903319508e-11
-4.300000000e-03	1.340056346e-01	-4.219713194e-04	5.459096189e-12
-4.400000000e-03	1.340056404e-01	-4.206104614e-04	8.238997242e-12
-4.500000000e-03	1.340056462e-01	-4.192496031e-04	1.284420925e-11
-4.600000000e-03	1.340056519e-01	-4.178887444e-04	1.464541759e-11
-4.700000000e-03	1.340056577e-01	-4.165278854e-04	2.343244863e-11
-4.800000000e-03	1.340056633e-01	-4.151670260e-04	2.468148034e-11
-4.900000000e-03	1.340056690e-01	-4.138061662e-04	1.921019749e-11
-5.000000000e-03	1.340056745e-01	-4.124453061e-04	2.954941337e-11
-5.100000000e-03	1.340056801e-01	-4.110844456e-04	7.352245156e-12
-5.200000000e-03	1.340056856e-01	-4.097235848e-04	2.283084863e-11
-5.300000000e-03	1.340056910e-01	-4.083627236e-04	2.883227087e-11
-5.400000000e-03	1.340056965e-01	-4.070018621e-04	7.937844227e-12
-5.500000000e-03	1.340057018e-01	-4.056410002e-04	1.755349402e-11
-5.600000000e-03	1.340057072e-01	-4.042801380e-04	4.747301170e-11
-5.700000000e-03	1.340057125e-01	-4.029192754e-04	3.066248067e-11
-5.800000000e-03	1.340057177e-01	-4.015584125e-04	8.028850955e-12
-5.900000000e-03	1.340057229e-01	-4.001975493e-04	2.630682863e-11
-6.000000000e-03	1.340057281e-01	-3.988366857e-04	2.906615104e-11
-6.100000000e-03	1.340057332e-01	-3.974758218e-04	1.950191587e-11
-6.200000000e-03	1.340057383e-01	-3.961149575e-04	2.847424442e-11
-6.300000000e-03	1.340057434e-01	-3.947540929e-04	8.722326288e-12
-6.400000000e-03	1.340057484e-01	-3.933932280e-04	6.020183602e-12
-6.500000000e-03	1.340057534e-01	-3.920323628e-04	2.199363781e-11
-6.600000000e-03	1.340057583e-01	-3.906714972e-04	1.453002546e-11
-6.700000000e-03	1.340057632e-01	-3.893106313e-04	6.319722551e-11
-6.800000000e-03	1.340057680e-01	-3.879497651e-04	2.140953703e-11
-6.900000000e-03	1.340057728e-01	-3.865888985e-04	1.752069980e-10
-7.000000000e-03	1.340057776e-01	-3.852280317e-04	8.761030803e-12
-7.100000000e-03	1.340057823e-01	-3.838671646e-04	1.469061204e-11
-7.200000000e-03	1.340057870e-01	-3.825062971e-04	8.724240729e-12
-7.300000000e-03	1.340057916e-01	-3.811454293e-04	1.035687606e-11
-7.400000000e-03	1.340057962e-01	-3.797845612e-04	5.686324175e-11
-7.500000000e-03	1.340058007e-01	-3.784236929e-04	2.303151824e-11
-7.600000000e-03	1.340058053e-01	-3.770628242e-04	1.857992353e-11
-7.700000000e-03	1.340058097e-01	-3.757019552e-04	1.250945686e-11
-7.800000000e-03	1.340058141e-01	-3.743410859e-04	8.057208395e-12
-7.900000000e-03	1.340058185e-01	-3.729802163e-04	1.388330425e-11
-8.000000000e-03	1.340058229e-01	-3.716193464e-04	1.535188895e-11
-8.100000000e-03	1.340058272e-01	-3.702584762e-04	4.200787704e-11
-8.200000000e-03	1.340058314e-01	-3.688976057e-04	2.900062217e-11
-8.300000000e-03	1.340058357e-01	-3.675367350e-04	2.130693760e-11
-8.400000000e-03	1.340058398e-01	-3.661758639e-04	1.455657170e-11
-8.500000000e-03	1.340058440e-01	-3.648149926e-04	9.827106301e-12
-8.600000000e-03	1.340058481e-01	-3.634541210e-04	1.197787873e-11
-8.700000000e-03	1.340058521e-01	-3.620932491e-04	9.802484935e-12
-8.800000000e-03	1.340058562e-01	-3.607323769e-04	8.180544610e-12
-8.900000000e-03	1.340058601e-01	-3.593715045e-04	1.518101084e-11
-9.000000000e-03	1.340058641e-01	-3.580106317e-04	9.011995853e-12
-9.100000000e-03	1.340058679e-01	-3.566497587e-04	3.632346763e-11
-9.200000000e-03	1.340058718e-01	-3.552888855e-04	1.911204951e-11
-9.300000000e-03	1.340058756e-01	-3.539280119e-04	1.057625764e-11
-9.400000000e-03	1.340058794e-01	-3.525671381e-04	1.198899440e-11
-9.500000000e-03	1.340058831e-01	-3.512062641e-04	8.695384467e-12
-9.600000000e-03	1.340058868e-01	-3.498453897e-04	9.627342185e-12
-9.700000000e-03	1.340058904e-01	-3.484845151e-04	1.000952395e-11
-9.800000000e-03	1.340058940e-01	-3.471236403e-04	1.447863192e-11
-9.900000000e-03	1.340058976e-01	-3.457627652e-04	9.763490664e-12
-1.000000000e-02	1.340059011e-01	-3.444018898e-04	1.135881238e-11
-1.010000000e-02	1.340059046e-01	-3.430410142e-04	1.318758036e-11
-1.020000000e-02	1.340059080e-01	-3.416801384e-04	4.483995455e-11
-1.030000000e-02	1.340059114e-01	-3.403192623e-04	5.395380645e-12
-1.040000000e-02	1.340059148e-01	-3.389583859e-04	1.555917844e-11
-1.050000000e-02	1.340059181e-01	-3.375975093e-04	6.066316310e-12
-1.060000000e-02	1.340059213e-01	-3.362366325e-04	2.205473853e-11
-1.070000000e-02	1.340059246e-01	-3.348757554e-04	1.230470765e-11
-1.080000000e-02	1.340059278e-01	-3.335148781e-04	5.360346209e-11
-1.090000000e-02	1.340059309e-01	-3.321540006e-04	2.570929597e-11
-1.100000000e-02	1.340059340e-01	-3.307931228e-04	7.401753082e-11
-1.110000000e-02	1.340059371e-01	-3.294322448e-04	1.979604584e-11
-1.120000000e-02	1.340059401e-01	-3.280713665e-04	1.034869911e-11
-1.130000000e-02	1.340059431e-01	-3.267104880e-04	1.788762246e-10
-1.140000000e-02	1.340059460e-01	-3.253496094e-04	9.260483560e-12
-1.150000000e-02	1.340059489e-01	-3.239887305e-04	1.213183674e-11
-1.160000000e-02	1.340059518e-01	-3.226278513e-04	7.666622946e-12
-1.170000000e-02	1.340059546e-01	-3.212669720e-04	2.308792854e-11
-1.180000000e-02	1.340059574e-01	-3.199060924e-04	1.251118051e-11
-1.190000000e-02	1.340059601e-01	-3.185452127e-04	7.386139798e-12
-1.200000000e-02	1.340059628e-01	-3.171843327e-04	5.361939423e-12
-1.210000000e-02	1.340059654e-01	-3.158234525e-04	1.432343832e-11
-1.220000000e-02	1.340059681e-01	-3.144625721e-04	1.912627812e-11
-1.230000000e-02	1.340059706e-01	-3.131016915e-04	1.522682746e-11
-1.240000000e-02	1.340059731e-01	-3.117408106e-04	1.169205012e-11
-1.250000000e-02	1.340059756e-01	-3.103799296e-04	1.377037256e-11
-1.260000000e-02	1.340059781e-01	-3.090190484e-04	1.933308418e-11
-1.270000000e-02	1.340059805e-01	-3.076581670e-04	1.466305119e-11
-1.280000000e-02	1.340059828e-01	-3.062972854e-04	1.465915812e-11
-1.290000000e-02	1.340059852e-01	-3.049364036e-04	7.522082522e-12
-1.300000000e-02	1.340059874e-01	-3.035755216e-04	6.666948343e-12
-1.310000000e-02	1.340059897e-01	-3.022146394e-04	6.532008133e-12
-1.320000000e-02	1.340059919e-01	-3.008537570e-04	1.364996124e-11
-1.330000000e-02	1.340059940e-01	-2.994928745e-04	7.288045394e-12
-1.340000000e-02	1.340059961e-01	-2.981319917e-04	9.119005666e-12
-1.350000000e-02	1.340059982e-01	-2.967711088e-04	6.602624387e-12
-1.360000000e-02	1.340060002e-01	-2.954102257e-04	1.528358854e-11
-1.370000000e-02	1.340060022e-01	-2.940493425e-04	6.920236812e-12
-1.380000000e-02	1.340060042e-01	-2.926884590e-04	9.749091190e-12
-1.390000000e-02	1.340060061e-01	-2.913275754e-04	1.291013056e-11
-1.400000000e-02	1.340060079e-01	-2.899666916e-04	8.985213526e-12
-1.410000000e-02	1.340060098e-01	-2.886058077e-04	1.343376179e-11
-1.420000000e-02	1.340060115e-01	-2.872449235e-04	6.696680592e-12
-1.430000000e-02	1.340060133e-01	-2.858840393e-04	1.639925489e-11
-1.440000000e-02	1.340060150e-01	-2.845231548e-04	7.656987752e-12
-1.450000000e-02	1.340060166e-01	-2.831622702e-04	2.114085010e-11
-1.460000000e-02	1.340060183e-01	-2.818013854e-04	1.109569002e-11
-1.470000000e-02	1.340060198e-01	-2.804405005e-04	7.676077177e-12
-1.480000000e-02	1.340060214e-01	-2.790796154e-04	1.163757433e-11
-1.490000000e-02	1.340060229e-01	-2.777187302e-04	8.632322751e-12
-1.500000000e-02	1.340060243e-01	-2.763578449e-04	3.581644763e-11
-1.510000000e-02	1.340060257e-01	-2.749969593e-04	1.211562219e-11
-1.520000000e-02	1.340060271e-01	-2.736360737e-04	6.783477571e-12
-1.530000000e-02	1.340060284e-01	-2.722751878e-04	5.453028291e-11
-1.540000000e-02	1.340060297e-01	-2.709143019e-04	1.037693726e-11
-1.550000000e-02	1.340060310e-01	-2.695534158e-04	1.321765339e-11
-1.560000000e-02	1.340060322e-01	-2.681925296e-04	1.579051697e-11
-1.570000000e-02	1.340060333e-01	-2.668316432e-04	2.589833400e-11
-1.580000000e-02	1.340060344e-01	-2.654707567e-04	2.138820361e-11
-1.590000000e-02	1.340060355e-01	-2.641098701e-04	3.580239891e-11
-1.600000000e-02	1.340060366e-01	-2.627489834e-04	2.311912229e-11
-1.610000000e-02	1.340060376e-01	-2.613880965e-04	1.564782660e-11
-1.620000000e-02	1.340060385e-01	-2.600272095e-04	3.406993947e-11
-1.630000000e-02	1.340060394e-01	-2.586663224e-04	2.244589654e-11
-1.640000000e-02	1.340060403e-01	-2.573054351e-04	3.873285730e-11
-1.650000000e-02	1.340060411e-01	-2.559445478e-04	1.551404195e-11
-1.660000000e-02	1.340060419e-01	-2.545836603e-04	8.203343840e-12
-1.670000000e-02	1.340060427e-01	-2.532227727e-04	1.508562826e-11
-1.680000000e-02	1.340060434e-01	-2.518618850e-04	1.526299819e-11
-1.690000000e-02	1.340060440e-01	-2.505009972e-04	1.226143046e-11
-1.700000000e-02	1.340060447e-01	-2.491401093e-04	1.012236506e-11
-1.710000000e-02	1.340060452e-01	-2.477792213e-04	1.023537554e-11
-1.720000000e-02	1.340060458e-01	-2.464183331e-04	1.074356891e-11
-1.730000000e-02	1.340060463e-01	-2.450574449e-04	2.236313254e-11
-1.740000000e-02	1.340060467e-01	-2.436965566e-04	5.070698667e-11
-1.750000000e-02	1.340060472e-01	-2.423356681e-04	8.954712599e-12
-1.760000000e-02	1.340060475e-01	-2.409747796e-04	7.046528903e-12
-1.770000000e-02	1.340060479e-01	-2.396138910e-04	4.449921953e-12
-1.780000000e-02	1.340060482e-01	-2.382530023e-04	1.490991438e-11
-1.790000000e-02	1.340060484e-01	-2.368921135e-04	1.392972831e-11
-1.800000000e-02	1.340060486e-01	-2.355312246e-04	1.675530733e-11
-1.810000000e-02	1.340060488e-01	-2.341703357e-04	6.168950681e-12
-1.820000000e-02	1.340060489e-01	-2.328094466e-04	1.324184628e-11
-1.830000000e-02	1.340060490e-01	-2.314485575e-04	1.737321612e-11
-1.840000000e-02	1.340060491e-01	-2.300876683e-04	5.547132509e-12
-1.850000000e-02	1.340060491e-01	-2.287267790e-04	1.033592074e-11
-1.860000000e-02	1.340060490e-01	-2.273658897e-04	1.386924504e-11
-1.870000000e-02	1.340060489e-01	-2.260050003e-04	1.959844187e-11
-1.880000000e-02	1.340060488e-01	-2.246441108e-04	8.091840885e-12
-1.890000000e-02	1.340060487e-01	-2.232832212e-04	1.086300054e-11
-1.900000000e-02	1.340060485e-01	-2.219223316e-04	4.186841799e-11
-1.910000000e-02	1.340060482e-01	-2.205614419e-04	1.123395493e-11
-1.920000000e-02	1.340060479e-01	-2.192005521e-04	7.061980943e-11
-1.930000000e-02	1.340060476e-01	-2.178396623e-04	4.908238658e-12
-1.940000000e-02	1.340060472e-01	-2.164787724e-04	5.074455649e-12
-1.950000000e-02	1.340060468e-01	-2.151178825e-04	4.282419250e-11
-1.960000000e-02	1.340060464e-01	-2.137569925e-04	1.276416471e-10
-1.970000000e-02	1.340060459e-01	-2.123961025e-04	1.218616219e-11
-1.980000000e-02	1.340060454e-01	-2.110352124e-04	1.607967700e-11
-1.990000000e-02	1.340060448e-01	-2.096743223e-04	1.509965112e-11
-2.000000000e-02	1.340060442e-01	-2.083134321e-04	6.924503648e-12
-2.010000000e-02	1.340060435e-01	-2.069525419e-04	2.041918593e-11
-2.020000000e-02	1.340060428e-01	-2.055916517e-04	2.355582115e-11
-2.030000000e-02	1.340060421e-01	-2.042307614e-04	7.589916372e-12
-2.040000000e-02	1.340060413e-01	-2.028698710e-04	6.272157399e-12
-2.050000000e-02	1.340060405e-01	-2.015089807e-04	1.691933734e-11
-2.060000000e-02	1.340060396e-01	-2.001480903e-04	7.685477454e-12
-2.070000000e-02	1.340060387e-01	-1.987871999e-04	2.297811449e-11
-2.080000000e-02	1.340060378e-01	-1.974263094e-04	1.034785355e-11
-2.090000000e-02	1.340060368e-01	-1.960654189e-04	1.040690468e-11
-2.100000000e-02	1.340060357e-01	-1.947045284e-04	8.863957317e-12
-2.110000000e-02	1.340060347e-01	-1.933436379e-04	1.089341840e-11
-2.120000000e-02	1.340060336e-01	-1.919827473e-04	2.808429259e-11
-2.130000000e-02	1.340060324e-01	-1.906218568e-04	1.243594983e-11
-2.140000000e-02	1.340060312e-01	-1.892609662e-04	9.176452407e-12
-2.150000000e-02	1.340060300e-01	-1.879000756e-04	9.424677307e-12
-2.160000000e-02	1.340060287e-01	-1.865391850e-04	6.505533859e-12
-2.170000000e-02	1.340060274e-01	-1.851782944e-04	7.545200572e-12
-2.180000000e-02	1.340060260e-01	-1.838174038e-04	1.115333879e-11
-2.190000000e-02	1.340060246e-01	-1.824565132e-04	1.506752638e-11
-2.200000000e-02	1.340060232e-01	-1.810956225e-04	9.014599833e-12
-2.210000000e-02	1.340060217e-01	-1.797347319e-04	1.975482688e-11
-2.220000000e-02	1.340060202e-01	-1.783738413e-04	2.188806816e-11
-2.230000000e-02	1.340060186e-01	-1.770129507e-04	4.390512895e-11
-2.240000000e-02	1.340060170e-01	-1.756520600e-04	7.985427995e-12
-2.250000000e-02	1.340060153e-01	-1.742911694e-04	2.570063424e-11
-2.260000000e-02	1.340060136e-01	-1.729302788e-04	1.020015378e-11
-2.270000000e-02	1.340060119e-01	-1.715693882e-04	8.350925275e-12
-2.280000000e-02	1.340060101e-01	-1.702084976e-04	1.211842911e-11
-2.290000000e-02	1.340060083e-01	-1.688476071e-04	1.001933788e-11
-2.300000000e-02	1.340060065e-01	-1.674867165e-04	9.854259629e-12
-2.310000000e-02	1.340060046e-01	-1.661258260e-04	1.430764265e-11
-2.320000000e-02	1.340060026e-01	-1.647649355e-04	8.382906193e-12
-2.330000000e-02	1.340060007e-01	-1.634040450e-04	1.701619435e-11
-2.340000000e-02	1.340059986e-01	-1.620431546e-04	9.508389825e-12
-2.350000000e-02	1.340059966e-01	-1.606822642e-04	1.468127213e-11
-2.360000000e-02	1.340059945e-01	-1.593213738e-04	2.880579476e-11
-2.370000000e-02	1.340059923e-01	-1.579604834e-04	2.005449325e-11
-2.380000000e-02	1.340059901e-01	-1.565995931e-04	2.639625719e-11
-2.390000000e-02	1.340059879e-01	-1.552387028e-04	1.848742743e-11
-2.400000000e-02	1.340059856e-01	-1.538778126e-04	1.122715729e-10
-2.410000000e-02	1.340059833e-01	-1.525169224e-04	1.143661094e-11
-2.420000000e-02	1.340059810e-01	-1.511560322e-04	2.087715829e-11
-2.430000000e-02	1.340059786e-01	-1.497951421e-04	1.019984092e-11
-2.440000000e-02	1.340059761e-01	-1.484342520e-04	1.167574275e-11
-2.450000000e-02	1.340059737e-01	-1.470733620e-04	5.074883282e-11
-2.460000000e-02	1.340059711e-01	-1.457124720e-04	5.608625522e-11
-2.470000000e-02	1.340059686e-01	-1.443515821e-04	8.116261999e-12
-2.480000000e-02	1.340059660e-01	-1.429906922e-04	8.051435710e-12
-2.490000000e-02	1.340059633e-01	-1.416298024e-04	2.009912006e-11
-2.500000000e-02	1.340059607e-01	-1.402689127e-04	1.263717510e-11
-2.510000000e-02	1.340059579e-01	-1.389080230e-04	1.596787190e-11
-2.520000000e-02	1.340059552e-01	-1.375471333e-04	2.711223298e-11
-2.530000000e-02	1.340059524e-01	-1.361862438e-04	1.194212769e-11
-2.540000000e-02	1.340059495e-01	-1.348253543e-04	8.345771401e-12
-2.550000000e-02	1.340059466e-01	-1.334644649e-04	5.695081680e-12
-2.560000000e-02	1.340059437e-01	-1.321035755e-04	1.006794362e-11
-2.570000000e-02	1.340059407e-01	-1.307426863e-04	1.661117154e-12
-2.580000000e-02	1.340059377e-01	-1.293817971e-04	8.466044999e-12
-2.590000000e-02	1.340059347e-01	-1.280209079e-04	1.450443415e-11
-2.600000000e-02	1.340059316e-01	-1.266600189e-04	7.281293947e-12
-2.610000000e-02	1.340059284e-01	-1.252991300e-04	1.373388416e-11
-2.620000000e-02	1.340059252e-01	-1.239382411e-04	1.010446000e-11
-2.630000000e-02	1.340059220e-01	-1.225773523e-04	1.059511739e-11
-2.640000000e-02	1.340059188e-01	-1.212164636e-04	2.023104418e-11
-2.650000000e-02	1.340059155e-01	-1.198555750e-04	1.468908413e-11
-2.660000000e-02	1.340059121e-01	-1.184946865e-04	1.060811498e-11
-2.670000000e-02	1.340059087e-01	-1.171337981e-04	7.406051157e-12
-2.680000000e-02	1.340059053e-01	-1.157729098e-04	4.303928117e-11
-2.690000000e-02	1.340059018e-01	-1.144120216e-04	1.148248757e-11
-2.700000000e-02	1.340058983e-01	-1.130511334e-04	2.264431143e-11
-2.710000000e-02	1.340058948e-01	-1.116902454e-04	3.737793385e-11
-2.720000000e-02	1.340058912e-01	-1.103293575e-04	2.136471781e-11
-2.730000000e-02	1.340058875e-01	-1.089684697e-04	9.122192551e-12
-2.740000000e-02	1.340058839e-01	-1.076075820e-04	7.630746076e-12
-2.750000000e-02	1.340058802e-01	-1.062466944e-04	9.029135063e-12
-2.760000000e-02	1.340058764e-01	-1.048858070e-04	3.001084323e-11
-2.770000000e-02	1.340058726e-01	-1.035249196e-04	1.743071702e-11
-2.780000000e-02	1.340058688e-01	-1.021640324e-04	2.043860487e-11
-2.790000000e-02	1.340058649e-01	-1.008031453e-04	6.965523980e-12
-2.800000000e-02	1.340058609e-01	-9.944225830e-05	1.089807657e-11
-2.810000000e-02	1.340058570e-01	-9.808137144e-05	9.391197142e-12
-2.820000000e-02	1.340058530e-01	-9.672048470e-05	1.448408771e-11
-2.830000000e-02	1.340058489e-01	-9.535959809e-05	6.071218355e-12
-2.840000000e-02	1.340058448e-01	-9.399871161e-05	2.261713645e-11
-2.850000000e-02	1.340058407e-01	-9.263782527e-05	1.806947888e-11
-2.860000000e-02	1.340058365e-01	-9.127693906e-05	1.257128517e-11
-2.870000000e-02	1.340058323e-01	-8.991605298e-05	1.359263437e-11
-2.880000000e-02	1.340058281e-01	-8.855516704e-05	2.477106947e-11
-2.890000000e-02	1.340058238e-01	-8.719428125e-05	8.649428336e-12
-2.900000000e-02	1.340058194e-01	-8.583339560e-05	4.798023868e-12
-2.910000000e-02	1.340058151e-01	-8.447251009e-05	1.089850512e-11
-2.920000000e-02	1.340058106e-01	-8.311162473e-05	1.087401470e-11
-2.930000000e-02	1.340058062e-01	-8.175073953e-05	1.281792804e-11
-2.940000000e-02	1.340058017e-01	-8.038985447e-05	1.552169421e-11
-2.950000000e-02	1.340057971e-01	-7.902896957e-05	1.477376791e-11
-2.960000000e-02	1.340057926e-01	-7.766808482e-05	1.021586770e-11
-2.970000000e-02	1.340057879e-01	-7.630720023e-05	1.029850338e-11
-2.980000000e-02	1.340057833e-01	-7.494631580e-05	1.920006536e-11
-2.990000000e-02	1.340057785e-01	-7.358543153e-05	1.140709081e-11
-3.000000000e-02	1.340057738e-01	-7.222454742e-05	1.177837557e-11
