# Im(epsi1)     Re(omega/c)      Im(omega/c)      Eq(det).Opt det CON kz, R=0.5 \mum, mu_c=0.3, Re(epsi1)=3.90solve_det_conkz_vs_kz.py
0.000000000e+00	1.340113048e-01	-5.003007059e-04	1.461466812e-11
-1.000000000e-04	1.340113130e-01	-4.989404563e-04	8.733588658e-12
-2.000000000e-04	1.340113212e-01	-4.975802062e-04	2.567517027e-11
-3.000000000e-04	1.340113293e-01	-4.962199557e-04	1.773476165e-11
-4.000000000e-04	1.340113374e-01	-4.948597046e-04	2.611041981e-11
-5.000000000e-04	1.340113455e-01	-4.934994531e-04	8.118928193e-12
-6.000000000e-04	1.340113535e-01	-4.921392011e-04	1.712248330e-11
-7.000000000e-04	1.340113615e-01	-4.907789486e-04	3.357504187e-11
-8.000000000e-04	1.340113694e-01	-4.894186956e-04	1.198450983e-11
-9.000000000e-04	1.340113773e-01	-4.880584422e-04	1.766495916e-11
-1.000000000e-03	1.340113851e-01	-4.866981883e-04	6.624596155e-12
-1.100000000e-03	1.340113929e-01	-4.853379339e-04	2.526185089e-11
-1.200000000e-03	1.340114007e-01	-4.839776790e-04	1.185827237e-10
-1.300000000e-03	1.340114084e-01	-4.826174238e-04	2.140842018e-11
-1.400000000e-03	1.340114161e-01	-4.812571680e-04	1.602197993e-11
-1.500000000e-03	1.340114237e-01	-4.798969117e-04	1.706894519e-11
-1.600000000e-03	1.340114313e-01	-4.785366550e-04	3.643466007e-11
-1.700000000e-03	1.340114389e-01	-4.771763979e-04	1.004183096e-11
-1.800000000e-03	1.340114464e-01	-4.758161403e-04	1.136521682e-11
-1.900000000e-03	1.340114538e-01	-4.744558822e-04	1.131172565e-11
-2.000000000e-03	1.340114613e-01	-4.730956237e-04	1.254969038e-11
-2.100000000e-03	1.340114687e-01	-4.717353647e-04	1.569184192e-11
-2.200000000e-03	1.340114760e-01	-4.703751053e-04	1.412584304e-11
-2.300000000e-03	1.340114833e-01	-4.690148455e-04	8.870103092e-12
-2.400000000e-03	1.340114906e-01	-4.676545852e-04	1.439199525e-11
-2.500000000e-03	1.340114978e-01	-4.662943244e-04	1.455234148e-11
-2.600000000e-03	1.340115050e-01	-4.649340633e-04	1.580228201e-11
-2.700000000e-03	1.340115121e-01	-4.635738016e-04	8.737096054e-12
-2.800000000e-03	1.340115192e-01	-4.622135396e-04	1.624384707e-11
-2.900000000e-03	1.340115263e-01	-4.608532771e-04	2.280160535e-11
-3.000000000e-03	1.340115333e-01	-4.594930142e-04	1.245307855e-11
-3.100000000e-03	1.340115403e-01	-4.581327509e-04	1.309511463e-11
-3.200000000e-03	1.340115472e-01	-4.567724871e-04	1.965433909e-11
-3.300000000e-03	1.340115541e-01	-4.554122229e-04	2.898881662e-11
-3.400000000e-03	1.340115610e-01	-4.540519583e-04	1.597053865e-11
-3.500000000e-03	1.340115678e-01	-4.526916933e-04	1.831845988e-11
-3.600000000e-03	1.340115745e-01	-4.513314278e-04	9.094770682e-12
-3.700000000e-03	1.340115813e-01	-4.499711619e-04	8.975281819e-12
-3.800000000e-03	1.340115880e-01	-4.486108957e-04	2.303225735e-11
-3.900000000e-03	1.340115946e-01	-4.472506290e-04	1.661707312e-11
-4.000000000e-03	1.340116012e-01	-4.458903619e-04	1.341788271e-11
-4.100000000e-03	1.340116078e-01	-4.445300944e-04	8.662741103e-12
-4.200000000e-03	1.340116143e-01	-4.431698264e-04	2.207330226e-11
-4.300000000e-03	1.340116208e-01	-4.418095581e-04	2.199758338e-11
-4.400000000e-03	1.340116272e-01	-4.404492894e-04	2.579670272e-11
-4.500000000e-03	1.340116336e-01	-4.390890203e-04	8.617774173e-12
-4.600000000e-03	1.340116400e-01	-4.377287508e-04	1.733081570e-11
-4.700000000e-03	1.340116463e-01	-4.363684809e-04	1.237533139e-11
-4.800000000e-03	1.340116526e-01	-4.350082106e-04	3.925495982e-11
-4.900000000e-03	1.340116588e-01	-4.336479399e-04	1.034891716e-11
-5.000000000e-03	1.340116650e-01	-4.322876688e-04	1.432297108e-11
-5.100000000e-03	1.340116711e-01	-4.309273973e-04	1.215721146e-11
-5.200000000e-03	1.340116772e-01	-4.295671255e-04	1.078103702e-11
-5.300000000e-03	1.340116833e-01	-4.282068532e-04	1.971286641e-11
-5.400000000e-03	1.340116893e-01	-4.268465806e-04	7.790863479e-12
-5.500000000e-03	1.340116953e-01	-4.254863076e-04	1.055378541e-11
-5.600000000e-03	1.340117013e-01	-4.241260342e-04	7.983449847e-12
-5.700000000e-03	1.340117072e-01	-4.227657605e-04	7.357377234e-12
-5.800000000e-03	1.340117130e-01	-4.214054864e-04	1.063840859e-10
-5.900000000e-03	1.340117189e-01	-4.200452119e-04	1.365228093e-11
-6.000000000e-03	1.340117246e-01	-4.186849370e-04	1.083891446e-11
-6.100000000e-03	1.340117304e-01	-4.173246618e-04	8.112701707e-12
-6.200000000e-03	1.340117361e-01	-4.159643862e-04	6.675835910e-12
-6.300000000e-03	1.340117417e-01	-4.146041103e-04	1.062382044e-10
-6.400000000e-03	1.340117473e-01	-4.132438340e-04	1.491371781e-11
-6.500000000e-03	1.340117529e-01	-4.118835573e-04	1.238515205e-11
-6.600000000e-03	1.340117584e-01	-4.105232803e-04	8.893311989e-12
-6.700000000e-03	1.340117639e-01	-4.091630029e-04	7.931959936e-12
-6.800000000e-03	1.340117694e-01	-4.078027252e-04	9.209283500e-12
-6.900000000e-03	1.340117748e-01	-4.064424471e-04	1.534616056e-11
-7.000000000e-03	1.340117801e-01	-4.050821687e-04	1.142565714e-11
-7.100000000e-03	1.340117855e-01	-4.037218900e-04	9.476020876e-12
-7.200000000e-03	1.340117908e-01	-4.023616109e-04	3.250467148e-11
-7.300000000e-03	1.340117960e-01	-4.010013314e-04	1.535807904e-11
-7.400000000e-03	1.340118012e-01	-3.996410516e-04	8.632386386e-12
-7.500000000e-03	1.340118064e-01	-3.982807715e-04	4.681562471e-11
-7.600000000e-03	1.340118115e-01	-3.969204910e-04	1.214805848e-11
-7.700000000e-03	1.340118166e-01	-3.955602103e-04	1.332615788e-11
-7.800000000e-03	1.340118216e-01	-3.941999291e-04	1.276898702e-11
-7.900000000e-03	1.340118266e-01	-3.928396477e-04	3.268088428e-11
-8.000000000e-03	1.340118315e-01	-3.914793659e-04	1.719083500e-11
-8.100000000e-03	1.340118364e-01	-3.901190838e-04	9.341753915e-12
-8.200000000e-03	1.340118413e-01	-3.887588014e-04	1.899415300e-11
-8.300000000e-03	1.340118461e-01	-3.873985187e-04	2.528161223e-11
-8.400000000e-03	1.340118509e-01	-3.860382356e-04	1.970724243e-11
-8.500000000e-03	1.340118557e-01	-3.846779522e-04	1.250901090e-11
-8.600000000e-03	1.340118604e-01	-3.833176686e-04	1.349586452e-11
-8.700000000e-03	1.340118650e-01	-3.819573846e-04	2.635730635e-11
-8.800000000e-03	1.340118697e-01	-3.805971002e-04	9.228597331e-12
-8.900000000e-03	1.340118742e-01	-3.792368156e-04	5.380175998e-11
-9.000000000e-03	1.340118788e-01	-3.778765307e-04	1.006816351e-11
-9.100000000e-03	1.340118833e-01	-3.765162455e-04	1.223912180e-11
-9.200000000e-03	1.340118877e-01	-3.751559600e-04	1.348827301e-11
-9.300000000e-03	1.340118922e-01	-3.737956741e-04	7.934830023e-12
-9.400000000e-03	1.340118965e-01	-3.724353880e-04	1.300459324e-11
-9.500000000e-03	1.340119009e-01	-3.710751016e-04	1.147284357e-11
-9.600000000e-03	1.340119052e-01	-3.697148149e-04	5.978526152e-12
-9.700000000e-03	1.340119094e-01	-3.683545279e-04	7.872268012e-12
-9.800000000e-03	1.340119136e-01	-3.669942406e-04	1.564463695e-11
-9.900000000e-03	1.340119178e-01	-3.656339530e-04	8.263391486e-12
-1.000000000e-02	1.340119219e-01	-3.642736652e-04	1.278537149e-11
-1.010000000e-02	1.340119260e-01	-3.629133770e-04	1.062588689e-11
-1.020000000e-02	1.340119300e-01	-3.615530886e-04	1.091138053e-11
-1.030000000e-02	1.340119340e-01	-3.601927999e-04	1.568972543e-11
-1.040000000e-02	1.340119380e-01	-3.588325109e-04	1.101730624e-11
-1.050000000e-02	1.340119419e-01	-3.574722217e-04	1.473308922e-11
-1.060000000e-02	1.340119458e-01	-3.561119322e-04	8.689114664e-12
-1.070000000e-02	1.340119496e-01	-3.547516424e-04	7.529276060e-12
-1.080000000e-02	1.340119534e-01	-3.533913523e-04	1.018929575e-11
-1.090000000e-02	1.340119572e-01	-3.520310620e-04	3.297721788e-11
-1.100000000e-02	1.340119609e-01	-3.506707714e-04	9.956884632e-12
-1.110000000e-02	1.340119646e-01	-3.493104806e-04	1.503560342e-11
-1.120000000e-02	1.340119682e-01	-3.479501895e-04	2.317339128e-11
-1.130000000e-02	1.340119718e-01	-3.465898981e-04	1.997019338e-11
-1.140000000e-02	1.340119753e-01	-3.452296065e-04	3.363852812e-11
-1.150000000e-02	1.340119788e-01	-3.438693146e-04	1.714731715e-11
-1.160000000e-02	1.340119823e-01	-3.425090225e-04	1.835580021e-11
-1.170000000e-02	1.340119857e-01	-3.411487301e-04	1.375030225e-11
-1.180000000e-02	1.340119891e-01	-3.397884375e-04	1.148194681e-11
-1.190000000e-02	1.340119925e-01	-3.384281446e-04	1.292265868e-11
-1.200000000e-02	1.340119958e-01	-3.370678515e-04	9.962237952e-12
-1.210000000e-02	1.340119990e-01	-3.357075582e-04	2.130328948e-11
-1.220000000e-02	1.340120022e-01	-3.343472646e-04	1.177221621e-11
-1.230000000e-02	1.340120054e-01	-3.329869707e-04	8.929704363e-12
-1.240000000e-02	1.340120085e-01	-3.316266767e-04	1.529133114e-11
-1.250000000e-02	1.340120116e-01	-3.302663824e-04	1.550914992e-11
-1.260000000e-02	1.340120147e-01	-3.289060879e-04	1.785663004e-11
-1.270000000e-02	1.340120177e-01	-3.275457931e-04	2.796994355e-11
-1.280000000e-02	1.340120207e-01	-3.261854981e-04	1.926285128e-11
-1.290000000e-02	1.340120236e-01	-3.248252029e-04	7.804716227e-12
-1.300000000e-02	1.340120265e-01	-3.234649075e-04	2.477577945e-11
-1.310000000e-02	1.340120293e-01	-3.221046119e-04	1.425610760e-11
-1.320000000e-02	1.340120321e-01	-3.207443160e-04	2.366979557e-11
-1.330000000e-02	1.340120349e-01	-3.193840199e-04	1.246293482e-11
-1.340000000e-02	1.340120376e-01	-3.180237237e-04	1.555323001e-11
-1.350000000e-02	1.340120403e-01	-3.166634272e-04	1.197946403e-11
-1.360000000e-02	1.340120429e-01	-3.153031305e-04	1.791483167e-11
-1.370000000e-02	1.340120455e-01	-3.139428335e-04	9.046516857e-12
-1.380000000e-02	1.340120481e-01	-3.125825364e-04	9.467834501e-12
-1.390000000e-02	1.340120506e-01	-3.112222391e-04	9.402827358e-12
-1.400000000e-02	1.340120531e-01	-3.098619416e-04	1.434389603e-11
-1.410000000e-02	1.340120555e-01	-3.085016438e-04	6.414290187e-12
-1.420000000e-02	1.340120579e-01	-3.071413459e-04	2.730149759e-11
-1.430000000e-02	1.340120603e-01	-3.057810478e-04	1.695166076e-11
-1.440000000e-02	1.340120626e-01	-3.044207495e-04	1.100568872e-11
-1.450000000e-02	1.340120648e-01	-3.030604510e-04	9.256545429e-11
-1.460000000e-02	1.340120671e-01	-3.017001523e-04	1.012311807e-11
-1.470000000e-02	1.340120693e-01	-3.003398534e-04	1.328409407e-11
-1.480000000e-02	1.340120714e-01	-2.989795544e-04	1.617038287e-11
-1.490000000e-02	1.340120735e-01	-2.976192551e-04	1.144410910e-11
-1.500000000e-02	1.340120756e-01	-2.962589557e-04	1.585668351e-11
-1.510000000e-02	1.340120776e-01	-2.948986561e-04	1.025761829e-11
-1.520000000e-02	1.340120796e-01	-2.935383563e-04	9.226893903e-12
-1.530000000e-02	1.340120815e-01	-2.921780564e-04	2.109407662e-11
-1.540000000e-02	1.340120834e-01	-2.908177563e-04	1.508969688e-11
-1.550000000e-02	1.340120852e-01	-2.894574560e-04	6.422640852e-12
-1.560000000e-02	1.340120871e-01	-2.880971555e-04	1.979103772e-11
-1.570000000e-02	1.340120888e-01	-2.867368549e-04	7.770554215e-12
-1.580000000e-02	1.340120906e-01	-2.853765541e-04	8.165914604e-12
-1.590000000e-02	1.340120923e-01	-2.840162532e-04	5.736530145e-12
-1.600000000e-02	1.340120939e-01	-2.826559520e-04	2.391158105e-11
-1.610000000e-02	1.340120955e-01	-2.812956508e-04	1.140702683e-11
-1.620000000e-02	1.340120971e-01	-2.799353494e-04	1.027346479e-11
-1.630000000e-02	1.340120986e-01	-2.785750478e-04	1.990896326e-11
-1.640000000e-02	1.340121001e-01	-2.772147461e-04	9.286325448e-12
-1.650000000e-02	1.340121015e-01	-2.758544442e-04	3.015359129e-11
-1.660000000e-02	1.340121029e-01	-2.744941422e-04	2.122789872e-11
-1.670000000e-02	1.340121043e-01	-2.731338400e-04	2.519849026e-11
-1.680000000e-02	1.340121056e-01	-2.717735377e-04	9.624460037e-12
-1.690000000e-02	1.340121069e-01	-2.704132352e-04	9.276912770e-12
-1.700000000e-02	1.340121081e-01	-2.690529327e-04	9.249390058e-12
-1.710000000e-02	1.340121093e-01	-2.676926299e-04	1.898697168e-11
-1.720000000e-02	1.340121105e-01	-2.663323271e-04	1.081622613e-11
-1.730000000e-02	1.340121116e-01	-2.649720241e-04	2.605921250e-11
-1.740000000e-02	1.340121126e-01	-2.636117210e-04	9.892806385e-12
-1.750000000e-02	1.340121137e-01	-2.622514177e-04	2.863387736e-11
-1.760000000e-02	1.340121146e-01	-2.608911143e-04	2.150531518e-11
-1.770000000e-02	1.340121156e-01	-2.595308109e-04	1.820083263e-11
-1.780000000e-02	1.340121165e-01	-2.581705072e-04	2.327232043e-11
-1.790000000e-02	1.340121174e-01	-2.568102035e-04	8.992728658e-12
-1.800000000e-02	1.340121182e-01	-2.554498996e-04	1.157523838e-11
-1.810000000e-02	1.340121190e-01	-2.540895957e-04	7.086440581e-12
-1.820000000e-02	1.340121197e-01	-2.527292916e-04	8.417099170e-12
-1.830000000e-02	1.340121204e-01	-2.513689874e-04	8.566927191e-12
-1.840000000e-02	1.340121211e-01	-2.500086831e-04	8.102733608e-11
-1.850000000e-02	1.340121217e-01	-2.486483787e-04	1.478007075e-11
-1.860000000e-02	1.340121222e-01	-2.472880741e-04	8.497295215e-12
-1.870000000e-02	1.340121228e-01	-2.459277695e-04	1.514565430e-11
-1.880000000e-02	1.340121233e-01	-2.445674648e-04	7.103863215e-12
-1.890000000e-02	1.340121237e-01	-2.432071600e-04	1.073185458e-11
-1.900000000e-02	1.340121241e-01	-2.418468551e-04	1.183652043e-11
-1.910000000e-02	1.340121245e-01	-2.404865500e-04	1.935673971e-11
-1.920000000e-02	1.340121248e-01	-2.391262449e-04	8.373897686e-12
-1.930000000e-02	1.340121251e-01	-2.377659397e-04	7.062665275e-12
-1.940000000e-02	1.340121254e-01	-2.364056345e-04	9.871390957e-12
-1.950000000e-02	1.340121256e-01	-2.350453291e-04	2.788250090e-11
-1.960000000e-02	1.340121257e-01	-2.336850236e-04	1.807525010e-11
-1.970000000e-02	1.340121258e-01	-2.323247181e-04	1.780793955e-11
-1.980000000e-02	1.340121259e-01	-2.309644125e-04	2.775201525e-11
-1.990000000e-02	1.340121259e-01	-2.296041068e-04	1.093115731e-11
-2.000000000e-02	1.340121259e-01	-2.282438010e-04	1.851909508e-10
-2.010000000e-02	1.340121259e-01	-2.268834952e-04	9.629814438e-12
-2.020000000e-02	1.340121258e-01	-2.255231892e-04	1.790038534e-11
-2.030000000e-02	1.340121257e-01	-2.241628833e-04	1.164071374e-11
-2.040000000e-02	1.340121255e-01	-2.228025772e-04	3.726165135e-11
-2.050000000e-02	1.340121253e-01	-2.214422711e-04	7.199752832e-12
-2.060000000e-02	1.340121250e-01	-2.200819649e-04	7.065308980e-11
-2.070000000e-02	1.340121248e-01	-2.187216587e-04	1.285466357e-11
-2.080000000e-02	1.340121244e-01	-2.173613524e-04	1.098343622e-11
-2.090000000e-02	1.340121240e-01	-2.160010460e-04	1.658593727e-11
-2.100000000e-02	1.340121236e-01	-2.146407396e-04	1.187480907e-11
-2.110000000e-02	1.340121232e-01	-2.132804331e-04	8.905953768e-12
-2.120000000e-02	1.340121227e-01	-2.119201266e-04	1.060699883e-11
-2.130000000e-02	1.340121221e-01	-2.105598200e-04	1.336434966e-11
-2.140000000e-02	1.340121215e-01	-2.091995134e-04	5.515318741e-12
-2.150000000e-02	1.340121209e-01	-2.078392067e-04	6.540778274e-12
-2.160000000e-02	1.340121203e-01	-2.064789000e-04	1.210278305e-11
-2.170000000e-02	1.340121195e-01	-2.051185933e-04	1.615595267e-11
-2.180000000e-02	1.340121188e-01	-2.037582865e-04	1.263900581e-11
-2.190000000e-02	1.340121180e-01	-2.023979797e-04	1.116334428e-11
-2.200000000e-02	1.340121172e-01	-2.010376728e-04	1.538025294e-11
-2.210000000e-02	1.340121163e-01	-1.996773660e-04	9.085049669e-12
-2.220000000e-02	1.340121154e-01	-1.983170591e-04	1.211671782e-11
-2.230000000e-02	1.340121144e-01	-1.969567521e-04	7.089529543e-12
-2.240000000e-02	1.340121134e-01	-1.955964451e-04	1.523497187e-11
-2.250000000e-02	1.340121124e-01	-1.942361382e-04	6.698275512e-12
-2.260000000e-02	1.340121113e-01	-1.928758311e-04	1.018307679e-11
-2.270000000e-02	1.340121102e-01	-1.915155241e-04	1.015171150e-11
-2.280000000e-02	1.340121090e-01	-1.901552171e-04	2.418965685e-11
-2.290000000e-02	1.340121078e-01	-1.887949100e-04	1.966811293e-11
-2.300000000e-02	1.340121066e-01	-1.874346029e-04	8.377142732e-12
-2.310000000e-02	1.340121053e-01	-1.860742958e-04	8.888534911e-12
-2.320000000e-02	1.340121040e-01	-1.847139887e-04	8.378938696e-12
-2.330000000e-02	1.340121026e-01	-1.833536816e-04	1.609005117e-11
-2.340000000e-02	1.340121012e-01	-1.819933745e-04	1.481169620e-11
-2.350000000e-02	1.340120998e-01	-1.806330674e-04	1.116549668e-11
-2.360000000e-02	1.340120983e-01	-1.792727603e-04	1.985099772e-11
-2.370000000e-02	1.340120967e-01	-1.779124532e-04	3.448070602e-11
-2.380000000e-02	1.340120952e-01	-1.765521461e-04	1.281448451e-11
-2.390000000e-02	1.340120936e-01	-1.751918389e-04	1.060913646e-11
-2.400000000e-02	1.340120919e-01	-1.738315318e-04	9.091069594e-12
-2.410000000e-02	1.340120902e-01	-1.724712248e-04	2.392369846e-11
-2.420000000e-02	1.340120885e-01	-1.711109177e-04	9.796714841e-12
-2.430000000e-02	1.340120867e-01	-1.697506106e-04	1.073446114e-11
-2.440000000e-02	1.340120849e-01	-1.683903036e-04	8.113166671e-12
-2.450000000e-02	1.340120830e-01	-1.670299965e-04	1.635218322e-11
-2.460000000e-02	1.340120811e-01	-1.656696895e-04	1.549741868e-11
-2.470000000e-02	1.340120791e-01	-1.643093825e-04	1.661714044e-11
-2.480000000e-02	1.340120772e-01	-1.629490756e-04	9.428399327e-12
-2.490000000e-02	1.340120751e-01	-1.615887686e-04	1.629049422e-11
-2.500000000e-02	1.340120731e-01	-1.602284617e-04	8.860750826e-12
-2.510000000e-02	1.340120709e-01	-1.588681549e-04	1.277607570e-11
-2.520000000e-02	1.340120688e-01	-1.575078480e-04	8.765485748e-11
-2.530000000e-02	1.340120666e-01	-1.561475412e-04	1.183979223e-11
-2.540000000e-02	1.340120644e-01	-1.547872344e-04	9.476950704e-12
-2.550000000e-02	1.340120621e-01	-1.534269277e-04	1.510510169e-11
-2.560000000e-02	1.340120598e-01	-1.520666210e-04	8.401667818e-12
-2.570000000e-02	1.340120574e-01	-1.507063144e-04	2.408287963e-11
-2.580000000e-02	1.340120550e-01	-1.493460077e-04	1.358209980e-11
-2.590000000e-02	1.340120526e-01	-1.479857012e-04	2.168832276e-11
-2.600000000e-02	1.340120501e-01	-1.466253947e-04	2.472400821e-11
-2.610000000e-02	1.340120476e-01	-1.452650882e-04	1.252564484e-11
-2.620000000e-02	1.340120450e-01	-1.439047818e-04	5.289396692e-12
-2.630000000e-02	1.340120424e-01	-1.425444755e-04	1.103747296e-11
-2.640000000e-02	1.340120397e-01	-1.411841692e-04	9.442451457e-12
-2.650000000e-02	1.340120371e-01	-1.398238629e-04	2.277873919e-11
-2.660000000e-02	1.340120343e-01	-1.384635568e-04	2.555974827e-11
-2.670000000e-02	1.340120315e-01	-1.371032507e-04	6.351726004e-12
-2.680000000e-02	1.340120287e-01	-1.357429446e-04	1.769488602e-11
-2.690000000e-02	1.340120259e-01	-1.343826386e-04	1.953555741e-11
-2.700000000e-02	1.340120230e-01	-1.330223327e-04	1.345915596e-11
-2.710000000e-02	1.340120200e-01	-1.316620269e-04	7.467276676e-12
-2.720000000e-02	1.340120171e-01	-1.303017212e-04	1.633190843e-11
-2.730000000e-02	1.340120140e-01	-1.289414155e-04	1.684925531e-11
-2.740000000e-02	1.340120110e-01	-1.275811099e-04	8.335609889e-11
-2.750000000e-02	1.340120079e-01	-1.262208044e-04	4.880155905e-12
-2.760000000e-02	1.340120047e-01	-1.248604989e-04	1.102580149e-11
-2.770000000e-02	1.340120016e-01	-1.235001936e-04	1.549837716e-11
-2.780000000e-02	1.340119983e-01	-1.221398883e-04	1.260041569e-11
-2.790000000e-02	1.340119951e-01	-1.207795831e-04	6.150645059e-11
-2.800000000e-02	1.340119918e-01	-1.194192780e-04	8.789682982e-12
-2.810000000e-02	1.340119884e-01	-1.180589730e-04	1.063128207e-11
-2.820000000e-02	1.340119850e-01	-1.166986681e-04	2.153193063e-10
-2.830000000e-02	1.340119816e-01	-1.153383633e-04	7.207216360e-12
-2.840000000e-02	1.340119781e-01	-1.139780586e-04	9.580514754e-12
-2.850000000e-02	1.340119746e-01	-1.126177540e-04	9.978625704e-12
-2.860000000e-02	1.340119710e-01	-1.112574495e-04	1.637013288e-11
-2.870000000e-02	1.340119674e-01	-1.098971451e-04	2.300670977e-11
-2.880000000e-02	1.340119638e-01	-1.085368409e-04	3.579461873e-11
-2.890000000e-02	1.340119601e-01	-1.071765367e-04	9.462928977e-12
-2.900000000e-02	1.340119564e-01	-1.058162326e-04	2.393641590e-11
-2.910000000e-02	1.340119526e-01	-1.044559287e-04	8.407941675e-12
-2.920000000e-02	1.340119488e-01	-1.030956248e-04	1.305462463e-11
-2.930000000e-02	1.340119450e-01	-1.017353211e-04	1.617786466e-11
-2.940000000e-02	1.340119411e-01	-1.003750175e-04	1.601305125e-11
-2.950000000e-02	1.340119372e-01	-9.901471404e-05	1.351205313e-11
-2.960000000e-02	1.340119332e-01	-9.765441069e-05	6.877543887e-12
-2.970000000e-02	1.340119292e-01	-9.629410747e-05	6.222005430e-12
-2.980000000e-02	1.340119251e-01	-9.493380438e-05	1.173035756e-11
-2.990000000e-02	1.340119210e-01	-9.357350141e-05	2.541414626e-11
-3.000000000e-02	1.340119169e-01	-9.221319858e-05	2.500828002e-11
