# Im(epsi1)     Re(omega/c)      Im(omega/c)      Eq(det).Opt det CON kz, R=0.5 \mum, mu_c=0.3, Re(epsi1)=3.90solve_det_conkz_vs_kz.py
0.000000000e+00	1.340101732e-01	-4.948680643e-04	9.448998795e-12
-1.000000000e-04	1.340101812e-01	-4.935076504e-04	1.468810821e-11
-2.000000000e-04	1.340101892e-01	-4.921472361e-04	2.096252729e-11
-3.000000000e-04	1.340101972e-01	-4.907868213e-04	1.117129247e-11
-4.000000000e-04	1.340102051e-01	-4.894264061e-04	1.090945232e-11
-5.000000000e-04	1.340102130e-01	-4.880659903e-04	8.336512034e-12
-6.000000000e-04	1.340102208e-01	-4.867055741e-04	1.203969739e-11
-7.000000000e-04	1.340102286e-01	-4.853451574e-04	1.866559689e-11
-8.000000000e-04	1.340102364e-01	-4.839847403e-04	3.534213309e-11
-9.000000000e-04	1.340102441e-01	-4.826243226e-04	1.082276614e-11
-1.000000000e-03	1.340102518e-01	-4.812639045e-04	1.497564632e-11
-1.100000000e-03	1.340102594e-01	-4.799034860e-04	2.392353010e-11
-1.200000000e-03	1.340102670e-01	-4.785430670e-04	1.262580082e-11
-1.300000000e-03	1.340102746e-01	-4.771826475e-04	1.446444279e-11
-1.400000000e-03	1.340102821e-01	-4.758222276e-04	1.438508139e-11
-1.500000000e-03	1.340102896e-01	-4.744618072e-04	1.761714223e-11
-1.600000000e-03	1.340102970e-01	-4.731013864e-04	2.176064211e-11
-1.700000000e-03	1.340103044e-01	-4.717409651e-04	6.702783663e-11
-1.800000000e-03	1.340103117e-01	-4.703805434e-04	1.637902004e-11
-1.900000000e-03	1.340103190e-01	-4.690201212e-04	1.334178710e-11
-2.000000000e-03	1.340103263e-01	-4.676596986e-04	9.374171283e-12
-2.100000000e-03	1.340103335e-01	-4.662992756e-04	1.472276777e-11
-2.200000000e-03	1.340103407e-01	-4.649388521e-04	1.133609019e-11
-2.300000000e-03	1.340103479e-01	-4.635784282e-04	8.589244835e-12
-2.400000000e-03	1.340103550e-01	-4.622180038e-04	2.270155635e-11
-2.500000000e-03	1.340103620e-01	-4.608575790e-04	7.060074994e-12
-2.600000000e-03	1.340103690e-01	-4.594971538e-04	1.423640786e-11
-2.700000000e-03	1.340103760e-01	-4.581367282e-04	6.586908222e-12
-2.800000000e-03	1.340103829e-01	-4.567763021e-04	1.013370154e-11
-2.900000000e-03	1.340103898e-01	-4.554158756e-04	1.496298233e-11
-3.000000000e-03	1.340103967e-01	-4.540554487e-04	2.727848106e-11
-3.100000000e-03	1.340104035e-01	-4.526950213e-04	1.782204412e-11
-3.200000000e-03	1.340104103e-01	-4.513345936e-04	1.640543838e-11
-3.300000000e-03	1.340104170e-01	-4.499741654e-04	1.466766098e-11
-3.400000000e-03	1.340104237e-01	-4.486137368e-04	6.431811054e-12
-3.500000000e-03	1.340104303e-01	-4.472533078e-04	1.363402924e-11
-3.600000000e-03	1.340104369e-01	-4.458928784e-04	1.810136703e-11
-3.700000000e-03	1.340104435e-01	-4.445324486e-04	1.820498618e-10
-3.800000000e-03	1.340104500e-01	-4.431720184e-04	1.726812938e-11
-3.900000000e-03	1.340104565e-01	-4.418115877e-04	9.958496621e-12
-4.000000000e-03	1.340104629e-01	-4.404511567e-04	1.124246585e-11
-4.100000000e-03	1.340104693e-01	-4.390907253e-04	1.382428573e-11
-4.200000000e-03	1.340104757e-01	-4.377302935e-04	5.361361242e-12
-4.300000000e-03	1.340104820e-01	-4.363698612e-04	4.538318561e-11
-4.400000000e-03	1.340104883e-01	-4.350094286e-04	1.871541298e-11
-4.500000000e-03	1.340104945e-01	-4.336489956e-04	9.719092656e-12
-4.600000000e-03	1.340105007e-01	-4.322885622e-04	9.527085405e-12
-4.700000000e-03	1.340105069e-01	-4.309281285e-04	1.533122640e-11
-4.800000000e-03	1.340105130e-01	-4.295676943e-04	9.149057163e-12
-4.900000000e-03	1.340105190e-01	-4.282072598e-04	1.030234214e-11
-5.000000000e-03	1.340105251e-01	-4.268468248e-04	2.049930646e-11
-5.100000000e-03	1.340105310e-01	-4.254863895e-04	2.930867661e-11
-5.200000000e-03	1.340105370e-01	-4.241259539e-04	8.735309035e-12
-5.300000000e-03	1.340105429e-01	-4.227655178e-04	1.590855018e-11
-5.400000000e-03	1.340105487e-01	-4.214050814e-04	1.119596085e-11
-5.500000000e-03	1.340105546e-01	-4.200446446e-04	5.970896199e-11
-5.600000000e-03	1.340105603e-01	-4.186842074e-04	1.711167920e-11
-5.700000000e-03	1.340105661e-01	-4.173237699e-04	1.298877773e-11
-5.800000000e-03	1.340105718e-01	-4.159633320e-04	1.162348808e-11
-5.900000000e-03	1.340105774e-01	-4.146028937e-04	1.901213141e-11
-6.000000000e-03	1.340105830e-01	-4.132424551e-04	1.356267869e-11
-6.100000000e-03	1.340105886e-01	-4.118820162e-04	1.609110862e-11
-6.200000000e-03	1.340105941e-01	-4.105215768e-04	2.053249500e-11
-6.300000000e-03	1.340105996e-01	-4.091611372e-04	4.843232364e-11
-6.400000000e-03	1.340106051e-01	-4.078006971e-04	2.051788456e-11
-6.500000000e-03	1.340106105e-01	-4.064402568e-04	1.361885787e-11
-6.600000000e-03	1.340106158e-01	-4.050798160e-04	3.399793693e-11
-6.700000000e-03	1.340106212e-01	-4.037193750e-04	2.193214552e-11
-6.800000000e-03	1.340106264e-01	-4.023589336e-04	5.862599693e-11
-6.900000000e-03	1.340106317e-01	-4.009984918e-04	1.207140880e-10
-7.000000000e-03	1.340106369e-01	-3.996380497e-04	1.995184541e-11
-7.100000000e-03	1.340106420e-01	-3.982776073e-04	9.432196140e-12
-7.200000000e-03	1.340106472e-01	-3.969171645e-04	1.303852097e-11
-7.300000000e-03	1.340106522e-01	-3.955567214e-04	1.733861323e-11
-7.400000000e-03	1.340106573e-01	-3.941962780e-04	1.348340335e-11
-7.500000000e-03	1.340106623e-01	-3.928358343e-04	1.057680919e-11
-7.600000000e-03	1.340106672e-01	-3.914753902e-04	8.264298089e-12
-7.700000000e-03	1.340106721e-01	-3.901149458e-04	1.150887118e-11
-7.800000000e-03	1.340106770e-01	-3.887545011e-04	8.256618764e-12
-7.900000000e-03	1.340106818e-01	-3.873940560e-04	1.441654273e-11
-8.000000000e-03	1.340106866e-01	-3.860336106e-04	5.962452074e-12
-8.100000000e-03	1.340106914e-01	-3.846731650e-04	1.810593003e-11
-8.200000000e-03	1.340106961e-01	-3.833127190e-04	6.365412025e-12
-8.300000000e-03	1.340107007e-01	-3.819522727e-04	1.299735447e-11
-8.400000000e-03	1.340107053e-01	-3.805918261e-04	5.077253814e-12
-8.500000000e-03	1.340107099e-01	-3.792313792e-04	3.216898522e-11
-8.600000000e-03	1.340107145e-01	-3.778709319e-04	5.448407577e-11
-8.700000000e-03	1.340107190e-01	-3.765104844e-04	2.920862847e-11
-8.800000000e-03	1.340107234e-01	-3.751500366e-04	1.785216141e-11
-8.900000000e-03	1.340107278e-01	-3.737895884e-04	1.613341661e-11
-9.000000000e-03	1.340107322e-01	-3.724291400e-04	1.993619051e-11
-9.100000000e-03	1.340107365e-01	-3.710686913e-04	1.217272809e-11
-9.200000000e-03	1.340107408e-01	-3.697082423e-04	7.090910504e-12
-9.300000000e-03	1.340107451e-01	-3.683477930e-04	8.644381507e-12
-9.400000000e-03	1.340107493e-01	-3.669873434e-04	8.202818568e-12
-9.500000000e-03	1.340107534e-01	-3.656268935e-04	1.407366457e-11
-9.600000000e-03	1.340107576e-01	-3.642664434e-04	1.077827770e-11
-9.700000000e-03	1.340107617e-01	-3.629059929e-04	1.349324810e-11
-9.800000000e-03	1.340107657e-01	-3.615455422e-04	2.390348108e-11
-9.900000000e-03	1.340107697e-01	-3.601850912e-04	2.496774767e-11
-1.000000000e-02	1.340107737e-01	-3.588246399e-04	2.565681158e-11
-1.010000000e-02	1.340107776e-01	-3.574641884e-04	9.129426439e-12
-1.020000000e-02	1.340107815e-01	-3.561037365e-04	7.838843115e-12
-1.030000000e-02	1.340107853e-01	-3.547432844e-04	1.618514606e-11
-1.040000000e-02	1.340107891e-01	-3.533828321e-04	5.161916368e-11
-1.050000000e-02	1.340107928e-01	-3.520223795e-04	7.559559505e-12
-1.060000000e-02	1.340107966e-01	-3.506619266e-04	9.623275835e-12
-1.070000000e-02	1.340108002e-01	-3.493014734e-04	8.544522523e-12
-1.080000000e-02	1.340108039e-01	-3.479410200e-04	6.986464341e-12
-1.090000000e-02	1.340108074e-01	-3.465805663e-04	1.046142061e-11
-1.100000000e-02	1.340108110e-01	-3.452201124e-04	1.123576624e-11
-1.110000000e-02	1.340108145e-01	-3.438596582e-04	5.705139482e-12
-1.120000000e-02	1.340108180e-01	-3.424992038e-04	1.110542421e-10
-1.130000000e-02	1.340108214e-01	-3.411387491e-04	4.233200194e-11
-1.140000000e-02	1.340108248e-01	-3.397782942e-04	1.834956835e-11
-1.150000000e-02	1.340108281e-01	-3.384178390e-04	6.053078740e-12
-1.160000000e-02	1.340108314e-01	-3.370573836e-04	1.322026797e-11
-1.170000000e-02	1.340108347e-01	-3.356969280e-04	1.496064606e-11
-1.180000000e-02	1.340108379e-01	-3.343364721e-04	2.009383460e-11
-1.190000000e-02	1.340108410e-01	-3.329760160e-04	7.174934925e-12
-1.200000000e-02	1.340108442e-01	-3.316155596e-04	9.931094810e-12
-1.210000000e-02	1.340108473e-01	-3.302551030e-04	2.453418848e-11
-1.220000000e-02	1.340108503e-01	-3.288946462e-04	1.235424797e-11
-1.230000000e-02	1.340108533e-01	-3.275341891e-04	5.714292458e-12
-1.240000000e-02	1.340108563e-01	-3.261737319e-04	2.686845299e-11
-1.250000000e-02	1.340108592e-01	-3.248132744e-04	2.723043325e-11
-1.260000000e-02	1.340108621e-01	-3.234528166e-04	1.164632852e-11
-1.270000000e-02	1.340108650e-01	-3.220923587e-04	7.985945513e-12
-1.280000000e-02	1.340108678e-01	-3.207319006e-04	5.112945042e-11
-1.290000000e-02	1.340108705e-01	-3.193714422e-04	8.620740067e-12
-1.300000000e-02	1.340108732e-01	-3.180109836e-04	8.169441086e-12
-1.310000000e-02	1.340108759e-01	-3.166505248e-04	5.569349456e-11
-1.320000000e-02	1.340108786e-01	-3.152900658e-04	2.063200443e-11
-1.330000000e-02	1.340108812e-01	-3.139296066e-04	1.202672404e-11
-1.340000000e-02	1.340108837e-01	-3.125691471e-04	5.642199329e-11
-1.350000000e-02	1.340108862e-01	-3.112086875e-04	1.382530669e-11
-1.360000000e-02	1.340108887e-01	-3.098482277e-04	8.081263779e-12
-1.370000000e-02	1.340108911e-01	-3.084877677e-04	1.005266286e-11
-1.380000000e-02	1.340108935e-01	-3.071273074e-04	7.824680750e-12
-1.390000000e-02	1.340108959e-01	-3.057668470e-04	1.672173073e-11
-1.400000000e-02	1.340108982e-01	-3.044063864e-04	5.125803555e-12
-1.410000000e-02	1.340109004e-01	-3.030459256e-04	1.241394539e-11
-1.420000000e-02	1.340109027e-01	-3.016854646e-04	1.900765049e-11
-1.430000000e-02	1.340109049e-01	-3.003250035e-04	1.908203244e-11
-1.440000000e-02	1.340109070e-01	-2.989645421e-04	3.435236185e-11
-1.450000000e-02	1.340109091e-01	-2.976040806e-04	1.043312460e-11
-1.460000000e-02	1.340109112e-01	-2.962436189e-04	8.552771171e-12
-1.470000000e-02	1.340109132e-01	-2.948831570e-04	1.314321366e-11
-1.480000000e-02	1.340109151e-01	-2.935226949e-04	7.802725081e-11
-1.490000000e-02	1.340109171e-01	-2.921622327e-04	3.610354123e-11
-1.500000000e-02	1.340109190e-01	-2.908017702e-04	1.472519782e-10
-1.510000000e-02	1.340109208e-01	-2.894413076e-04	3.753270860e-11
-1.520000000e-02	1.340109226e-01	-2.880808449e-04	1.155460068e-11
-1.530000000e-02	1.340109244e-01	-2.867203820e-04	6.605392784e-12
-1.540000000e-02	1.340109261e-01	-2.853599189e-04	1.907256709e-11
-1.550000000e-02	1.340109278e-01	-2.839994556e-04	7.816244387e-12
-1.560000000e-02	1.340109295e-01	-2.826389922e-04	9.586637361e-12
-1.570000000e-02	1.340109311e-01	-2.812785287e-04	2.170220695e-11
-1.580000000e-02	1.340109326e-01	-2.799180649e-04	2.641843664e-11
-1.590000000e-02	1.340109342e-01	-2.785576011e-04	7.107882391e-11
-1.600000000e-02	1.340109356e-01	-2.771971371e-04	4.558030639e-12
-1.610000000e-02	1.340109371e-01	-2.758366729e-04	2.384255269e-11
-1.620000000e-02	1.340109385e-01	-2.744762086e-04	2.085008466e-11
-1.630000000e-02	1.340109398e-01	-2.731157441e-04	1.121061270e-11
-1.640000000e-02	1.340109412e-01	-2.717552795e-04	2.356924380e-11
-1.650000000e-02	1.340109424e-01	-2.703948148e-04	2.975404797e-11
-1.660000000e-02	1.340109437e-01	-2.690343499e-04	1.305262302e-11
-1.670000000e-02	1.340109449e-01	-2.676738849e-04	1.403820765e-10
-1.680000000e-02	1.340109460e-01	-2.663134197e-04	2.309863111e-11
-1.690000000e-02	1.340109471e-01	-2.649529544e-04	1.060899129e-11
-1.700000000e-02	1.340109482e-01	-2.635924890e-04	1.086434072e-11
-1.710000000e-02	1.340109492e-01	-2.622320235e-04	2.007740973e-11
-1.720000000e-02	1.340109502e-01	-2.608715578e-04	7.272617055e-12
-1.730000000e-02	1.340109511e-01	-2.595110920e-04	5.109112494e-11
-1.740000000e-02	1.340109520e-01	-2.581506261e-04	1.958526510e-11
-1.750000000e-02	1.340109529e-01	-2.567901601e-04	8.427140159e-12
-1.760000000e-02	1.340109537e-01	-2.554296939e-04	7.910235345e-12
-1.770000000e-02	1.340109545e-01	-2.540692277e-04	1.686853329e-11
-1.780000000e-02	1.340109552e-01	-2.527087613e-04	9.352505734e-12
-1.790000000e-02	1.340109559e-01	-2.513482948e-04	8.129627332e-12
-1.800000000e-02	1.340109566e-01	-2.499878282e-04	8.268222554e-12
-1.810000000e-02	1.340109572e-01	-2.486273615e-04	1.335254954e-10
-1.820000000e-02	1.340109578e-01	-2.472668947e-04	9.531341534e-12
-1.830000000e-02	1.340109583e-01	-2.459064278e-04	1.968392676e-11
-1.840000000e-02	1.340109588e-01	-2.445459608e-04	7.592565430e-12
-1.850000000e-02	1.340109592e-01	-2.431854936e-04	4.676386765e-12
-1.860000000e-02	1.340109596e-01	-2.418250264e-04	2.303481251e-11
-1.870000000e-02	1.340109600e-01	-2.404645591e-04	4.397643140e-11
-1.880000000e-02	1.340109603e-01	-2.391040917e-04	1.158835751e-11
-1.890000000e-02	1.340109606e-01	-2.377436242e-04	1.422814132e-11
-1.900000000e-02	1.340109609e-01	-2.363831567e-04	7.205984494e-12
-1.910000000e-02	1.340109611e-01	-2.350226890e-04	9.407501709e-11
-1.920000000e-02	1.340109612e-01	-2.336622213e-04	1.258827146e-11
-1.930000000e-02	1.340109613e-01	-2.323017534e-04	9.460912579e-12
-1.940000000e-02	1.340109614e-01	-2.309412855e-04	8.515461901e-12
-1.950000000e-02	1.340109614e-01	-2.295808175e-04	9.432375494e-12
-1.960000000e-02	1.340109614e-01	-2.282203495e-04	6.246661784e-11
-1.970000000e-02	1.340109614e-01	-2.268598814e-04	3.238216231e-11
-1.980000000e-02	1.340109613e-01	-2.254994131e-04	6.152392107e-11
-1.990000000e-02	1.340109612e-01	-2.241389449e-04	1.946158336e-11
-2.000000000e-02	1.340109610e-01	-2.227784765e-04	9.736087186e-12
-2.010000000e-02	1.340109608e-01	-2.214180081e-04	2.109864264e-11
-2.020000000e-02	1.340109605e-01	-2.200575396e-04	6.445239434e-12
-2.030000000e-02	1.340109602e-01	-2.186970711e-04	9.259577507e-12
-2.040000000e-02	1.340109599e-01	-2.173366025e-04	1.711379093e-11
-2.050000000e-02	1.340109595e-01	-2.159761339e-04	1.595572810e-11
-2.060000000e-02	1.340109591e-01	-2.146156652e-04	6.019163002e-11
-2.070000000e-02	1.340109586e-01	-2.132551964e-04	7.772277107e-12
-2.080000000e-02	1.340109581e-01	-2.118947276e-04	1.325869697e-11
-2.090000000e-02	1.340109576e-01	-2.105342588e-04	1.313599627e-11
-2.100000000e-02	1.340109570e-01	-2.091737899e-04	2.670636818e-11
-2.110000000e-02	1.340109564e-01	-2.078133209e-04	1.333662364e-11
-2.120000000e-02	1.340109557e-01	-2.064528519e-04	6.190890566e-11
-2.130000000e-02	1.340109550e-01	-2.050923829e-04	2.983853077e-11
-2.140000000e-02	1.340109543e-01	-2.037319138e-04	6.087980302e-12
-2.150000000e-02	1.340109535e-01	-2.023714447e-04	6.143307484e-12
-2.160000000e-02	1.340109526e-01	-2.010109756e-04	1.869200355e-11
-2.170000000e-02	1.340109518e-01	-1.996505064e-04	1.164488615e-11
-2.180000000e-02	1.340109508e-01	-1.982900372e-04	7.078153406e-12
-2.190000000e-02	1.340109499e-01	-1.969295680e-04	4.181882063e-11
-2.200000000e-02	1.340109489e-01	-1.955690987e-04	1.171640266e-11
-2.210000000e-02	1.340109478e-01	-1.942086295e-04	6.760111814e-12
-2.220000000e-02	1.340109468e-01	-1.928481602e-04	1.074215515e-11
-2.230000000e-02	1.340109456e-01	-1.914876908e-04	2.761162616e-11
-2.240000000e-02	1.340109445e-01	-1.901272215e-04	1.411173884e-11
-2.250000000e-02	1.340109433e-01	-1.887667522e-04	1.076947424e-11
-2.260000000e-02	1.340109420e-01	-1.874062828e-04	1.547938300e-11
-2.270000000e-02	1.340109407e-01	-1.860458134e-04	9.409289060e-12
-2.280000000e-02	1.340109394e-01	-1.846853440e-04	9.173521684e-12
-2.290000000e-02	1.340109380e-01	-1.833248746e-04	6.881672488e-12
-2.300000000e-02	1.340109366e-01	-1.819644052e-04	5.101886690e-11
-2.310000000e-02	1.340109352e-01	-1.806039359e-04	4.193459263e-11
-2.320000000e-02	1.340109337e-01	-1.792434665e-04	9.028169895e-12
-2.330000000e-02	1.340109322e-01	-1.778829971e-04	1.637631381e-11
-2.340000000e-02	1.340109306e-01	-1.765225277e-04	1.561001985e-11
-2.350000000e-02	1.340109290e-01	-1.751620583e-04	9.807509732e-12
-2.360000000e-02	1.340109273e-01	-1.738015889e-04	6.039645409e-12
-2.370000000e-02	1.340109256e-01	-1.724411195e-04	1.886074290e-11
-2.380000000e-02	1.340109239e-01	-1.710806502e-04	8.214113462e-12
-2.390000000e-02	1.340109221e-01	-1.697201808e-04	1.667774037e-11
-2.400000000e-02	1.340109202e-01	-1.683597115e-04	6.351116742e-11
-2.410000000e-02	1.340109184e-01	-1.669992422e-04	2.091068360e-11
-2.420000000e-02	1.340109165e-01	-1.656387729e-04	8.637037766e-11
-2.430000000e-02	1.340109145e-01	-1.642783036e-04	1.746939459e-11
-2.440000000e-02	1.340109125e-01	-1.629178344e-04	1.048188384e-11
-2.450000000e-02	1.340109105e-01	-1.615573652e-04	8.650135745e-12
-2.460000000e-02	1.340109084e-01	-1.601968960e-04	1.311804766e-11
-2.470000000e-02	1.340109063e-01	-1.588364268e-04	1.333426421e-11
-2.480000000e-02	1.340109042e-01	-1.574759577e-04	1.205855743e-11
-2.490000000e-02	1.340109020e-01	-1.561154886e-04	1.372567106e-11
-2.500000000e-02	1.340108997e-01	-1.547550196e-04	8.282347239e-12
-2.510000000e-02	1.340108974e-01	-1.533945505e-04	1.425333416e-11
-2.520000000e-02	1.340108951e-01	-1.520340816e-04	1.031522661e-11
-2.530000000e-02	1.340108928e-01	-1.506736127e-04	2.449108699e-11
-2.540000000e-02	1.340108904e-01	-1.493131438e-04	2.446360710e-11
-2.550000000e-02	1.340108879e-01	-1.479526749e-04	8.967482635e-12
-2.560000000e-02	1.340108854e-01	-1.465922061e-04	8.083228858e-12
-2.570000000e-02	1.340108829e-01	-1.452317374e-04	1.044333606e-11
-2.580000000e-02	1.340108803e-01	-1.438712687e-04	7.921464590e-11
-2.590000000e-02	1.340108777e-01	-1.425108001e-04	1.517776092e-11
-2.600000000e-02	1.340108751e-01	-1.411503315e-04	1.193914792e-11
-2.610000000e-02	1.340108724e-01	-1.397898630e-04	5.675849258e-12
-2.620000000e-02	1.340108697e-01	-1.384293945e-04	2.596674502e-10
-2.630000000e-02	1.340108669e-01	-1.370689262e-04	3.484162618e-11
-2.640000000e-02	1.340108641e-01	-1.357084579e-04	1.579378625e-11
-2.650000000e-02	1.340108612e-01	-1.343479896e-04	1.017178684e-11
-2.660000000e-02	1.340108583e-01	-1.329875214e-04	2.235812232e-11
-2.670000000e-02	1.340108554e-01	-1.316270533e-04	1.074702729e-11
-2.680000000e-02	1.340108524e-01	-1.302665853e-04	1.061831935e-11
-2.690000000e-02	1.340108494e-01	-1.289061173e-04	1.069718441e-11
-2.700000000e-02	1.340108463e-01	-1.275456495e-04	1.141637166e-11
-2.710000000e-02	1.340108432e-01	-1.261851817e-04	6.541560810e-12
-2.720000000e-02	1.340108400e-01	-1.248247140e-04	1.751372904e-11
-2.730000000e-02	1.340108369e-01	-1.234642463e-04	1.227495718e-11
-2.740000000e-02	1.340108336e-01	-1.221037788e-04	5.237095439e-11
-2.750000000e-02	1.340108304e-01	-1.207433113e-04	1.591136174e-11
-2.760000000e-02	1.340108270e-01	-1.193828440e-04	5.348620447e-12
-2.770000000e-02	1.340108237e-01	-1.180223767e-04	1.516400604e-11
-2.780000000e-02	1.340108203e-01	-1.166619095e-04	2.215389198e-11
-2.790000000e-02	1.340108169e-01	-1.153014425e-04	9.390933882e-12
-2.800000000e-02	1.340108134e-01	-1.139409755e-04	1.392682168e-11
-2.810000000e-02	1.340108099e-01	-1.125805086e-04	4.596581178e-11
-2.820000000e-02	1.340108063e-01	-1.112200419e-04	9.227309308e-12
-2.830000000e-02	1.340108027e-01	-1.098595752e-04	1.502678415e-11
-2.840000000e-02	1.340107991e-01	-1.084991086e-04	1.808723113e-11
-2.850000000e-02	1.340107954e-01	-1.071386422e-04	1.734790801e-11
-2.860000000e-02	1.340107917e-01	-1.057781759e-04	1.443174274e-11
-2.870000000e-02	1.340107879e-01	-1.044177096e-04	3.133882561e-11
-2.880000000e-02	1.340107841e-01	-1.030572435e-04	1.333252253e-11
-2.890000000e-02	1.340107802e-01	-1.016967775e-04	2.159238381e-11
-2.900000000e-02	1.340107763e-01	-1.003363117e-04	1.265534853e-11
-2.910000000e-02	1.340107724e-01	-9.897584593e-05	8.762875639e-12
-2.920000000e-02	1.340107684e-01	-9.761538031e-05	1.285659792e-11
-2.930000000e-02	1.340107644e-01	-9.625491482e-05	9.291770407e-12
-2.940000000e-02	1.340107604e-01	-9.489444945e-05	1.628028130e-11
-2.950000000e-02	1.340107563e-01	-9.353398423e-05	2.415035289e-11
-2.960000000e-02	1.340107521e-01	-9.217351912e-05	1.176554213e-11
-2.970000000e-02	1.340107479e-01	-9.081305416e-05	9.410466054e-12
-2.980000000e-02	1.340107437e-01	-8.945258933e-05	1.740346497e-11
-2.990000000e-02	1.340107395e-01	-8.809212465e-05	2.230627442e-11
-3.000000000e-02	1.340107352e-01	-8.673166010e-05	2.801185824e-11
