# Im(epsi1)     Re(omega/c)      Im(omega/c)      Eq(det).Opt det CON kz, R=0.5 \mum, mu_c=0.3, Re(epsi1)=3.90solve_det_conkz_vs_kz.py
0.000000000e+00	1.340083615e-01	-4.885659908e-04	9.602644401e-11
-1.000000000e-04	1.340083693e-01	-4.872053881e-04	1.392600414e-11
-2.000000000e-04	1.340083772e-01	-4.858447850e-04	1.450249799e-11
-3.000000000e-04	1.340083849e-01	-4.844841815e-04	1.237301508e-11
-4.000000000e-04	1.340083927e-01	-4.831235775e-04	2.252271558e-11
-5.000000000e-04	1.340084004e-01	-4.817629730e-04	1.575043376e-11
-6.000000000e-04	1.340084080e-01	-4.804023680e-04	9.567307355e-12
-7.000000000e-04	1.340084156e-01	-4.790417626e-04	3.166576250e-11
-8.000000000e-04	1.340084232e-01	-4.776811567e-04	6.544787622e-12
-9.000000000e-04	1.340084307e-01	-4.763205504e-04	8.360603626e-12
-1.000000000e-03	1.340084382e-01	-4.749599436e-04	7.151236728e-12
-1.100000000e-03	1.340084456e-01	-4.735993363e-04	3.879723273e-11
-1.200000000e-03	1.340084530e-01	-4.722387287e-04	1.531770857e-11
-1.300000000e-03	1.340084604e-01	-4.708781205e-04	2.072634936e-11
-1.400000000e-03	1.340084677e-01	-4.695175119e-04	2.729806327e-11
-1.500000000e-03	1.340084750e-01	-4.681569029e-04	1.656274873e-11
-1.600000000e-03	1.340084822e-01	-4.667962934e-04	1.260606994e-11
-1.700000000e-03	1.340084894e-01	-4.654356835e-04	5.557422139e-11
-1.800000000e-03	1.340084966e-01	-4.640750732e-04	1.530060812e-11
-1.900000000e-03	1.340085037e-01	-4.627144624e-04	9.146440713e-12
-2.000000000e-03	1.340085108e-01	-4.613538512e-04	9.201636635e-12
-2.100000000e-03	1.340085178e-01	-4.599932396e-04	1.304160560e-11
-2.200000000e-03	1.340085248e-01	-4.586326275e-04	7.205222843e-12
-2.300000000e-03	1.340085318e-01	-4.572720150e-04	1.426716400e-11
-2.400000000e-03	1.340085387e-01	-4.559114021e-04	1.036668789e-11
-2.500000000e-03	1.340085455e-01	-4.545507887e-04	1.167283048e-11
-2.600000000e-03	1.340085524e-01	-4.531901750e-04	9.610360398e-12
-2.700000000e-03	1.340085591e-01	-4.518295608e-04	1.259108900e-11
-2.800000000e-03	1.340085659e-01	-4.504689462e-04	3.793853228e-11
-2.900000000e-03	1.340085726e-01	-4.491083312e-04	1.882711231e-11
-3.000000000e-03	1.340085792e-01	-4.477477157e-04	9.319803990e-12
-3.100000000e-03	1.340085859e-01	-4.463870999e-04	1.486998246e-11
-3.200000000e-03	1.340085924e-01	-4.450264836e-04	1.766909789e-11
-3.300000000e-03	1.340085990e-01	-4.436658670e-04	2.552707086e-11
-3.400000000e-03	1.340086055e-01	-4.423052499e-04	2.031788320e-11
-3.500000000e-03	1.340086119e-01	-4.409446325e-04	1.039408275e-11
-3.600000000e-03	1.340086183e-01	-4.395840146e-04	1.360611177e-11
-3.700000000e-03	1.340086247e-01	-4.382233964e-04	9.673398661e-12
-3.800000000e-03	1.340086310e-01	-4.368627777e-04	5.625126321e-12
-3.900000000e-03	1.340086373e-01	-4.355021587e-04	6.588361375e-11
-4.000000000e-03	1.340086436e-01	-4.341415392e-04	5.368950160e-12
-4.100000000e-03	1.340086498e-01	-4.327809194e-04	1.799110349e-11
-4.200000000e-03	1.340086559e-01	-4.314202992e-04	2.304680508e-11
-4.300000000e-03	1.340086620e-01	-4.300596786e-04	4.683751765e-12
-4.400000000e-03	1.340086681e-01	-4.286990576e-04	2.417270185e-11
-4.500000000e-03	1.340086742e-01	-4.273384363e-04	5.295182269e-11
-4.600000000e-03	1.340086802e-01	-4.259778145e-04	1.148623731e-11
-4.700000000e-03	1.340086861e-01	-4.246171924e-04	1.123796661e-11
-4.800000000e-03	1.340086920e-01	-4.232565699e-04	8.506256911e-11
-4.900000000e-03	1.340086979e-01	-4.218959471e-04	4.017688645e-11
-5.000000000e-03	1.340087037e-01	-4.205353238e-04	8.009622751e-12
-5.100000000e-03	1.340087095e-01	-4.191747002e-04	1.250717510e-11
-5.200000000e-03	1.340087153e-01	-4.178140763e-04	6.695130346e-12
-5.300000000e-03	1.340087210e-01	-4.164534519e-04	1.180368972e-11
-5.400000000e-03	1.340087267e-01	-4.150928272e-04	1.379200747e-11
-5.500000000e-03	1.340087323e-01	-4.137322022e-04	1.230786454e-11
-5.600000000e-03	1.340087379e-01	-4.123715768e-04	2.124021083e-11
-5.700000000e-03	1.340087434e-01	-4.110109510e-04	1.427764788e-11
-5.800000000e-03	1.340087489e-01	-4.096503249e-04	1.640287865e-11
-5.900000000e-03	1.340087544e-01	-4.082896984e-04	1.033917930e-11
-6.000000000e-03	1.340087598e-01	-4.069290716e-04	1.992930324e-11
-6.100000000e-03	1.340087652e-01	-4.055684444e-04	7.628767013e-12
-6.200000000e-03	1.340087705e-01	-4.042078169e-04	1.291276542e-11
-6.300000000e-03	1.340087758e-01	-4.028471890e-04	3.743356079e-11
-6.400000000e-03	1.340087811e-01	-4.014865608e-04	8.395861964e-12
-6.500000000e-03	1.340087863e-01	-4.001259323e-04	1.001721844e-11
-6.600000000e-03	1.340087915e-01	-3.987653034e-04	1.337542106e-11
-6.700000000e-03	1.340087966e-01	-3.974046742e-04	2.846514349e-11
-6.800000000e-03	1.340088017e-01	-3.960440446e-04	1.281338502e-11
-6.900000000e-03	1.340088067e-01	-3.946834148e-04	8.587541994e-12
-7.000000000e-03	1.340088117e-01	-3.933227846e-04	1.761311125e-11
-7.100000000e-03	1.340088167e-01	-3.919621540e-04	1.184486935e-11
-7.200000000e-03	1.340088216e-01	-3.906015232e-04	7.966373088e-12
-7.300000000e-03	1.340088265e-01	-3.892408920e-04	1.111853485e-11
-7.400000000e-03	1.340088313e-01	-3.878802605e-04	1.683683929e-11
-7.500000000e-03	1.340088361e-01	-3.865196287e-04	2.490227306e-11
-7.600000000e-03	1.340088409e-01	-3.851589965e-04	3.862140475e-11
-7.700000000e-03	1.340088456e-01	-3.837983641e-04	1.070243098e-11
-7.800000000e-03	1.340088503e-01	-3.824377313e-04	1.213377556e-11
-7.900000000e-03	1.340088549e-01	-3.810770982e-04	1.263787451e-11
-8.000000000e-03	1.340088595e-01	-3.797164649e-04	8.557994056e-12
-8.100000000e-03	1.340088641e-01	-3.783558312e-04	3.356003130e-11
-8.200000000e-03	1.340088686e-01	-3.769951972e-04	3.559673079e-11
-8.300000000e-03	1.340088730e-01	-3.756345629e-04	1.717666489e-11
-8.400000000e-03	1.340088775e-01	-3.742739283e-04	1.547671144e-11
-8.500000000e-03	1.340088819e-01	-3.729132935e-04	1.573685476e-10
-8.600000000e-03	1.340088862e-01	-3.715526582e-04	1.077335168e-11
-8.700000000e-03	1.340088905e-01	-3.701920228e-04	8.067742870e-12
-8.800000000e-03	1.340088948e-01	-3.688313870e-04	5.895514804e-12
-8.900000000e-03	1.340088990e-01	-3.674707510e-04	1.053627341e-11
-9.000000000e-03	1.340089032e-01	-3.661101146e-04	2.565303948e-11
-9.100000000e-03	1.340089073e-01	-3.647494780e-04	2.116621411e-11
-9.200000000e-03	1.340089114e-01	-3.633888411e-04	8.996085000e-12
-9.300000000e-03	1.340089155e-01	-3.620282039e-04	5.966023719e-12
-9.400000000e-03	1.340089195e-01	-3.606675664e-04	2.437739684e-11
-9.500000000e-03	1.340089235e-01	-3.593069287e-04	1.036394037e-11
-9.600000000e-03	1.340089274e-01	-3.579462906e-04	8.369074641e-12
-9.700000000e-03	1.340089313e-01	-3.565856523e-04	4.875651746e-12
-9.800000000e-03	1.340089351e-01	-3.552250138e-04	8.246454033e-12
-9.900000000e-03	1.340089389e-01	-3.538643749e-04	1.525332626e-11
-1.000000000e-02	1.340089427e-01	-3.525037358e-04	6.564707441e-11
-1.010000000e-02	1.340089464e-01	-3.511430965e-04	1.747656387e-11
-1.020000000e-02	1.340089501e-01	-3.497824569e-04	7.692650521e-12
-1.030000000e-02	1.340089538e-01	-3.484218170e-04	1.381479865e-11
-1.040000000e-02	1.340089574e-01	-3.470611768e-04	6.230021219e-12
-1.050000000e-02	1.340089609e-01	-3.457005364e-04	2.216814340e-11
-1.060000000e-02	1.340089644e-01	-3.443398958e-04	8.236512528e-12
-1.070000000e-02	1.340089679e-01	-3.429792549e-04	1.837239053e-11
-1.080000000e-02	1.340089713e-01	-3.416186137e-04	1.226776527e-11
-1.090000000e-02	1.340089747e-01	-3.402579723e-04	9.046814370e-12
-1.100000000e-02	1.340089781e-01	-3.388973307e-04	2.922690052e-11
-1.110000000e-02	1.340089814e-01	-3.375366888e-04	3.273896187e-11
-1.120000000e-02	1.340089847e-01	-3.361760467e-04	2.185121015e-11
-1.130000000e-02	1.340089879e-01	-3.348154043e-04	3.365648663e-11
-1.140000000e-02	1.340089911e-01	-3.334547617e-04	1.209271457e-11
-1.150000000e-02	1.340089942e-01	-3.320941188e-04	1.143121168e-11
-1.160000000e-02	1.340089973e-01	-3.307334758e-04	1.107896317e-11
-1.170000000e-02	1.340090004e-01	-3.293728325e-04	1.416663805e-11
-1.180000000e-02	1.340090034e-01	-3.280121890e-04	9.466540333e-11
-1.190000000e-02	1.340090064e-01	-3.266515452e-04	1.149943139e-11
-1.200000000e-02	1.340090094e-01	-3.252909012e-04	1.368212382e-11
-1.210000000e-02	1.340090123e-01	-3.239302570e-04	1.721606005e-11
-1.220000000e-02	1.340090151e-01	-3.225696125e-04	1.098380755e-11
-1.230000000e-02	1.340090179e-01	-3.212089679e-04	7.981246257e-12
-1.240000000e-02	1.340090207e-01	-3.198483230e-04	1.420931793e-11
-1.250000000e-02	1.340090234e-01	-3.184876780e-04	1.359694420e-11
-1.260000000e-02	1.340090261e-01	-3.171270327e-04	3.204311211e-11
-1.270000000e-02	1.340090288e-01	-3.157663872e-04	1.584006484e-11
-1.280000000e-02	1.340090314e-01	-3.144057415e-04	9.665603542e-12
-1.290000000e-02	1.340090340e-01	-3.130450956e-04	3.075161922e-11
-1.300000000e-02	1.340090365e-01	-3.116844495e-04	1.837174769e-11
-1.310000000e-02	1.340090390e-01	-3.103238031e-04	1.482927386e-11
-1.320000000e-02	1.340090414e-01	-3.089631566e-04	7.612349371e-12
-1.330000000e-02	1.340090438e-01	-3.076025099e-04	2.865309154e-11
-1.340000000e-02	1.340090462e-01	-3.062418630e-04	1.396470171e-11
-1.350000000e-02	1.340090485e-01	-3.048812159e-04	1.016591924e-11
-1.360000000e-02	1.340090508e-01	-3.035205686e-04	1.353411257e-11
-1.370000000e-02	1.340090530e-01	-3.021599211e-04	1.943661194e-11
-1.380000000e-02	1.340090552e-01	-3.007992735e-04	5.057294656e-11
-1.390000000e-02	1.340090574e-01	-2.994386256e-04	1.502778949e-11
-1.400000000e-02	1.340090595e-01	-2.980779776e-04	3.055822998e-11
-1.410000000e-02	1.340090615e-01	-2.967173294e-04	1.039234461e-11
-1.420000000e-02	1.340090636e-01	-2.953566810e-04	1.562010562e-11
-1.430000000e-02	1.340090656e-01	-2.939960324e-04	1.501687527e-11
-1.440000000e-02	1.340090675e-01	-2.926353837e-04	1.192581560e-11
-1.450000000e-02	1.340090694e-01	-2.912747347e-04	1.232205553e-11
-1.460000000e-02	1.340090713e-01	-2.899140856e-04	3.977179762e-11
-1.470000000e-02	1.340090731e-01	-2.885534364e-04	1.034068839e-11
-1.480000000e-02	1.340090749e-01	-2.871927870e-04	1.330189852e-11
-1.490000000e-02	1.340090766e-01	-2.858321374e-04	6.155360974e-12
-1.500000000e-02	1.340090783e-01	-2.844714876e-04	1.427984186e-11
-1.510000000e-02	1.340090800e-01	-2.831108377e-04	8.920697965e-12
-1.520000000e-02	1.340090816e-01	-2.817501877e-04	1.310502871e-11
-1.530000000e-02	1.340090832e-01	-2.803895375e-04	1.219301562e-11
-1.540000000e-02	1.340090847e-01	-2.790288871e-04	1.544842004e-11
-1.550000000e-02	1.340090862e-01	-2.776682366e-04	2.803319042e-11
-1.560000000e-02	1.340090877e-01	-2.763075859e-04	6.718314860e-12
-1.570000000e-02	1.340090891e-01	-2.749469351e-04	8.080312286e-12
-1.580000000e-02	1.340090905e-01	-2.735862841e-04	1.282455791e-11
-1.590000000e-02	1.340090918e-01	-2.722256330e-04	1.353691690e-11
-1.600000000e-02	1.340090931e-01	-2.708649817e-04	1.536802780e-11
-1.610000000e-02	1.340090943e-01	-2.695043303e-04	1.716883975e-10
-1.620000000e-02	1.340090955e-01	-2.681436788e-04	2.207507458e-11
-1.630000000e-02	1.340090967e-01	-2.667830272e-04	2.128347971e-11
-1.640000000e-02	1.340090978e-01	-2.654223754e-04	8.836884922e-12
-1.650000000e-02	1.340090989e-01	-2.640617234e-04	1.010771407e-11
-1.660000000e-02	1.340090999e-01	-2.627010714e-04	2.069258793e-11
-1.670000000e-02	1.340091009e-01	-2.613404192e-04	1.152062488e-11
-1.680000000e-02	1.340091019e-01	-2.599797669e-04	1.086260604e-11
-1.690000000e-02	1.340091028e-01	-2.586191145e-04	6.796678411e-12
-1.700000000e-02	1.340091037e-01	-2.572584619e-04	4.475786921e-11
-1.710000000e-02	1.340091045e-01	-2.558978093e-04	2.066545928e-11
-1.720000000e-02	1.340091053e-01	-2.545371565e-04	2.592920222e-11
-1.730000000e-02	1.340091060e-01	-2.531765036e-04	2.143338665e-11
-1.740000000e-02	1.340091067e-01	-2.518158506e-04	9.416056341e-11
-1.750000000e-02	1.340091074e-01	-2.504551975e-04	1.842284181e-11
-1.760000000e-02	1.340091080e-01	-2.490945443e-04	2.434874626e-11
-1.770000000e-02	1.340091086e-01	-2.477338909e-04	3.032991187e-11
-1.780000000e-02	1.340091092e-01	-2.463732375e-04	1.916025826e-11
-1.790000000e-02	1.340091097e-01	-2.450125840e-04	1.103207416e-11
-1.800000000e-02	1.340091101e-01	-2.436519303e-04	1.255700395e-11
-1.810000000e-02	1.340091105e-01	-2.422912766e-04	1.526054537e-11
-1.820000000e-02	1.340091109e-01	-2.409306228e-04	1.010719304e-11
-1.830000000e-02	1.340091113e-01	-2.395699689e-04	9.437827127e-12
-1.840000000e-02	1.340091116e-01	-2.382093148e-04	1.702832073e-11
-1.850000000e-02	1.340091118e-01	-2.368486608e-04	7.171941849e-12
-1.860000000e-02	1.340091120e-01	-2.354880066e-04	1.319198750e-11
-1.870000000e-02	1.340091122e-01	-2.341273523e-04	1.743441433e-11
-1.880000000e-02	1.340091123e-01	-2.327666980e-04	1.347627547e-11
-1.890000000e-02	1.340091124e-01	-2.314060435e-04	1.378348264e-11
-1.900000000e-02	1.340091125e-01	-2.300453890e-04	9.234235471e-12
-1.910000000e-02	1.340091125e-01	-2.286847344e-04	1.082174435e-11
-1.920000000e-02	1.340091124e-01	-2.273240798e-04	1.372743913e-11
-1.930000000e-02	1.340091123e-01	-2.259634250e-04	1.569755399e-11
-1.940000000e-02	1.340091122e-01	-2.246027702e-04	1.084457815e-11
-1.950000000e-02	1.340091121e-01	-2.232421154e-04	5.367004338e-11
-1.960000000e-02	1.340091119e-01	-2.218814604e-04	1.877431642e-11
-1.970000000e-02	1.340091116e-01	-2.205208054e-04	2.864470231e-11
-1.980000000e-02	1.340091113e-01	-2.191601504e-04	2.844059347e-11
-1.990000000e-02	1.340091110e-01	-2.177994952e-04	1.275926125e-11
-2.000000000e-02	1.340091107e-01	-2.164388401e-04	1.823496477e-11
-2.010000000e-02	1.340091102e-01	-2.150781848e-04	1.804522959e-11
-2.020000000e-02	1.340091098e-01	-2.137175296e-04	1.315313512e-11
-2.030000000e-02	1.340091093e-01	-2.123568742e-04	1.114625441e-11
-2.040000000e-02	1.340091088e-01	-2.109962188e-04	1.064203279e-11
-2.050000000e-02	1.340091082e-01	-2.096355634e-04	1.672100658e-10
-2.060000000e-02	1.340091076e-01	-2.082749079e-04	5.627429734e-12
-2.070000000e-02	1.340091069e-01	-2.069142524e-04	8.439568206e-12
-2.080000000e-02	1.340091062e-01	-2.055535968e-04	1.381150788e-11
-2.090000000e-02	1.340091055e-01	-2.041929412e-04	1.579138455e-11
-2.100000000e-02	1.340091047e-01	-2.028322856e-04	2.078866006e-11
-2.110000000e-02	1.340091039e-01	-2.014716299e-04	1.231870662e-11
-2.120000000e-02	1.340091030e-01	-2.001109742e-04	1.327735387e-11
-2.130000000e-02	1.340091021e-01	-1.987503185e-04	1.239179536e-11
-2.140000000e-02	1.340091012e-01	-1.973896627e-04	1.369905249e-11
-2.150000000e-02	1.340091002e-01	-1.960290069e-04	1.085171878e-11
-2.160000000e-02	1.340090992e-01	-1.946683511e-04	1.099520441e-11
-2.170000000e-02	1.340090981e-01	-1.933076953e-04	9.680624582e-12
-2.180000000e-02	1.340090970e-01	-1.919470394e-04	9.565051102e-12
-2.190000000e-02	1.340090958e-01	-1.905863835e-04	9.455154544e-12
-2.200000000e-02	1.340090946e-01	-1.892257276e-04	2.302470930e-11
-2.210000000e-02	1.340090934e-01	-1.878650717e-04	1.160781730e-11
-2.220000000e-02	1.340090921e-01	-1.865044158e-04	7.270864225e-12
-2.230000000e-02	1.340090908e-01	-1.851437599e-04	8.774417539e-12
-2.240000000e-02	1.340090895e-01	-1.837831040e-04	7.998872898e-12
-2.250000000e-02	1.340090881e-01	-1.824224480e-04	1.390835568e-11
-2.260000000e-02	1.340090866e-01	-1.810617921e-04	1.028313595e-11
-2.270000000e-02	1.340090851e-01	-1.797011362e-04	1.669669173e-11
-2.280000000e-02	1.340090836e-01	-1.783404802e-04	1.855577419e-11
-2.290000000e-02	1.340090821e-01	-1.769798243e-04	1.001455666e-11
-2.300000000e-02	1.340090804e-01	-1.756191683e-04	7.183283013e-12
-2.310000000e-02	1.340090788e-01	-1.742585124e-04	8.654820906e-12
-2.320000000e-02	1.340090771e-01	-1.728978565e-04	1.608857093e-11
-2.330000000e-02	1.340090754e-01	-1.715372006e-04	5.904249219e-12
-2.340000000e-02	1.340090736e-01	-1.701765447e-04	6.458097976e-12
-2.350000000e-02	1.340090718e-01	-1.688158888e-04	1.738742159e-11
-2.360000000e-02	1.340090699e-01	-1.674552330e-04	8.634845357e-12
-2.370000000e-02	1.340090680e-01	-1.660945771e-04	7.035697405e-12
-2.380000000e-02	1.340090661e-01	-1.647339213e-04	7.900489327e-12
-2.390000000e-02	1.340090641e-01	-1.633732655e-04	2.727414206e-11
-2.400000000e-02	1.340090621e-01	-1.620126098e-04	2.257968368e-11
-2.410000000e-02	1.340090600e-01	-1.606519540e-04	1.312834260e-11
-2.420000000e-02	1.340090579e-01	-1.592912983e-04	1.223977926e-11
-2.430000000e-02	1.340090558e-01	-1.579306426e-04	4.738462748e-11
-2.440000000e-02	1.340090536e-01	-1.565699870e-04	1.004581060e-11
-2.450000000e-02	1.340090514e-01	-1.552093314e-04	1.149245918e-11
-2.460000000e-02	1.340090491e-01	-1.538486758e-04	1.235778005e-11
-2.470000000e-02	1.340090468e-01	-1.524880203e-04	1.116325240e-11
-2.480000000e-02	1.340090445e-01	-1.511273648e-04	1.435754818e-11
-2.490000000e-02	1.340090421e-01	-1.497667094e-04	1.295886081e-11
-2.500000000e-02	1.340090396e-01	-1.484060540e-04	7.345712166e-12
-2.510000000e-02	1.340090372e-01	-1.470453986e-04	3.209710928e-11
-2.520000000e-02	1.340090347e-01	-1.456847433e-04	2.734110404e-11
-2.530000000e-02	1.340090321e-01	-1.443240881e-04	1.242027915e-10
-2.540000000e-02	1.340090295e-01	-1.429634329e-04	1.072919547e-11
-2.550000000e-02	1.340090269e-01	-1.416027778e-04	1.378307649e-11
-2.560000000e-02	1.340090242e-01	-1.402421227e-04	4.757939974e-11
-2.570000000e-02	1.340090215e-01	-1.388814677e-04	1.233049673e-11
-2.580000000e-02	1.340090187e-01	-1.375208128e-04	1.176908468e-11
-2.590000000e-02	1.340090159e-01	-1.361601579e-04	9.175129472e-12
-2.600000000e-02	1.340090130e-01	-1.347995031e-04	1.069497166e-11
-2.610000000e-02	1.340090102e-01	-1.334388484e-04	1.389845231e-11
-2.620000000e-02	1.340090072e-01	-1.320781937e-04	9.547311937e-12
-2.630000000e-02	1.340090043e-01	-1.307175391e-04	1.726744103e-11
-2.640000000e-02	1.340090012e-01	-1.293568846e-04	8.922652514e-12
-2.650000000e-02	1.340089982e-01	-1.279962301e-04	6.741960538e-12
-2.660000000e-02	1.340089951e-01	-1.266355758e-04	1.326369526e-11
-2.670000000e-02	1.340089920e-01	-1.252749215e-04	9.761225964e-12
-2.680000000e-02	1.340089888e-01	-1.239142673e-04	4.204239814e-11
-2.690000000e-02	1.340089856e-01	-1.225536132e-04	4.913234017e-11
-2.700000000e-02	1.340089823e-01	-1.211929592e-04	6.667914698e-12
-2.710000000e-02	1.340089790e-01	-1.198323053e-04	1.162798988e-11
-2.720000000e-02	1.340089757e-01	-1.184716514e-04	6.614515761e-12
-2.730000000e-02	1.340089723e-01	-1.171109977e-04	1.909158711e-11
-2.740000000e-02	1.340089689e-01	-1.157503440e-04	6.320791262e-12
-2.750000000e-02	1.340089654e-01	-1.143896905e-04	1.249894981e-11
-2.760000000e-02	1.340089619e-01	-1.130290371e-04	3.790489414e-11
-2.770000000e-02	1.340089583e-01	-1.116683837e-04	1.187233068e-11
-2.780000000e-02	1.340089547e-01	-1.103077305e-04	6.179923413e-12
-2.790000000e-02	1.340089511e-01	-1.089470774e-04	1.008091537e-11
-2.800000000e-02	1.340089474e-01	-1.075864244e-04	8.940286019e-12
-2.810000000e-02	1.340089437e-01	-1.062257714e-04	8.237901238e-12
-2.820000000e-02	1.340089400e-01	-1.048651186e-04	2.372942454e-11
-2.830000000e-02	1.340089362e-01	-1.035044660e-04	1.162409496e-11
-2.840000000e-02	1.340089323e-01	-1.021438134e-04	3.511036461e-11
-2.850000000e-02	1.340089285e-01	-1.007831610e-04	7.126181226e-12
-2.860000000e-02	1.340089245e-01	-9.942250866e-05	1.840528909e-11
-2.870000000e-02	1.340089206e-01	-9.806185647e-05	8.614815207e-12
-2.880000000e-02	1.340089166e-01	-9.670120441e-05	1.445557100e-11
-2.890000000e-02	1.340089125e-01	-9.534055247e-05	8.971857332e-12
-2.900000000e-02	1.340089084e-01	-9.397990067e-05	6.121055806e-12
-2.910000000e-02	1.340089043e-01	-9.261924899e-05	6.971642223e-12
-2.920000000e-02	1.340089001e-01	-9.125859746e-05	1.763679761e-11
-2.930000000e-02	1.340088959e-01	-8.989794605e-05	1.149821539e-11
-2.940000000e-02	1.340088917e-01	-8.853729478e-05	1.386258017e-11
-2.950000000e-02	1.340088874e-01	-8.717664366e-05	1.614587565e-11
-2.960000000e-02	1.340088831e-01	-8.581599268e-05	8.036551767e-12
-2.970000000e-02	1.340088787e-01	-8.445534184e-05	3.414181627e-11
-2.980000000e-02	1.340088743e-01	-8.309469115e-05	6.366471547e-12
-2.990000000e-02	1.340088698e-01	-8.173404061e-05	3.114315610e-11
-3.000000000e-02	1.340088653e-01	-8.037339023e-05	6.145195422e-12
