# Im(epsi1)     Re(omega/c)      Im(omega/c)      Eq(det).Opt det CON kz, R=0.5 \mum, mu_c=0.3, Re(epsi1)=3.90solve_det_conkz_vs_kz.py
0.000000000e+00	1.340108317e-01	-4.977775516e-04	6.728784857e-12
-1.000000000e-04	1.340108399e-01	-4.964172257e-04	9.084000619e-12
-2.000000000e-04	1.340108480e-01	-4.950568992e-04	8.220388178e-12
-3.000000000e-04	1.340108560e-01	-4.936965723e-04	5.754469258e-12
-4.000000000e-04	1.340108640e-01	-4.923362448e-04	1.409878855e-11
-5.000000000e-04	1.340108720e-01	-4.909759169e-04	1.365721105e-11
-6.000000000e-04	1.340108800e-01	-4.896155886e-04	1.343986112e-11
-7.000000000e-04	1.340108878e-01	-4.882552597e-04	8.025799742e-12
-8.000000000e-04	1.340108957e-01	-4.868949304e-04	9.854809355e-12
-9.000000000e-04	1.340109035e-01	-4.855346006e-04	1.497566634e-11
-1.000000000e-03	1.340109113e-01	-4.841742703e-04	8.366881362e-12
-1.100000000e-03	1.340109190e-01	-4.828139396e-04	1.651140030e-11
-1.200000000e-03	1.340109267e-01	-4.814536084e-04	1.384927746e-11
-1.300000000e-03	1.340109343e-01	-4.800932767e-04	8.907128568e-12
-1.400000000e-03	1.340109419e-01	-4.787329446e-04	4.608363009e-12
-1.500000000e-03	1.340109495e-01	-4.773726120e-04	1.538182001e-11
-1.600000000e-03	1.340109570e-01	-4.760122790e-04	1.243937616e-11
-1.700000000e-03	1.340109645e-01	-4.746519455e-04	1.277267252e-11
-1.800000000e-03	1.340109719e-01	-4.732916116e-04	1.230119097e-11
-1.900000000e-03	1.340109793e-01	-4.719312772e-04	2.468880845e-11
-2.000000000e-03	1.340109867e-01	-4.705709424e-04	2.198192219e-11
-2.100000000e-03	1.340109940e-01	-4.692106071e-04	9.356020458e-12
-2.200000000e-03	1.340110013e-01	-4.678502714e-04	1.114202242e-11
-2.300000000e-03	1.340110085e-01	-4.664899352e-04	3.254107287e-11
-2.400000000e-03	1.340110157e-01	-4.651295986e-04	1.072450706e-11
-2.500000000e-03	1.340110228e-01	-4.637692616e-04	2.397485303e-11
-2.600000000e-03	1.340110299e-01	-4.624089241e-04	9.464760410e-12
-2.700000000e-03	1.340110370e-01	-4.610485862e-04	9.379286052e-12
-2.800000000e-03	1.340110440e-01	-4.596882479e-04	1.819401360e-11
-2.900000000e-03	1.340110510e-01	-4.583279091e-04	9.551565634e-12
-3.000000000e-03	1.340110579e-01	-4.569675699e-04	1.982075203e-11
-3.100000000e-03	1.340110648e-01	-4.556072303e-04	3.840128228e-11
-3.200000000e-03	1.340110717e-01	-4.542468903e-04	7.724401776e-12
-3.300000000e-03	1.340110785e-01	-4.528865498e-04	1.137635248e-11
-3.400000000e-03	1.340110853e-01	-4.515262089e-04	5.627508195e-12
-3.500000000e-03	1.340110920e-01	-4.501658676e-04	1.500957493e-11
-3.600000000e-03	1.340110987e-01	-4.488055259e-04	1.400148566e-11
-3.700000000e-03	1.340111054e-01	-4.474451838e-04	1.091965307e-11
-3.800000000e-03	1.340111120e-01	-4.460848413e-04	7.075862579e-12
-3.900000000e-03	1.340111185e-01	-4.447244984e-04	1.188661463e-11
-4.000000000e-03	1.340111251e-01	-4.433641550e-04	1.445747407e-11
-4.100000000e-03	1.340111316e-01	-4.420038113e-04	1.066030896e-11
-4.200000000e-03	1.340111380e-01	-4.406434671e-04	9.255057526e-12
-4.300000000e-03	1.340111444e-01	-4.392831226e-04	1.013345896e-11
-4.400000000e-03	1.340111508e-01	-4.379227776e-04	1.313586013e-11
-4.500000000e-03	1.340111571e-01	-4.365624323e-04	8.513315130e-12
-4.600000000e-03	1.340111634e-01	-4.352020866e-04	1.138682376e-11
-4.700000000e-03	1.340111696e-01	-4.338417404e-04	2.023890615e-11
-4.800000000e-03	1.340111758e-01	-4.324813939e-04	2.148564318e-11
-4.900000000e-03	1.340111820e-01	-4.311210470e-04	1.392116216e-11
-5.000000000e-03	1.340111881e-01	-4.297606998e-04	1.543509754e-11
-5.100000000e-03	1.340111941e-01	-4.284003521e-04	1.148501710e-11
-5.200000000e-03	1.340112002e-01	-4.270400041e-04	2.255537787e-11
-5.300000000e-03	1.340112062e-01	-4.256796556e-04	2.040642486e-11
-5.400000000e-03	1.340112121e-01	-4.243193068e-04	2.255606980e-11
-5.500000000e-03	1.340112180e-01	-4.229589577e-04	9.860692079e-12
-5.600000000e-03	1.340112239e-01	-4.215986081e-04	1.590763222e-11
-5.700000000e-03	1.340112297e-01	-4.202382582e-04	9.778875018e-12
-5.800000000e-03	1.340112355e-01	-4.188779079e-04	7.569512310e-12
-5.900000000e-03	1.340112412e-01	-4.175175572e-04	7.421722407e-11
-6.000000000e-03	1.340112469e-01	-4.161572062e-04	2.442886070e-11
-6.100000000e-03	1.340112526e-01	-4.147968549e-04	1.152958841e-11
-6.200000000e-03	1.340112582e-01	-4.134365031e-04	8.645485635e-12
-6.300000000e-03	1.340112638e-01	-4.120761510e-04	6.334377296e-12
-6.400000000e-03	1.340112693e-01	-4.107157986e-04	2.368595288e-11
-6.500000000e-03	1.340112748e-01	-4.093554458e-04	6.182144002e-12
-6.600000000e-03	1.340112803e-01	-4.079950926e-04	2.048602463e-11
-6.700000000e-03	1.340112857e-01	-4.066347391e-04	2.342207423e-11
-6.800000000e-03	1.340112911e-01	-4.052743853e-04	3.104387358e-11
-6.900000000e-03	1.340112964e-01	-4.039140311e-04	7.120504369e-12
-7.000000000e-03	1.340113017e-01	-4.025536765e-04	9.219785375e-12
-7.100000000e-03	1.340113069e-01	-4.011933216e-04	3.264645617e-11
-7.200000000e-03	1.340113121e-01	-3.998329664e-04	1.137659053e-11
-7.300000000e-03	1.340113173e-01	-3.984726109e-04	9.759482124e-12
-7.400000000e-03	1.340113224e-01	-3.971122550e-04	9.388812298e-12
-7.500000000e-03	1.340113275e-01	-3.957518988e-04	2.390250500e-11
-7.600000000e-03	1.340113326e-01	-3.943915422e-04	4.087951367e-12
-7.700000000e-03	1.340113376e-01	-3.930311853e-04	9.129785645e-12
-7.800000000e-03	1.340113425e-01	-3.916708281e-04	7.947993409e-12
-7.900000000e-03	1.340113474e-01	-3.903104706e-04	1.622860247e-11
-8.000000000e-03	1.340113523e-01	-3.889501127e-04	9.762192258e-12
-8.100000000e-03	1.340113571e-01	-3.875897545e-04	2.008973676e-11
-8.200000000e-03	1.340113619e-01	-3.862293961e-04	1.702441518e-11
-8.300000000e-03	1.340113667e-01	-3.848690372e-04	1.578769389e-11
-8.400000000e-03	1.340113714e-01	-3.835086781e-04	1.650913046e-11
-8.500000000e-03	1.340113761e-01	-3.821483187e-04	1.096820369e-11
-8.600000000e-03	1.340113807e-01	-3.807879589e-04	1.515116210e-11
-8.700000000e-03	1.340113853e-01	-3.794275989e-04	1.919023164e-11
-8.800000000e-03	1.340113898e-01	-3.780672385e-04	1.071543706e-11
-8.900000000e-03	1.340113943e-01	-3.767068779e-04	1.132643990e-11
-9.000000000e-03	1.340113988e-01	-3.753465169e-04	1.587105055e-11
-9.100000000e-03	1.340114032e-01	-3.739861556e-04	1.390970555e-11
-9.200000000e-03	1.340114076e-01	-3.726257941e-04	1.427231389e-11
-9.300000000e-03	1.340114119e-01	-3.712654322e-04	2.186079280e-11
-9.400000000e-03	1.340114162e-01	-3.699050701e-04	1.119052415e-11
-9.500000000e-03	1.340114205e-01	-3.685447076e-04	9.398385153e-12
-9.600000000e-03	1.340114247e-01	-3.671843449e-04	1.328254845e-11
-9.700000000e-03	1.340114289e-01	-3.658239819e-04	2.303882538e-11
-9.800000000e-03	1.340114330e-01	-3.644636186e-04	7.387591990e-12
-9.900000000e-03	1.340114371e-01	-3.631032550e-04	3.196029912e-11
-1.000000000e-02	1.340114411e-01	-3.617428911e-04	1.960834492e-11
-1.010000000e-02	1.340114451e-01	-3.603825270e-04	7.804200434e-12
-1.020000000e-02	1.340114491e-01	-3.590221626e-04	1.000678453e-11
-1.030000000e-02	1.340114530e-01	-3.576617979e-04	6.100157682e-12
-1.040000000e-02	1.340114569e-01	-3.563014329e-04	1.416525292e-11
-1.050000000e-02	1.340114608e-01	-3.549410677e-04	1.383635659e-11
-1.060000000e-02	1.340114646e-01	-3.535807022e-04	2.990190067e-11
-1.070000000e-02	1.340114683e-01	-3.522203364e-04	2.243887592e-11
-1.080000000e-02	1.340114720e-01	-3.508599704e-04	6.826824571e-11
-1.090000000e-02	1.340114757e-01	-3.494996041e-04	1.040411962e-11
-1.100000000e-02	1.340114794e-01	-3.481392375e-04	1.389856142e-11
-1.110000000e-02	1.340114829e-01	-3.467788707e-04	1.570443654e-11
-1.120000000e-02	1.340114865e-01	-3.454185037e-04	4.164217728e-11
-1.130000000e-02	1.340114900e-01	-3.440581364e-04	3.948553603e-11
-1.140000000e-02	1.340114935e-01	-3.426977688e-04	4.132181017e-11
-1.150000000e-02	1.340114969e-01	-3.413374010e-04	9.267893480e-12
-1.160000000e-02	1.340115003e-01	-3.399770329e-04	7.754292872e-12
-1.170000000e-02	1.340115037e-01	-3.386166646e-04	4.265298202e-12
-1.180000000e-02	1.340115070e-01	-3.372562960e-04	1.817111072e-11
-1.190000000e-02	1.340115102e-01	-3.358959272e-04	8.912702034e-12
-1.200000000e-02	1.340115134e-01	-3.345355582e-04	8.252669650e-12
-1.210000000e-02	1.340115166e-01	-3.331751889e-04	7.660814344e-12
-1.220000000e-02	1.340115198e-01	-3.318148194e-04	4.414855359e-11
-1.230000000e-02	1.340115229e-01	-3.304544497e-04	1.160492622e-11
-1.240000000e-02	1.340115259e-01	-3.290940797e-04	2.564333016e-11
-1.250000000e-02	1.340115289e-01	-3.277337095e-04	1.226534634e-11
-1.260000000e-02	1.340115319e-01	-3.263733391e-04	1.875997097e-11
-1.270000000e-02	1.340115348e-01	-3.250129684e-04	2.301782680e-11
-1.280000000e-02	1.340115377e-01	-3.236525976e-04	1.765454693e-11
-1.290000000e-02	1.340115406e-01	-3.222922265e-04	1.234113749e-11
-1.300000000e-02	1.340115434e-01	-3.209318552e-04	1.522383192e-11
-1.310000000e-02	1.340115462e-01	-3.195714837e-04	1.375427277e-11
-1.320000000e-02	1.340115489e-01	-3.182111119e-04	1.608585585e-11
-1.330000000e-02	1.340115516e-01	-3.168507400e-04	4.527075125e-11
-1.340000000e-02	1.340115542e-01	-3.154903678e-04	1.188056970e-11
-1.350000000e-02	1.340115568e-01	-3.141299954e-04	1.922131335e-11
-1.360000000e-02	1.340115594e-01	-3.127696229e-04	8.358903517e-12
-1.370000000e-02	1.340115619e-01	-3.114092501e-04	1.928126355e-11
-1.380000000e-02	1.340115644e-01	-3.100488771e-04	1.596707924e-11
-1.390000000e-02	1.340115668e-01	-3.086885039e-04	9.582716256e-12
-1.400000000e-02	1.340115692e-01	-3.073281306e-04	1.805392488e-11
-1.410000000e-02	1.340115716e-01	-3.059677570e-04	6.290170201e-11
-1.420000000e-02	1.340115739e-01	-3.046073832e-04	3.787160704e-11
-1.430000000e-02	1.340115762e-01	-3.032470093e-04	8.399774715e-11
-1.440000000e-02	1.340115784e-01	-3.018866351e-04	1.697146381e-10
-1.450000000e-02	1.340115806e-01	-3.005262608e-04	2.324866565e-11
-1.460000000e-02	1.340115827e-01	-2.991658863e-04	2.566053741e-11
-1.470000000e-02	1.340115848e-01	-2.978055116e-04	1.377859932e-11
-1.480000000e-02	1.340115869e-01	-2.964451367e-04	1.409515403e-11
-1.490000000e-02	1.340115889e-01	-2.950847617e-04	2.015914223e-11
-1.500000000e-02	1.340115909e-01	-2.937243865e-04	1.610918157e-11
-1.510000000e-02	1.340115929e-01	-2.923640111e-04	1.301577099e-11
-1.520000000e-02	1.340115948e-01	-2.910036355e-04	8.599828257e-12
-1.530000000e-02	1.340115966e-01	-2.896432597e-04	4.010683733e-11
-1.540000000e-02	1.340115984e-01	-2.882828838e-04	2.474169415e-11
-1.550000000e-02	1.340116002e-01	-2.869225077e-04	1.028652622e-11
-1.560000000e-02	1.340116020e-01	-2.855621315e-04	7.882918818e-11
-1.570000000e-02	1.340116036e-01	-2.842017551e-04	3.026683986e-11
-1.580000000e-02	1.340116053e-01	-2.828413785e-04	1.320773994e-11
-1.590000000e-02	1.340116069e-01	-2.814810018e-04	1.874669153e-11
-1.600000000e-02	1.340116085e-01	-2.801206249e-04	1.147833288e-11
-1.610000000e-02	1.340116100e-01	-2.787602479e-04	8.614454063e-12
-1.620000000e-02	1.340116115e-01	-2.773998707e-04	1.565206783e-11
-1.630000000e-02	1.340116129e-01	-2.760394934e-04	1.030234485e-11
-1.640000000e-02	1.340116143e-01	-2.746791159e-04	1.251005800e-11
-1.650000000e-02	1.340116157e-01	-2.733187383e-04	6.620674290e-12
-1.660000000e-02	1.340116170e-01	-2.719583605e-04	8.450772110e-12
-1.670000000e-02	1.340116183e-01	-2.705979826e-04	1.348734528e-11
-1.680000000e-02	1.340116196e-01	-2.692376046e-04	5.327014674e-11
-1.690000000e-02	1.340116208e-01	-2.678772264e-04	1.100969503e-11
-1.700000000e-02	1.340116219e-01	-2.665168481e-04	1.032426226e-11
-1.710000000e-02	1.340116230e-01	-2.651564696e-04	1.249625138e-11
-1.720000000e-02	1.340116241e-01	-2.637960911e-04	2.054134279e-11
-1.730000000e-02	1.340116251e-01	-2.624357123e-04	9.086870434e-12
-1.740000000e-02	1.340116261e-01	-2.610753335e-04	1.129885978e-11
-1.750000000e-02	1.340116271e-01	-2.597149546e-04	7.660134378e-11
-1.760000000e-02	1.340116280e-01	-2.583545755e-04	4.679798185e-12
-1.770000000e-02	1.340116289e-01	-2.569941963e-04	5.510002828e-12
-1.780000000e-02	1.340116297e-01	-2.556338170e-04	1.184594900e-11
-1.790000000e-02	1.340116305e-01	-2.542734375e-04	1.653851305e-11
-1.800000000e-02	1.340116312e-01	-2.529130580e-04	9.698690654e-12
-1.810000000e-02	1.340116319e-01	-2.515526783e-04	5.394847969e-12
-1.820000000e-02	1.340116326e-01	-2.501922986e-04	1.248966715e-11
-1.830000000e-02	1.340116332e-01	-2.488319187e-04	1.794172267e-11
-1.840000000e-02	1.340116338e-01	-2.474715387e-04	1.997377752e-11
-1.850000000e-02	1.340116343e-01	-2.461111586e-04	1.072742225e-11
-1.860000000e-02	1.340116348e-01	-2.447507784e-04	1.324789238e-11
-1.870000000e-02	1.340116353e-01	-2.433903981e-04	1.120142442e-11
-1.880000000e-02	1.340116357e-01	-2.420300178e-04	7.584864720e-12
-1.890000000e-02	1.340116361e-01	-2.406696373e-04	9.782518237e-12
-1.900000000e-02	1.340116364e-01	-2.393092567e-04	2.422370067e-11
-1.910000000e-02	1.340116367e-01	-2.379488761e-04	1.332705038e-11
-1.920000000e-02	1.340116369e-01	-2.365884953e-04	2.827189343e-11
-1.930000000e-02	1.340116371e-01	-2.352281145e-04	4.054005749e-11
-1.940000000e-02	1.340116373e-01	-2.338677336e-04	1.121093585e-11
-1.950000000e-02	1.340116374e-01	-2.325073526e-04	1.574261785e-11
-1.960000000e-02	1.340116375e-01	-2.311469715e-04	1.216046043e-11
-1.970000000e-02	1.340116375e-01	-2.297865903e-04	1.518452148e-11
-1.980000000e-02	1.340116375e-01	-2.284262091e-04	2.095479842e-11
-1.990000000e-02	1.340116375e-01	-2.270658278e-04	7.080171259e-12
-2.000000000e-02	1.340116374e-01	-2.257054464e-04	1.478942020e-11
-2.010000000e-02	1.340116373e-01	-2.243450649e-04	1.675464083e-11
-2.020000000e-02	1.340116371e-01	-2.229846834e-04	5.179317392e-11
-2.030000000e-02	1.340116369e-01	-2.216243018e-04	1.329785849e-11
-2.040000000e-02	1.340116367e-01	-2.202639202e-04	2.438491220e-11
-2.050000000e-02	1.340116364e-01	-2.189035385e-04	1.090189975e-11
-2.060000000e-02	1.340116361e-01	-2.175431567e-04	1.558621049e-11
-2.070000000e-02	1.340116357e-01	-2.161827749e-04	1.344118728e-10
-2.080000000e-02	1.340116353e-01	-2.148223930e-04	1.184545781e-11
-2.090000000e-02	1.340116348e-01	-2.134620111e-04	6.569232386e-12
-2.100000000e-02	1.340116343e-01	-2.121016291e-04	1.702014017e-11
-2.110000000e-02	1.340116338e-01	-2.107412470e-04	1.601730518e-11
-2.120000000e-02	1.340116332e-01	-2.093808650e-04	1.112556369e-11
-2.130000000e-02	1.340116326e-01	-2.080204828e-04	1.205519114e-11
-2.140000000e-02	1.340116319e-01	-2.066601007e-04	9.577160998e-12
-2.150000000e-02	1.340116312e-01	-2.052997184e-04	7.577874573e-12
-2.160000000e-02	1.340116305e-01	-2.039393362e-04	1.082982453e-11
-2.170000000e-02	1.340116297e-01	-2.025789539e-04	1.804342723e-11
-2.180000000e-02	1.340116289e-01	-2.012185716e-04	2.261223643e-11
-2.190000000e-02	1.340116280e-01	-1.998581892e-04	1.552891407e-11
-2.200000000e-02	1.340116271e-01	-1.984978069e-04	2.329792255e-11
-2.210000000e-02	1.340116262e-01	-1.971374244e-04	1.805256625e-11
-2.220000000e-02	1.340116252e-01	-1.957770420e-04	1.105158607e-11
-2.230000000e-02	1.340116241e-01	-1.944166595e-04	6.087918009e-12
-2.240000000e-02	1.340116231e-01	-1.930562771e-04	1.040691169e-11
-2.250000000e-02	1.340116219e-01	-1.916958946e-04	4.039346830e-11
-2.260000000e-02	1.340116208e-01	-1.903355120e-04	4.786980414e-11
-2.270000000e-02	1.340116196e-01	-1.889751295e-04	1.413416395e-11
-2.280000000e-02	1.340116183e-01	-1.876147470e-04	1.453161535e-11
-2.290000000e-02	1.340116171e-01	-1.862543644e-04	1.038592712e-11
-2.300000000e-02	1.340116157e-01	-1.848939818e-04	1.409028283e-11
-2.310000000e-02	1.340116144e-01	-1.835335992e-04	2.665087793e-11
-2.320000000e-02	1.340116130e-01	-1.821732167e-04	6.307556693e-12
-2.330000000e-02	1.340116115e-01	-1.808128341e-04	2.427855981e-11
-2.340000000e-02	1.340116100e-01	-1.794524515e-04	4.773360850e-11
-2.350000000e-02	1.340116085e-01	-1.780920689e-04	2.553056043e-11
-2.360000000e-02	1.340116069e-01	-1.767316863e-04	1.412440739e-11
-2.370000000e-02	1.340116053e-01	-1.753713037e-04	6.675775309e-12
-2.380000000e-02	1.340116037e-01	-1.740109212e-04	1.417321893e-11
-2.390000000e-02	1.340116020e-01	-1.726505386e-04	8.858973108e-11
-2.400000000e-02	1.340116003e-01	-1.712901561e-04	4.143378670e-11
-2.410000000e-02	1.340115985e-01	-1.699297735e-04	7.933293720e-12
-2.420000000e-02	1.340115967e-01	-1.685693910e-04	3.251828652e-11
-2.430000000e-02	1.340115948e-01	-1.672090085e-04	1.103387748e-11
-2.440000000e-02	1.340115929e-01	-1.658486260e-04	6.410072166e-12
-2.450000000e-02	1.340115910e-01	-1.644882435e-04	1.508257586e-11
-2.460000000e-02	1.340115890e-01	-1.631278611e-04	3.491575809e-11
-2.470000000e-02	1.340115870e-01	-1.617674787e-04	1.383570140e-11
-2.480000000e-02	1.340115849e-01	-1.604070963e-04	1.186395518e-11
-2.490000000e-02	1.340115828e-01	-1.590467140e-04	1.373233925e-11
-2.500000000e-02	1.340115806e-01	-1.576863316e-04	8.071082564e-12
-2.510000000e-02	1.340115785e-01	-1.563259494e-04	2.028190385e-11
-2.520000000e-02	1.340115762e-01	-1.549655671e-04	2.857973800e-11
-2.530000000e-02	1.340115739e-01	-1.536051849e-04	1.624559375e-11
-2.540000000e-02	1.340115716e-01	-1.522448027e-04	1.132474802e-11
-2.550000000e-02	1.340115693e-01	-1.508844206e-04	2.872609203e-11
-2.560000000e-02	1.340115669e-01	-1.495240385e-04	3.454845500e-11
-2.570000000e-02	1.340115644e-01	-1.481636565e-04	7.968932035e-12
-2.580000000e-02	1.340115620e-01	-1.468032745e-04	2.001880612e-11
-2.590000000e-02	1.340115595e-01	-1.454428926e-04	3.084876715e-11
-2.600000000e-02	1.340115569e-01	-1.440825107e-04	2.241038211e-11
-2.610000000e-02	1.340115543e-01	-1.427221288e-04	1.755024600e-11
-2.620000000e-02	1.340115516e-01	-1.413617471e-04	1.053416538e-11
-2.630000000e-02	1.340115490e-01	-1.400013654e-04	6.663684186e-12
-2.640000000e-02	1.340115462e-01	-1.386409837e-04	1.470097231e-11
-2.650000000e-02	1.340115435e-01	-1.372806021e-04	1.117258232e-11
-2.660000000e-02	1.340115407e-01	-1.359202206e-04	1.303434637e-11
-2.670000000e-02	1.340115378e-01	-1.345598392e-04	2.619405756e-11
-2.680000000e-02	1.340115349e-01	-1.331994578e-04	1.202982878e-11
-2.690000000e-02	1.340115320e-01	-1.318390765e-04	1.954708656e-11
-2.700000000e-02	1.340115290e-01	-1.304786952e-04	7.180545473e-12
-2.710000000e-02	1.340115260e-01	-1.291183141e-04	6.358589164e-12
-2.720000000e-02	1.340115229e-01	-1.277579330e-04	8.598825321e-12
-2.730000000e-02	1.340115198e-01	-1.263975520e-04	7.716764254e-11
-2.740000000e-02	1.340115167e-01	-1.250371711e-04	1.092287019e-11
-2.750000000e-02	1.340115135e-01	-1.236767902e-04	1.236987280e-11
-2.760000000e-02	1.340115103e-01	-1.223164095e-04	5.084496826e-11
-2.770000000e-02	1.340115070e-01	-1.209560288e-04	8.959073659e-12
-2.780000000e-02	1.340115037e-01	-1.195956483e-04	1.455286394e-11
-2.790000000e-02	1.340115004e-01	-1.182352678e-04	1.041235444e-11
-2.800000000e-02	1.340114970e-01	-1.168748874e-04	8.818092386e-12
-2.810000000e-02	1.340114936e-01	-1.155145071e-04	1.596706385e-11
-2.820000000e-02	1.340114901e-01	-1.141541269e-04	1.714485846e-11
-2.830000000e-02	1.340114866e-01	-1.127937469e-04	1.563833691e-11
-2.840000000e-02	1.340114830e-01	-1.114333669e-04	9.958692103e-12
-2.850000000e-02	1.340114794e-01	-1.100729870e-04	3.063101560e-11
-2.860000000e-02	1.340114758e-01	-1.087126072e-04	9.458554059e-12
-2.870000000e-02	1.340114721e-01	-1.073522276e-04	3.581203591e-11
-2.880000000e-02	1.340114684e-01	-1.059918480e-04	3.216912336e-11
-2.890000000e-02	1.340114647e-01	-1.046314686e-04	1.365817256e-11
-2.900000000e-02	1.340114609e-01	-1.032710893e-04	1.076440701e-11
-2.910000000e-02	1.340114570e-01	-1.019107101e-04	7.353855592e-12
-2.920000000e-02	1.340114531e-01	-1.005503310e-04	2.584934474e-11
-2.930000000e-02	1.340114492e-01	-9.918995205e-05	1.456388006e-11
-2.940000000e-02	1.340114452e-01	-9.782957322e-05	1.092431997e-11
-2.950000000e-02	1.340114412e-01	-9.646919450e-05	2.098461423e-11
-2.960000000e-02	1.340114372e-01	-9.510881593e-05	1.773642371e-11
-2.970000000e-02	1.340114331e-01	-9.374843748e-05	2.097057786e-11
-2.980000000e-02	1.340114290e-01	-9.238805916e-05	1.378800094e-11
-2.990000000e-02	1.340114248e-01	-9.102768098e-05	1.091834920e-11
-3.000000000e-02	1.340114206e-01	-8.966730294e-05	1.170026792e-11
