# Im(epsi1)     Re(omega/c)      Im(omega/c)      Eq(det).Opt det CON kz, R=0.5 \mum, mu_c=0.3, Re(epsi1)=3.90solve_det_conkz_vs_kz.py
0.000000000e+00	1.340064754e-01	-4.832944463e-04	7.213466449e-12
-1.000000000e-04	1.340064831e-01	-4.819336880e-04	8.843416355e-12
-2.000000000e-04	1.340064908e-01	-4.805729292e-04	1.017038375e-11
-3.000000000e-04	1.340064984e-01	-4.792121700e-04	9.331626706e-12
-4.000000000e-04	1.340065060e-01	-4.778514104e-04	3.076588900e-11
-5.000000000e-04	1.340065135e-01	-4.764906503e-04	9.332103079e-12
-6.000000000e-04	1.340065210e-01	-4.751298897e-04	1.249961438e-11
-7.000000000e-04	1.340065285e-01	-4.737691287e-04	7.218309578e-12
-8.000000000e-04	1.340065359e-01	-4.724083672e-04	4.055521326e-11
-9.000000000e-04	1.340065432e-01	-4.710476053e-04	5.811780069e-12
-1.000000000e-03	1.340065505e-01	-4.696868429e-04	7.583790719e-12
-1.100000000e-03	1.340065578e-01	-4.683260801e-04	6.660826521e-12
-1.200000000e-03	1.340065651e-01	-4.669653169e-04	2.581158248e-11
-1.300000000e-03	1.340065723e-01	-4.656045532e-04	2.505309276e-11
-1.400000000e-03	1.340065794e-01	-4.642437891e-04	1.817973605e-11
-1.500000000e-03	1.340065866e-01	-4.628830245e-04	1.012540730e-11
-1.600000000e-03	1.340065936e-01	-4.615222595e-04	1.032071183e-11
-1.700000000e-03	1.340066007e-01	-4.601614941e-04	2.218067335e-11
-1.800000000e-03	1.340066077e-01	-4.588007282e-04	2.429076914e-11
-1.900000000e-03	1.340066146e-01	-4.574399619e-04	1.138583641e-11
-2.000000000e-03	1.340066215e-01	-4.560791952e-04	6.100316925e-12
-2.100000000e-03	1.340066284e-01	-4.547184281e-04	1.518640838e-11
-2.200000000e-03	1.340066352e-01	-4.533576605e-04	1.528024084e-11
-2.300000000e-03	1.340066420e-01	-4.519968926e-04	9.596132209e-11
-2.400000000e-03	1.340066488e-01	-4.506361242e-04	2.256380739e-11
-2.500000000e-03	1.340066555e-01	-4.492753554e-04	8.829728757e-12
-2.600000000e-03	1.340066621e-01	-4.479145862e-04	3.119385414e-11
-2.700000000e-03	1.340066687e-01	-4.465538166e-04	4.294981379e-10
-2.800000000e-03	1.340066753e-01	-4.451930465e-04	8.805362829e-12
-2.900000000e-03	1.340066819e-01	-4.438322761e-04	1.258997556e-11
-3.000000000e-03	1.340066884e-01	-4.424715052e-04	9.895763537e-11
-3.100000000e-03	1.340066948e-01	-4.411107340e-04	9.828677615e-12
-3.200000000e-03	1.340067012e-01	-4.397499624e-04	8.853614400e-12
-3.300000000e-03	1.340067076e-01	-4.383891903e-04	2.376775832e-11
-3.400000000e-03	1.340067139e-01	-4.370284179e-04	1.141913974e-11
-3.500000000e-03	1.340067202e-01	-4.356676450e-04	3.095290429e-11
-3.600000000e-03	1.340067265e-01	-4.343068718e-04	9.186938643e-12
-3.700000000e-03	1.340067327e-01	-4.329460982e-04	8.797587348e-12
-3.800000000e-03	1.340067389e-01	-4.315853242e-04	2.180436862e-11
-3.900000000e-03	1.340067450e-01	-4.302245498e-04	3.125662271e-11
-4.000000000e-03	1.340067511e-01	-4.288637751e-04	2.172001007e-11
-4.100000000e-03	1.340067571e-01	-4.275029999e-04	2.339910589e-11
-4.200000000e-03	1.340067631e-01	-4.261422244e-04	1.143864464e-11
-4.300000000e-03	1.340067691e-01	-4.247814485e-04	1.100188041e-11
-4.400000000e-03	1.340067750e-01	-4.234206722e-04	2.285077811e-11
-4.500000000e-03	1.340067809e-01	-4.220598955e-04	1.557687249e-11
-4.600000000e-03	1.340067867e-01	-4.206991185e-04	1.377229331e-11
-4.700000000e-03	1.340067925e-01	-4.193383411e-04	2.385961666e-11
-4.800000000e-03	1.340067983e-01	-4.179775634e-04	2.563078995e-11
-4.900000000e-03	1.340068040e-01	-4.166167853e-04	2.193485500e-11
-5.000000000e-03	1.340068097e-01	-4.152560068e-04	2.080364741e-11
-5.100000000e-03	1.340068153e-01	-4.138952279e-04	3.394603884e-11
-5.200000000e-03	1.340068209e-01	-4.125344487e-04	8.511984372e-12
-5.300000000e-03	1.340068264e-01	-4.111736692e-04	1.720118443e-11
-5.400000000e-03	1.340068319e-01	-4.098128893e-04	1.889981776e-11
-5.500000000e-03	1.340068374e-01	-4.084521090e-04	1.053809284e-11
-5.600000000e-03	1.340068428e-01	-4.070913284e-04	8.473470702e-12
-5.700000000e-03	1.340068482e-01	-4.057305474e-04	1.218553814e-11
-5.800000000e-03	1.340068535e-01	-4.043697661e-04	3.381593731e-11
-5.900000000e-03	1.340068588e-01	-4.030089844e-04	5.214312169e-12
-6.000000000e-03	1.340068641e-01	-4.016482025e-04	3.224440011e-11
-6.100000000e-03	1.340068693e-01	-4.002874201e-04	7.706940154e-12
-6.200000000e-03	1.340068745e-01	-3.989266375e-04	3.776221865e-11
-6.300000000e-03	1.340068796e-01	-3.975658544e-04	5.285165490e-11
-6.400000000e-03	1.340068847e-01	-3.962050711e-04	1.525801186e-11
-6.500000000e-03	1.340068898e-01	-3.948442874e-04	1.243561485e-11
-6.600000000e-03	1.340068948e-01	-3.934835034e-04	1.245782242e-11
-6.700000000e-03	1.340068997e-01	-3.921227191e-04	1.426307580e-11
-6.800000000e-03	1.340069047e-01	-3.907619345e-04	1.568025721e-11
-6.900000000e-03	1.340069096e-01	-3.894011495e-04	1.294950829e-11
-7.000000000e-03	1.340069144e-01	-3.880403642e-04	8.339749822e-12
-7.100000000e-03	1.340069192e-01	-3.866795786e-04	2.500282616e-11
-7.200000000e-03	1.340069240e-01	-3.853187927e-04	3.444241092e-11
-7.300000000e-03	1.340069287e-01	-3.839580064e-04	1.349611422e-11
-7.400000000e-03	1.340069334e-01	-3.825972199e-04	2.100857752e-11
-7.500000000e-03	1.340069380e-01	-3.812364330e-04	6.193115079e-12
-7.600000000e-03	1.340069426e-01	-3.798756458e-04	1.022187685e-11
-7.700000000e-03	1.340069472e-01	-3.785148584e-04	9.314330051e-12
-7.800000000e-03	1.340069517e-01	-3.771540706e-04	1.807134077e-11
-7.900000000e-03	1.340069561e-01	-3.757932825e-04	1.617328003e-11
-8.000000000e-03	1.340069606e-01	-3.744324941e-04	8.422789993e-12
-8.100000000e-03	1.340069650e-01	-3.730717054e-04	1.420847723e-11
-8.200000000e-03	1.340069693e-01	-3.717109164e-04	1.719219333e-11
-8.300000000e-03	1.340069736e-01	-3.703501272e-04	8.282532118e-12
-8.400000000e-03	1.340069779e-01	-3.689893376e-04	6.787644830e-12
-8.500000000e-03	1.340069821e-01	-3.676285478e-04	1.302819483e-11
-8.600000000e-03	1.340069863e-01	-3.662677576e-04	6.221551474e-11
-8.700000000e-03	1.340069904e-01	-3.649069672e-04	2.663370701e-11
-8.800000000e-03	1.340069945e-01	-3.635461765e-04	2.936415721e-11
-8.900000000e-03	1.340069986e-01	-3.621853855e-04	2.756710298e-11
-9.000000000e-03	1.340070026e-01	-3.608245942e-04	3.908905130e-12
-9.100000000e-03	1.340070066e-01	-3.594638027e-04	2.167953290e-11
-9.200000000e-03	1.340070105e-01	-3.581030109e-04	1.232282522e-11
-9.300000000e-03	1.340070144e-01	-3.567422188e-04	1.667595159e-11
-9.400000000e-03	1.340070183e-01	-3.553814264e-04	1.055971931e-11
-9.500000000e-03	1.340070221e-01	-3.540206338e-04	1.460872202e-11
-9.600000000e-03	1.340070259e-01	-3.526598409e-04	1.329681093e-11
-9.700000000e-03	1.340070296e-01	-3.512990477e-04	6.959285348e-12
-9.800000000e-03	1.340070333e-01	-3.499382543e-04	1.364861551e-11
-9.900000000e-03	1.340070369e-01	-3.485774606e-04	1.230814485e-11
-1.000000000e-02	1.340070405e-01	-3.472166667e-04	2.761398651e-11
-1.010000000e-02	1.340070441e-01	-3.458558725e-04	1.822280764e-11
-1.020000000e-02	1.340070476e-01	-3.444950781e-04	1.412335743e-11
-1.030000000e-02	1.340070511e-01	-3.431342834e-04	7.796879625e-12
-1.040000000e-02	1.340070545e-01	-3.417734884e-04	7.578033527e-12
-1.050000000e-02	1.340070579e-01	-3.404126932e-04	5.982786322e-12
-1.060000000e-02	1.340070613e-01	-3.390518978e-04	4.596876178e-12
-1.070000000e-02	1.340070646e-01	-3.376911021e-04	4.338773879e-11
-1.080000000e-02	1.340070679e-01	-3.363303062e-04	1.217120939e-11
-1.090000000e-02	1.340070711e-01	-3.349695100e-04	1.667375310e-11
-1.100000000e-02	1.340070743e-01	-3.336087136e-04	2.427380004e-11
-1.110000000e-02	1.340070774e-01	-3.322479170e-04	1.591957760e-11
-1.120000000e-02	1.340070806e-01	-3.308871201e-04	5.930720423e-11
-1.130000000e-02	1.340070836e-01	-3.295263230e-04	1.175492741e-11
-1.140000000e-02	1.340070866e-01	-3.281655256e-04	1.463359779e-11
-1.150000000e-02	1.340070896e-01	-3.268047281e-04	1.598782170e-11
-1.160000000e-02	1.340070926e-01	-3.254439303e-04	1.824306311e-11
-1.170000000e-02	1.340070955e-01	-3.240831323e-04	1.023918264e-11
-1.180000000e-02	1.340070983e-01	-3.227223341e-04	1.815524649e-11
-1.190000000e-02	1.340071012e-01	-3.213615356e-04	4.923697831e-12
-1.200000000e-02	1.340071039e-01	-3.200007370e-04	1.716034525e-11
-1.210000000e-02	1.340071067e-01	-3.186399381e-04	8.437988560e-11
-1.220000000e-02	1.340071094e-01	-3.172791390e-04	1.261473018e-11
-1.230000000e-02	1.340071120e-01	-3.159183397e-04	4.085331998e-11
-1.240000000e-02	1.340071146e-01	-3.145575402e-04	1.238650143e-11
-1.250000000e-02	1.340071172e-01	-3.131967405e-04	1.825751824e-11
-1.260000000e-02	1.340071197e-01	-3.118359406e-04	1.525378712e-11
-1.270000000e-02	1.340071222e-01	-3.104751405e-04	1.285191728e-11
-1.280000000e-02	1.340071247e-01	-3.091143402e-04	8.282247618e-12
-1.290000000e-02	1.340071271e-01	-3.077535396e-04	8.062316320e-12
-1.300000000e-02	1.340071294e-01	-3.063927389e-04	1.352198733e-11
-1.310000000e-02	1.340071318e-01	-3.050319380e-04	1.012515539e-11
-1.320000000e-02	1.340071340e-01	-3.036711369e-04	1.880417403e-11
-1.330000000e-02	1.340071363e-01	-3.023103357e-04	3.016441028e-11
-1.340000000e-02	1.340071385e-01	-3.009495342e-04	8.190535715e-12
-1.350000000e-02	1.340071406e-01	-2.995887325e-04	1.087299919e-11
-1.360000000e-02	1.340071428e-01	-2.982279307e-04	5.926929963e-11
-1.370000000e-02	1.340071448e-01	-2.968671287e-04	6.286133600e-12
-1.380000000e-02	1.340071469e-01	-2.955063265e-04	4.495184977e-11
-1.390000000e-02	1.340071489e-01	-2.941455241e-04	1.837913387e-11
-1.400000000e-02	1.340071508e-01	-2.927847216e-04	1.515301995e-11
-1.410000000e-02	1.340071527e-01	-2.914239189e-04	1.340161503e-11
-1.420000000e-02	1.340071546e-01	-2.900631160e-04	1.289229898e-11
-1.430000000e-02	1.340071564e-01	-2.887023129e-04	9.520000277e-12
-1.440000000e-02	1.340071582e-01	-2.873415097e-04	2.674095518e-11
-1.450000000e-02	1.340071600e-01	-2.859807063e-04	1.385505044e-11
-1.460000000e-02	1.340071617e-01	-2.846199028e-04	1.284506627e-11
-1.470000000e-02	1.340071633e-01	-2.832590991e-04	2.390135232e-11
-1.480000000e-02	1.340071649e-01	-2.818982952e-04	1.717304445e-11
-1.490000000e-02	1.340071665e-01	-2.805374912e-04	1.840942051e-11
-1.500000000e-02	1.340071681e-01	-2.791766870e-04	1.223312080e-11
-1.510000000e-02	1.340071695e-01	-2.778158827e-04	1.081282236e-11
-1.520000000e-02	1.340071710e-01	-2.764550782e-04	1.725156417e-11
-1.530000000e-02	1.340071724e-01	-2.750942736e-04	1.006387240e-11
-1.540000000e-02	1.340071738e-01	-2.737334688e-04	8.770314375e-12
-1.550000000e-02	1.340071751e-01	-2.723726639e-04	5.587571710e-11
-1.560000000e-02	1.340071764e-01	-2.710118588e-04	8.400771115e-12
-1.570000000e-02	1.340071777e-01	-2.696510536e-04	7.392717719e-12
-1.580000000e-02	1.340071789e-01	-2.682902483e-04	9.921870357e-12
-1.590000000e-02	1.340071800e-01	-2.669294428e-04	2.130465214e-11
-1.600000000e-02	1.340071812e-01	-2.655686372e-04	7.274652126e-12
-1.610000000e-02	1.340071822e-01	-2.642078315e-04	1.730656155e-11
-1.620000000e-02	1.340071833e-01	-2.628470257e-04	1.500523074e-11
-1.630000000e-02	1.340071843e-01	-2.614862197e-04	9.680096567e-12
-1.640000000e-02	1.340071852e-01	-2.601254136e-04	8.267016150e-12
-1.650000000e-02	1.340071862e-01	-2.587646073e-04	1.110694352e-11
-1.660000000e-02	1.340071870e-01	-2.574038010e-04	1.967637550e-11
-1.670000000e-02	1.340071879e-01	-2.560429945e-04	1.558747111e-11
-1.680000000e-02	1.340071887e-01	-2.546821879e-04	8.419164681e-12
-1.690000000e-02	1.340071894e-01	-2.533213812e-04	8.649209307e-12
-1.700000000e-02	1.340071901e-01	-2.519605744e-04	1.502007321e-11
-1.710000000e-02	1.340071908e-01	-2.505997675e-04	2.397734855e-11
-1.720000000e-02	1.340071914e-01	-2.492389605e-04	9.572729906e-12
-1.730000000e-02	1.340071920e-01	-2.478781534e-04	2.290184864e-11
-1.740000000e-02	1.340071926e-01	-2.465173461e-04	1.380882279e-11
-1.750000000e-02	1.340071931e-01	-2.451565388e-04	1.143210439e-11
-1.760000000e-02	1.340071935e-01	-2.437957314e-04	3.939642257e-11
-1.770000000e-02	1.340071939e-01	-2.424349238e-04	9.000931262e-12
-1.780000000e-02	1.340071943e-01	-2.410741162e-04	1.228030523e-11
-1.790000000e-02	1.340071947e-01	-2.397133085e-04	2.126451123e-11
-1.800000000e-02	1.340071950e-01	-2.383525007e-04	8.451785787e-12
-1.810000000e-02	1.340071952e-01	-2.369916928e-04	9.195780102e-12
-1.820000000e-02	1.340071954e-01	-2.356308848e-04	7.454552158e-12
-1.830000000e-02	1.340071956e-01	-2.342700767e-04	2.378621076e-11
-1.840000000e-02	1.340071957e-01	-2.329092685e-04	7.034682490e-12
-1.850000000e-02	1.340071958e-01	-2.315484603e-04	1.016903173e-11
-1.860000000e-02	1.340071959e-01	-2.301876520e-04	2.654523184e-11
-1.870000000e-02	1.340071959e-01	-2.288268436e-04	1.246000655e-11
-1.880000000e-02	1.340071959e-01	-2.274660351e-04	7.300523407e-12
-1.890000000e-02	1.340071958e-01	-2.261052266e-04	1.885594114e-11
-1.900000000e-02	1.340071957e-01	-2.247444180e-04	7.893692862e-12
-1.910000000e-02	1.340071955e-01	-2.233836093e-04	1.675384558e-11
-1.920000000e-02	1.340071953e-01	-2.220228006e-04	1.029576883e-11
-1.930000000e-02	1.340071951e-01	-2.206619918e-04	2.742484068e-11
-1.940000000e-02	1.340071948e-01	-2.193011829e-04	1.055491723e-11
-1.950000000e-02	1.340071945e-01	-2.179403740e-04	1.141381978e-11
-1.960000000e-02	1.340071941e-01	-2.165795650e-04	1.449633884e-11
-1.970000000e-02	1.340071937e-01	-2.152187560e-04	1.821904934e-11
-1.980000000e-02	1.340071933e-01	-2.138579469e-04	2.813827349e-11
-1.990000000e-02	1.340071928e-01	-2.124971376e-04	4.017202361e-10
-2.000000000e-02	1.340071922e-01	-2.111363285e-04	2.797348686e-11
-2.010000000e-02	1.340071917e-01	-2.097755193e-04	8.621585179e-12
-2.020000000e-02	1.340071911e-01	-2.084147100e-04	2.555384635e-11
-2.030000000e-02	1.340071904e-01	-2.070539007e-04	1.402227830e-11
-2.040000000e-02	1.340071897e-01	-2.056930913e-04	7.599125999e-12
-2.050000000e-02	1.340071890e-01	-2.043322819e-04	8.371446642e-12
-2.060000000e-02	1.340071882e-01	-2.029714724e-04	1.794659132e-11
-2.070000000e-02	1.340071874e-01	-2.016106630e-04	1.027397424e-11
-2.080000000e-02	1.340071865e-01	-2.002498535e-04	2.785680904e-11
-2.090000000e-02	1.340071856e-01	-1.988890439e-04	1.272576749e-11
-2.100000000e-02	1.340071847e-01	-1.975282344e-04	2.346675349e-11
-2.110000000e-02	1.340071837e-01	-1.961674248e-04	7.420787124e-12
-2.120000000e-02	1.340071827e-01	-1.948066151e-04	3.369417926e-11
-2.130000000e-02	1.340071816e-01	-1.934458055e-04	7.414008302e-11
-2.140000000e-02	1.340071805e-01	-1.920849958e-04	3.026915146e-11
-2.150000000e-02	1.340071793e-01	-1.907241861e-04	2.756847063e-11
-2.160000000e-02	1.340071781e-01	-1.893633764e-04	1.601328976e-11
-2.170000000e-02	1.340071769e-01	-1.880025667e-04	6.141683612e-11
-2.180000000e-02	1.340071756e-01	-1.866417570e-04	1.611769494e-11
-2.190000000e-02	1.340071743e-01	-1.852809473e-04	1.002338889e-11
-2.200000000e-02	1.340071730e-01	-1.839201376e-04	2.854822310e-11
-2.210000000e-02	1.340071716e-01	-1.825593278e-04	7.421926261e-12
-2.220000000e-02	1.340071701e-01	-1.811985181e-04	1.076105394e-11
-2.230000000e-02	1.340071687e-01	-1.798377083e-04	6.080495204e-12
-2.240000000e-02	1.340071671e-01	-1.784768986e-04	2.149545373e-11
-2.250000000e-02	1.340071656e-01	-1.771160888e-04	9.780642794e-12
-2.260000000e-02	1.340071640e-01	-1.757552791e-04	1.863572854e-11
-2.270000000e-02	1.340071623e-01	-1.743944693e-04	1.024814866e-11
-2.280000000e-02	1.340071606e-01	-1.730336596e-04	1.494925010e-11
-2.290000000e-02	1.340071589e-01	-1.716728499e-04	1.938319505e-11
-2.300000000e-02	1.340071571e-01	-1.703120402e-04	8.255599230e-12
-2.310000000e-02	1.340071553e-01	-1.689512305e-04	1.997847695e-11
-2.320000000e-02	1.340071535e-01	-1.675904209e-04	2.250917167e-11
-2.330000000e-02	1.340071516e-01	-1.662296112e-04	2.700996517e-11
-2.340000000e-02	1.340071497e-01	-1.648688016e-04	3.219787918e-11
-2.350000000e-02	1.340071477e-01	-1.635079920e-04	3.733009022e-11
-2.360000000e-02	1.340071457e-01	-1.621471824e-04	9.289385077e-12
-2.370000000e-02	1.340071436e-01	-1.607863729e-04	2.861287494e-11
-2.380000000e-02	1.340071415e-01	-1.594255634e-04	1.009394268e-11
-2.390000000e-02	1.340071394e-01	-1.580647539e-04	1.674007059e-11
-2.400000000e-02	1.340071372e-01	-1.567039444e-04	2.971420254e-11
-2.410000000e-02	1.340071350e-01	-1.553431350e-04	1.041699095e-11
-2.420000000e-02	1.340071327e-01	-1.539823256e-04	2.866103596e-11
-2.430000000e-02	1.340071304e-01	-1.526215163e-04	9.668176557e-12
-2.440000000e-02	1.340071280e-01	-1.512607070e-04	1.263345227e-11
-2.450000000e-02	1.340071256e-01	-1.498998978e-04	1.039328658e-11
-2.460000000e-02	1.340071232e-01	-1.485390886e-04	2.354046566e-11
-2.470000000e-02	1.340071207e-01	-1.471782794e-04	1.685856368e-11
-2.480000000e-02	1.340071182e-01	-1.458174703e-04	7.935157284e-12
-2.490000000e-02	1.340071157e-01	-1.444566613e-04	8.343220227e-12
-2.500000000e-02	1.340071131e-01	-1.430958523e-04	2.179646397e-11
-2.510000000e-02	1.340071104e-01	-1.417350433e-04	9.143043323e-12
-2.520000000e-02	1.340071078e-01	-1.403742345e-04	1.116994230e-11
-2.530000000e-02	1.340071050e-01	-1.390134256e-04	1.598282839e-11
-2.540000000e-02	1.340071023e-01	-1.376526169e-04	1.186214740e-11
-2.550000000e-02	1.340070995e-01	-1.362918082e-04	1.198515834e-11
-2.560000000e-02	1.340070966e-01	-1.349309996e-04	9.569471229e-12
-2.570000000e-02	1.340070937e-01	-1.335701911e-04	3.825528638e-11
-2.580000000e-02	1.340070908e-01	-1.322093826e-04	1.966256470e-11
-2.590000000e-02	1.340070878e-01	-1.308485742e-04	4.257838881e-11
-2.600000000e-02	1.340070848e-01	-1.294877658e-04	2.707934365e-11
-2.610000000e-02	1.340070818e-01	-1.281269576e-04	3.183665487e-11
-2.620000000e-02	1.340070787e-01	-1.267661494e-04	6.507499724e-12
-2.630000000e-02	1.340070756e-01	-1.254053413e-04	7.805010267e-12
-2.640000000e-02	1.340070724e-01	-1.240445334e-04	7.590659695e-12
-2.650000000e-02	1.340070692e-01	-1.226837254e-04	7.592125958e-12
-2.660000000e-02	1.340070659e-01	-1.213229176e-04	8.428417510e-12
-2.670000000e-02	1.340070626e-01	-1.199621099e-04	1.880414022e-11
-2.680000000e-02	1.340070593e-01	-1.186013022e-04	8.176431014e-12
-2.690000000e-02	1.340070559e-01	-1.172404947e-04	1.803809149e-11
-2.700000000e-02	1.340070525e-01	-1.158796872e-04	1.420975950e-11
-2.710000000e-02	1.340070490e-01	-1.145188799e-04	1.453683562e-11
-2.720000000e-02	1.340070455e-01	-1.131580726e-04	1.478433142e-11
-2.730000000e-02	1.340070420e-01	-1.117972655e-04	7.265602604e-12
-2.740000000e-02	1.340070384e-01	-1.104364585e-04	1.669465203e-11
-2.750000000e-02	1.340070347e-01	-1.090756515e-04	2.381608857e-11
-2.760000000e-02	1.340070311e-01	-1.077148447e-04	2.525163603e-11
-2.770000000e-02	1.340070274e-01	-1.063540380e-04	2.362367617e-11
-2.780000000e-02	1.340070236e-01	-1.049932314e-04	1.878777531e-11
-2.790000000e-02	1.340070198e-01	-1.036324249e-04	6.473426206e-12
-2.800000000e-02	1.340070160e-01	-1.022716185e-04	1.431467107e-11
-2.810000000e-02	1.340070121e-01	-1.009108123e-04	3.649493022e-11
-2.820000000e-02	1.340070082e-01	-9.955000616e-05	8.391927698e-12
-2.830000000e-02	1.340070042e-01	-9.818920016e-05	2.201478866e-11
-2.840000000e-02	1.340070002e-01	-9.682839430e-05	2.123768105e-11
-2.850000000e-02	1.340069962e-01	-9.546758854e-05	2.064403508e-11
-2.860000000e-02	1.340069921e-01	-9.410678293e-05	1.046047339e-11
-2.870000000e-02	1.340069880e-01	-9.274597744e-05	2.004802060e-11
-2.880000000e-02	1.340069838e-01	-9.138517210e-05	1.166043061e-11
-2.890000000e-02	1.340069796e-01	-9.002436689e-05	1.270418226e-11
-2.900000000e-02	1.340069753e-01	-8.866356182e-05	1.632719898e-11
-2.910000000e-02	1.340069710e-01	-8.730275688e-05	8.017200138e-12
-2.920000000e-02	1.340069667e-01	-8.594195209e-05	7.835994344e-12
-2.930000000e-02	1.340069623e-01	-8.458114744e-05	8.969170422e-11
-2.940000000e-02	1.340069579e-01	-8.322034295e-05	1.031072359e-11
-2.950000000e-02	1.340069535e-01	-8.185953860e-05	8.735135535e-12
-2.960000000e-02	1.340069490e-01	-8.049873440e-05	4.171004699e-11
-2.970000000e-02	1.340069444e-01	-7.913793037e-05	7.577828704e-12
-2.980000000e-02	1.340069398e-01	-7.777712648e-05	1.489360549e-11
-2.990000000e-02	1.340069352e-01	-7.641632275e-05	1.114418125e-11
-3.000000000e-02	1.340069306e-01	-7.505551917e-05	1.029151653e-11
