# Im(epsi1)     Re(omega/c)      Im(omega/c)      Eq(det).Opt det CON kz, R=0.5 \mum, mu_c=0.3, Re(epsi1)=3.90solve_det_conkz_vs_kz.py
0.000000000e+00	1.340121706e-01	-5.113272722e-04	1.357459504e-11
-1.000000000e-04	1.340121792e-01	-5.099673548e-04	8.287221509e-11
-2.000000000e-04	1.340121877e-01	-5.086074369e-04	4.655395050e-11
-3.000000000e-04	1.340121961e-01	-5.072475184e-04	1.047660003e-11
-4.000000000e-04	1.340122046e-01	-5.058875995e-04	6.070029248e-11
-5.000000000e-04	1.340122129e-01	-5.045276801e-04	9.657054356e-12
-6.000000000e-04	1.340122213e-01	-5.031677601e-04	1.073980867e-11
-7.000000000e-04	1.340122296e-01	-5.018078397e-04	1.595570305e-11
-8.000000000e-04	1.340122378e-01	-5.004479188e-04	2.594760899e-11
-9.000000000e-04	1.340122461e-01	-4.990879974e-04	1.527122085e-11
-1.000000000e-03	1.340122542e-01	-4.977280755e-04	1.421184794e-11
-1.100000000e-03	1.340122624e-01	-4.963681531e-04	7.433717866e-11
-1.200000000e-03	1.340122705e-01	-4.950082303e-04	1.084518660e-11
-1.300000000e-03	1.340122785e-01	-4.936483069e-04	1.003079061e-11
-1.400000000e-03	1.340122866e-01	-4.922883831e-04	3.815457244e-11
-1.500000000e-03	1.340122945e-01	-4.909284588e-04	1.956160964e-11
-1.600000000e-03	1.340123025e-01	-4.895685340e-04	1.033323611e-11
-1.700000000e-03	1.340123103e-01	-4.882086087e-04	1.752468700e-11
-1.800000000e-03	1.340123182e-01	-4.868486830e-04	9.843172478e-12
-1.900000000e-03	1.340123260e-01	-4.854887568e-04	5.859062972e-12
-2.000000000e-03	1.340123338e-01	-4.841288301e-04	8.525301015e-11
-2.100000000e-03	1.340123415e-01	-4.827689030e-04	1.887073128e-11
-2.200000000e-03	1.340123492e-01	-4.814089754e-04	1.290103972e-11
-2.300000000e-03	1.340123568e-01	-4.800490473e-04	1.149069555e-11
-2.400000000e-03	1.340123644e-01	-4.786891188e-04	1.294745172e-11
-2.500000000e-03	1.340123720e-01	-4.773291898e-04	1.655888128e-11
-2.600000000e-03	1.340123795e-01	-4.759692604e-04	6.880469415e-12
-2.700000000e-03	1.340123870e-01	-4.746093305e-04	1.665124860e-11
-2.800000000e-03	1.340123944e-01	-4.732494001e-04	2.671254438e-11
-2.900000000e-03	1.340124018e-01	-4.718894694e-04	1.071986237e-11
-3.000000000e-03	1.340124092e-01	-4.705295381e-04	1.188650140e-11
-3.100000000e-03	1.340124165e-01	-4.691696064e-04	1.277879103e-11
-3.200000000e-03	1.340124237e-01	-4.678096743e-04	1.842549937e-11
-3.300000000e-03	1.340124310e-01	-4.664497417e-04	1.201912927e-11
-3.400000000e-03	1.340124382e-01	-4.650898087e-04	2.814423390e-11
-3.500000000e-03	1.340124453e-01	-4.637298753e-04	3.420914939e-11
-3.600000000e-03	1.340124524e-01	-4.623699414e-04	2.309825627e-11
-3.700000000e-03	1.340124595e-01	-4.610100071e-04	1.804240150e-11
-3.800000000e-03	1.340124665e-01	-4.596500723e-04	9.139370275e-12
-3.900000000e-03	1.340124735e-01	-4.582901372e-04	5.330986165e-12
-4.000000000e-03	1.340124804e-01	-4.569302016e-04	1.499381623e-11
-4.100000000e-03	1.340124873e-01	-4.555702656e-04	1.056301183e-11
-4.200000000e-03	1.340124942e-01	-4.542103291e-04	1.998952856e-11
-4.300000000e-03	1.340125010e-01	-4.528503922e-04	1.202371369e-11
-4.400000000e-03	1.340125078e-01	-4.514904550e-04	1.406515336e-11
-4.500000000e-03	1.340125145e-01	-4.501305173e-04	1.683304139e-11
-4.600000000e-03	1.340125212e-01	-4.487705791e-04	1.847325237e-11
-4.700000000e-03	1.340125278e-01	-4.474106406e-04	5.156696901e-11
-4.800000000e-03	1.340125345e-01	-4.460507017e-04	2.369215161e-11
-4.900000000e-03	1.340125410e-01	-4.446907623e-04	1.111718807e-11
-5.000000000e-03	1.340125476e-01	-4.433308226e-04	1.683661235e-11
-5.100000000e-03	1.340125540e-01	-4.419708824e-04	1.023504762e-11
-5.200000000e-03	1.340125605e-01	-4.406109419e-04	7.918587870e-11
-5.300000000e-03	1.340125669e-01	-4.392510009e-04	2.202667592e-11
-5.400000000e-03	1.340125732e-01	-4.378910596e-04	6.862926655e-12
-5.500000000e-03	1.340125796e-01	-4.365311178e-04	1.069678875e-11
-5.600000000e-03	1.340125858e-01	-4.351711757e-04	2.387923368e-11
-5.700000000e-03	1.340125921e-01	-4.338112332e-04	1.130581249e-11
-5.800000000e-03	1.340125983e-01	-4.324512902e-04	8.041256793e-12
-5.900000000e-03	1.340126044e-01	-4.310913469e-04	8.785689784e-12
-6.000000000e-03	1.340126106e-01	-4.297314032e-04	2.339999680e-11
-6.100000000e-03	1.340126166e-01	-4.283714592e-04	1.506334414e-11
-6.200000000e-03	1.340126227e-01	-4.270115147e-04	6.032180868e-12
-6.300000000e-03	1.340126287e-01	-4.256515699e-04	9.348302092e-12
-6.400000000e-03	1.340126346e-01	-4.242916247e-04	2.149950297e-11
-6.500000000e-03	1.340126405e-01	-4.229316791e-04	1.041468230e-11
-6.600000000e-03	1.340126464e-01	-4.215717331e-04	1.023661712e-11
-6.700000000e-03	1.340126522e-01	-4.202117868e-04	1.663749175e-11
-6.800000000e-03	1.340126580e-01	-4.188518401e-04	1.112485408e-11
-6.900000000e-03	1.340126637e-01	-4.174918931e-04	9.972640908e-12
-7.000000000e-03	1.340126694e-01	-4.161319456e-04	1.280593684e-11
-7.100000000e-03	1.340126751e-01	-4.147719978e-04	1.028264783e-11
-7.200000000e-03	1.340126807e-01	-4.134120497e-04	1.197362814e-11
-7.300000000e-03	1.340126863e-01	-4.120521012e-04	8.372512999e-12
-7.400000000e-03	1.340126918e-01	-4.106921523e-04	9.607039055e-12
-7.500000000e-03	1.340126973e-01	-4.093322031e-04	1.578991181e-11
-7.600000000e-03	1.340127028e-01	-4.079722535e-04	1.611531499e-11
-7.700000000e-03	1.340127082e-01	-4.066123036e-04	1.008861541e-11
-7.800000000e-03	1.340127136e-01	-4.052523534e-04	6.003430360e-12
-7.900000000e-03	1.340127189e-01	-4.038924028e-04	1.153286054e-11
-8.000000000e-03	1.340127242e-01	-4.025324518e-04	6.854767343e-11
-8.100000000e-03	1.340127294e-01	-4.011725005e-04	1.261053573e-11
-8.200000000e-03	1.340127346e-01	-3.998125489e-04	6.289597797e-12
-8.300000000e-03	1.340127398e-01	-3.984525969e-04	5.970817305e-12
-8.400000000e-03	1.340127449e-01	-3.970926446e-04	1.552815743e-11
-8.500000000e-03	1.340127500e-01	-3.957326920e-04	1.374542843e-11
-8.600000000e-03	1.340127550e-01	-3.943727390e-04	1.081077641e-11
-8.700000000e-03	1.340127600e-01	-3.930127857e-04	1.157912564e-11
-8.800000000e-03	1.340127650e-01	-3.916528321e-04	2.995531160e-11
-8.900000000e-03	1.340127699e-01	-3.902928781e-04	9.223959929e-12
-9.000000000e-03	1.340127748e-01	-3.889329239e-04	1.794087460e-11
-9.100000000e-03	1.340127796e-01	-3.875729693e-04	7.882422933e-12
-9.200000000e-03	1.340127844e-01	-3.862130144e-04	2.826549254e-11
-9.300000000e-03	1.340127892e-01	-3.848530592e-04	9.746498319e-12
-9.400000000e-03	1.340127939e-01	-3.834931036e-04	2.107936713e-11
-9.500000000e-03	1.340127986e-01	-3.821331478e-04	7.894459196e-12
-9.600000000e-03	1.340128032e-01	-3.807731916e-04	1.613413692e-11
-9.700000000e-03	1.340128078e-01	-3.794132351e-04	1.140167199e-11
-9.800000000e-03	1.340128123e-01	-3.780532784e-04	6.107609881e-12
-9.900000000e-03	1.340128168e-01	-3.766933213e-04	4.517315467e-12
-1.000000000e-02	1.340128213e-01	-3.753333639e-04	5.414701589e-12
-1.010000000e-02	1.340128257e-01	-3.739734062e-04	1.491325582e-11
-1.020000000e-02	1.340128301e-01	-3.726134483e-04	6.848119174e-12
-1.030000000e-02	1.340128344e-01	-3.712534900e-04	4.157988170e-11
-1.040000000e-02	1.340128387e-01	-3.698935314e-04	1.174245699e-11
-1.050000000e-02	1.340128430e-01	-3.685335726e-04	8.853461906e-12
-1.060000000e-02	1.340128472e-01	-3.671736134e-04	6.199122354e-11
-1.070000000e-02	1.340128514e-01	-3.658136540e-04	1.522173013e-11
-1.080000000e-02	1.340128555e-01	-3.644536943e-04	1.550757366e-11
-1.090000000e-02	1.340128596e-01	-3.630937343e-04	8.753350888e-12
-1.100000000e-02	1.340128637e-01	-3.617337740e-04	1.397313605e-11
-1.110000000e-02	1.340128677e-01	-3.603738134e-04	1.250605321e-11
-1.120000000e-02	1.340128716e-01	-3.590138526e-04	4.206739487e-12
-1.130000000e-02	1.340128756e-01	-3.576538915e-04	1.554885942e-11
-1.140000000e-02	1.340128794e-01	-3.562939301e-04	1.437171407e-11
-1.150000000e-02	1.340128833e-01	-3.549339685e-04	8.311852225e-12
-1.160000000e-02	1.340128871e-01	-3.535740065e-04	6.487290021e-11
-1.170000000e-02	1.340128908e-01	-3.522140444e-04	2.357194736e-11
-1.180000000e-02	1.340128946e-01	-3.508540819e-04	3.213098188e-11
-1.190000000e-02	1.340128982e-01	-3.494941192e-04	2.260813614e-11
-1.200000000e-02	1.340129019e-01	-3.481341562e-04	3.130616211e-11
-1.210000000e-02	1.340129055e-01	-3.467741930e-04	8.719823481e-12
-1.220000000e-02	1.340129090e-01	-3.454142295e-04	1.418729151e-11
-1.230000000e-02	1.340129125e-01	-3.440542658e-04	1.354480280e-11
-1.240000000e-02	1.340129160e-01	-3.426943018e-04	1.540094676e-11
-1.250000000e-02	1.340129195e-01	-3.413343375e-04	2.181307713e-11
-1.260000000e-02	1.340129228e-01	-3.399743731e-04	1.020034531e-11
-1.270000000e-02	1.340129262e-01	-3.386144083e-04	8.604035756e-12
-1.280000000e-02	1.340129295e-01	-3.372544434e-04	1.017614237e-11
-1.290000000e-02	1.340129328e-01	-3.358944781e-04	1.012586645e-11
-1.300000000e-02	1.340129360e-01	-3.345345127e-04	1.693991976e-11
-1.310000000e-02	1.340129392e-01	-3.331745470e-04	1.425321024e-11
-1.320000000e-02	1.340129423e-01	-3.318145811e-04	1.406822168e-11
-1.330000000e-02	1.340129454e-01	-3.304546149e-04	1.073558166e-11
-1.340000000e-02	1.340129485e-01	-3.290946485e-04	8.143720259e-12
-1.350000000e-02	1.340129515e-01	-3.277346819e-04	7.641340026e-12
-1.360000000e-02	1.340129545e-01	-3.263747150e-04	1.275447989e-11
-1.370000000e-02	1.340129574e-01	-3.250147480e-04	2.873299398e-11
-1.380000000e-02	1.340129603e-01	-3.236547807e-04	6.262600593e-12
-1.390000000e-02	1.340129632e-01	-3.222948132e-04	8.028974739e-12
-1.400000000e-02	1.340129660e-01	-3.209348454e-04	2.046520380e-11
-1.410000000e-02	1.340129687e-01	-3.195748775e-04	6.859678792e-12
-1.420000000e-02	1.340129715e-01	-3.182149093e-04	1.999923868e-11
-1.430000000e-02	1.340129742e-01	-3.168549410e-04	9.710459459e-12
-1.440000000e-02	1.340129768e-01	-3.154949724e-04	5.231300540e-12
-1.450000000e-02	1.340129794e-01	-3.141350036e-04	1.135480794e-11
-1.460000000e-02	1.340129820e-01	-3.127750346e-04	1.899716679e-11
-1.470000000e-02	1.340129845e-01	-3.114150654e-04	8.905296949e-12
-1.480000000e-02	1.340129870e-01	-3.100550960e-04	9.856183793e-12
-1.490000000e-02	1.340129894e-01	-3.086951264e-04	1.620923483e-11
-1.500000000e-02	1.340129918e-01	-3.073351566e-04	2.729639186e-11
-1.510000000e-02	1.340129942e-01	-3.059751866e-04	8.264443573e-12
-1.520000000e-02	1.340129965e-01	-3.046152164e-04	6.094662965e-12
-1.530000000e-02	1.340129988e-01	-3.032552460e-04	1.774492148e-11
-1.540000000e-02	1.340130010e-01	-3.018952755e-04	2.628319494e-11
-1.550000000e-02	1.340130032e-01	-3.005353047e-04	1.569449020e-11
-1.560000000e-02	1.340130053e-01	-2.991753338e-04	2.701946110e-11
-1.570000000e-02	1.340130074e-01	-2.978153626e-04	6.723304240e-12
-1.580000000e-02	1.340130095e-01	-2.964553913e-04	1.925508923e-11
-1.590000000e-02	1.340130115e-01	-2.950954199e-04	1.414474061e-11
-1.600000000e-02	1.340130135e-01	-2.937354482e-04	9.601814195e-12
-1.610000000e-02	1.340130155e-01	-2.923754764e-04	1.491686391e-11
-1.620000000e-02	1.340130174e-01	-2.910155044e-04	1.497719728e-11
-1.630000000e-02	1.340130192e-01	-2.896555322e-04	2.125848377e-11
-1.640000000e-02	1.340130211e-01	-2.882955599e-04	2.103019164e-11
-1.650000000e-02	1.340130228e-01	-2.869355873e-04	1.662256999e-11
-1.660000000e-02	1.340130246e-01	-2.855756147e-04	1.056423320e-11
-1.670000000e-02	1.340130263e-01	-2.842156418e-04	7.953202863e-11
-1.680000000e-02	1.340130279e-01	-2.828556688e-04	1.135911210e-11
-1.690000000e-02	1.340130295e-01	-2.814956957e-04	2.004895546e-11
-1.700000000e-02	1.340130311e-01	-2.801357224e-04	1.153512240e-11
-1.710000000e-02	1.340130326e-01	-2.787757489e-04	2.186669504e-11
-1.720000000e-02	1.340130341e-01	-2.774157753e-04	2.355017227e-11
-1.730000000e-02	1.340130356e-01	-2.760558015e-04	1.501729238e-11
-1.740000000e-02	1.340130370e-01	-2.746958276e-04	4.044110059e-11
-1.750000000e-02	1.340130384e-01	-2.733358536e-04	1.287914569e-11
-1.760000000e-02	1.340130397e-01	-2.719758794e-04	8.516151271e-12
-1.770000000e-02	1.340130410e-01	-2.706159050e-04	1.176138763e-11
-1.780000000e-02	1.340130422e-01	-2.692559306e-04	1.641596561e-11
-1.790000000e-02	1.340130434e-01	-2.678959560e-04	8.887694385e-12
-1.800000000e-02	1.340130446e-01	-2.665359812e-04	1.955152885e-11
-1.810000000e-02	1.340130457e-01	-2.651760063e-04	1.713122793e-11
-1.820000000e-02	1.340130468e-01	-2.638160313e-04	7.524380655e-12
-1.830000000e-02	1.340130478e-01	-2.624560562e-04	1.848821433e-11
-1.840000000e-02	1.340130488e-01	-2.610960809e-04	1.752550499e-11
-1.850000000e-02	1.340130498e-01	-2.597361055e-04	1.092715570e-11
-1.860000000e-02	1.340130507e-01	-2.583761300e-04	1.470233757e-11
-1.870000000e-02	1.340130515e-01	-2.570161544e-04	7.557650440e-12
-1.880000000e-02	1.340130524e-01	-2.556561786e-04	2.039232079e-11
-1.890000000e-02	1.340130532e-01	-2.542962027e-04	5.138049660e-11
-1.900000000e-02	1.340130539e-01	-2.529362267e-04	6.173305957e-12
-1.910000000e-02	1.340130546e-01	-2.515762506e-04	1.618765317e-11
-1.920000000e-02	1.340130553e-01	-2.502162744e-04	3.336594384e-11
-1.930000000e-02	1.340130559e-01	-2.488562981e-04	5.571392440e-11
-1.940000000e-02	1.340130565e-01	-2.474963217e-04	2.579460808e-11
-1.950000000e-02	1.340130570e-01	-2.461363452e-04	1.572431378e-11
-1.960000000e-02	1.340130575e-01	-2.447763686e-04	1.972614110e-11
-1.970000000e-02	1.340130580e-01	-2.434163918e-04	7.894810509e-12
-1.980000000e-02	1.340130584e-01	-2.420564150e-04	3.356386288e-11
-1.990000000e-02	1.340130588e-01	-2.406964381e-04	7.235373184e-12
-2.000000000e-02	1.340130591e-01	-2.393364611e-04	1.728393733e-11
-2.010000000e-02	1.340130594e-01	-2.379764840e-04	1.062285927e-11
-2.020000000e-02	1.340130597e-01	-2.366165068e-04	1.613899461e-11
-2.030000000e-02	1.340130599e-01	-2.352565295e-04	1.329959803e-11
-2.040000000e-02	1.340130600e-01	-2.338965522e-04	7.792401387e-12
-2.050000000e-02	1.340130602e-01	-2.325365747e-04	1.502887213e-11
-2.060000000e-02	1.340130603e-01	-2.311765972e-04	1.529551359e-11
-2.070000000e-02	1.340130603e-01	-2.298166196e-04	7.323804506e-12
-2.080000000e-02	1.340130603e-01	-2.284566419e-04	2.311535897e-11
-2.090000000e-02	1.340130603e-01	-2.270966642e-04	2.203303053e-10
-2.100000000e-02	1.340130602e-01	-2.257366863e-04	1.670251327e-11
-2.110000000e-02	1.340130601e-01	-2.243767084e-04	1.798286898e-11
-2.120000000e-02	1.340130599e-01	-2.230167305e-04	7.694914816e-12
-2.130000000e-02	1.340130597e-01	-2.216567524e-04	1.644090382e-11
-2.140000000e-02	1.340130595e-01	-2.202967744e-04	1.194050864e-11
-2.150000000e-02	1.340130592e-01	-2.189367962e-04	1.733571288e-11
-2.160000000e-02	1.340130588e-01	-2.175768180e-04	1.129063661e-11
-2.170000000e-02	1.340130585e-01	-2.162168397e-04	2.318940967e-11
-2.180000000e-02	1.340130581e-01	-2.148568614e-04	1.008002727e-11
-2.190000000e-02	1.340130576e-01	-2.134968830e-04	1.932693820e-11
-2.200000000e-02	1.340130571e-01	-2.121369046e-04	1.215884230e-11
-2.210000000e-02	1.340130566e-01	-2.107769261e-04	2.678514052e-11
-2.220000000e-02	1.340130560e-01	-2.094169475e-04	1.273384203e-11
-2.230000000e-02	1.340130554e-01	-2.080569690e-04	1.488331014e-11
-2.240000000e-02	1.340130548e-01	-2.066969903e-04	1.263363975e-11
-2.250000000e-02	1.340130541e-01	-2.053370117e-04	1.085319253e-11
-2.260000000e-02	1.340130533e-01	-2.039770330e-04	2.380645701e-11
-2.270000000e-02	1.340130525e-01	-2.026170543e-04	7.751642266e-12
-2.280000000e-02	1.340130517e-01	-2.012570755e-04	1.408888914e-11
-2.290000000e-02	1.340130509e-01	-1.998970967e-04	9.893571804e-12
-2.300000000e-02	1.340130499e-01	-1.985371178e-04	1.387180983e-11
-2.310000000e-02	1.340130490e-01	-1.971771390e-04	8.737692124e-12
-2.320000000e-02	1.340130480e-01	-1.958171601e-04	3.364874673e-11
-2.330000000e-02	1.340130470e-01	-1.944571812e-04	1.797592677e-11
-2.340000000e-02	1.340130459e-01	-1.930972022e-04	7.866032224e-12
-2.350000000e-02	1.340130448e-01	-1.917372233e-04	2.234974131e-11
-2.360000000e-02	1.340130437e-01	-1.903772443e-04	1.236253079e-11
-2.370000000e-02	1.340130425e-01	-1.890172653e-04	1.463558757e-11
-2.380000000e-02	1.340130412e-01	-1.876572863e-04	6.218243749e-12
-2.390000000e-02	1.340130400e-01	-1.862973073e-04	1.073302433e-11
-2.400000000e-02	1.340130386e-01	-1.849373283e-04	1.556066868e-11
-2.410000000e-02	1.340130373e-01	-1.835773492e-04	4.462579764e-11
-2.420000000e-02	1.340130359e-01	-1.822173702e-04	1.775345443e-11
-2.430000000e-02	1.340130344e-01	-1.808573911e-04	1.372220167e-11
-2.440000000e-02	1.340130330e-01	-1.794974121e-04	1.470421001e-11
-2.450000000e-02	1.340130314e-01	-1.781374331e-04	1.050695513e-11
-2.460000000e-02	1.340130299e-01	-1.767774540e-04	9.856440401e-12
-2.470000000e-02	1.340130283e-01	-1.754174750e-04	9.190521014e-12
-2.480000000e-02	1.340130266e-01	-1.740574959e-04	1.011535946e-11
-2.490000000e-02	1.340130249e-01	-1.726975169e-04	1.000604246e-11
-2.500000000e-02	1.340130232e-01	-1.713375379e-04	1.253776563e-11
-2.510000000e-02	1.340130214e-01	-1.699775589e-04	1.288291739e-11
-2.520000000e-02	1.340130196e-01	-1.686175799e-04	2.801714100e-11
-2.530000000e-02	1.340130178e-01	-1.672576010e-04	1.179415759e-11
-2.540000000e-02	1.340130159e-01	-1.658976220e-04	7.589426614e-12
-2.550000000e-02	1.340130139e-01	-1.645376431e-04	9.859324782e-12
-2.560000000e-02	1.340130119e-01	-1.631776642e-04	1.296553613e-11
-2.570000000e-02	1.340130099e-01	-1.618176853e-04	1.463682289e-11
-2.580000000e-02	1.340130079e-01	-1.604577065e-04	8.989008472e-12
-2.590000000e-02	1.340130058e-01	-1.590977277e-04	6.150591297e-12
-2.600000000e-02	1.340130036e-01	-1.577377489e-04	1.485485283e-11
-2.610000000e-02	1.340130014e-01	-1.563777701e-04	6.940670823e-12
-2.620000000e-02	1.340129992e-01	-1.550177914e-04	1.043377482e-11
-2.630000000e-02	1.340129969e-01	-1.536578127e-04	4.822279719e-11
-2.640000000e-02	1.340129946e-01	-1.522978341e-04	1.068095580e-11
-2.650000000e-02	1.340129923e-01	-1.509378555e-04	8.646119119e-12
-2.660000000e-02	1.340129899e-01	-1.495778770e-04	8.362684799e-12
-2.670000000e-02	1.340129875e-01	-1.482178985e-04	1.109850759e-11
-2.680000000e-02	1.340129850e-01	-1.468579200e-04	5.327609959e-12
-2.690000000e-02	1.340129825e-01	-1.454979416e-04	1.558246314e-11
-2.700000000e-02	1.340129799e-01	-1.441379632e-04	7.630957490e-12
-2.710000000e-02	1.340129773e-01	-1.427779849e-04	1.012851812e-11
-2.720000000e-02	1.340129747e-01	-1.414180067e-04	2.044880300e-11
-2.730000000e-02	1.340129720e-01	-1.400580285e-04	8.907464902e-12
-2.740000000e-02	1.340129693e-01	-1.386980504e-04	1.137066647e-11
-2.750000000e-02	1.340129665e-01	-1.373380723e-04	7.953439915e-12
-2.760000000e-02	1.340129637e-01	-1.359780944e-04	1.689129870e-11
-2.770000000e-02	1.340129609e-01	-1.346181164e-04	9.947446865e-12
-2.780000000e-02	1.340129580e-01	-1.332581386e-04	1.506580207e-11
-2.790000000e-02	1.340129551e-01	-1.318981608e-04	1.259910433e-11
-2.800000000e-02	1.340129521e-01	-1.305381831e-04	1.051054934e-11
-2.810000000e-02	1.340129491e-01	-1.291782054e-04	6.023773878e-12
-2.820000000e-02	1.340129460e-01	-1.278182279e-04	2.842744060e-11
-2.830000000e-02	1.340129429e-01	-1.264582504e-04	1.817104022e-11
-2.840000000e-02	1.340129398e-01	-1.250982730e-04	2.199302064e-11
-2.850000000e-02	1.340129366e-01	-1.237382957e-04	9.401012949e-12
-2.860000000e-02	1.340129334e-01	-1.223783185e-04	2.033940801e-11
-2.870000000e-02	1.340129302e-01	-1.210183413e-04	1.143549087e-11
-2.880000000e-02	1.340129269e-01	-1.196583643e-04	3.847230585e-11
-2.890000000e-02	1.340129235e-01	-1.182983873e-04	6.541745740e-12
-2.900000000e-02	1.340129201e-01	-1.169384105e-04	8.615429526e-12
-2.910000000e-02	1.340129167e-01	-1.155784337e-04	2.912990440e-11
-2.920000000e-02	1.340129133e-01	-1.142184571e-04	1.116437260e-11
-2.930000000e-02	1.340129097e-01	-1.128584805e-04	1.057474594e-11
-2.940000000e-02	1.340129062e-01	-1.114985040e-04	5.655431792e-12
-2.950000000e-02	1.340129026e-01	-1.101385277e-04	2.191170887e-11
-2.960000000e-02	1.340128990e-01	-1.087785514e-04	7.768245009e-11
-2.970000000e-02	1.340128953e-01	-1.074185753e-04	1.601066319e-11
-2.980000000e-02	1.340128916e-01	-1.060585993e-04	9.404988042e-12
-2.990000000e-02	1.340128878e-01	-1.046986233e-04	1.669890569e-11
-3.000000000e-02	1.340128841e-01	-1.033386475e-04	2.059465836e-11
