# Im(epsi1)     Re(omega/c)      Im(omega/c)      Eq(det).Opt det CON kz, R=0.5 \mum, mu_c=0.3, Re(epsi1)=3.90solve_det_conkz_vs_kz.py
0.000000000e+00	1.340095531e-01	-5.258818316e-04	1.061644993e-11
-1.000000000e-04	1.340095621e-01	-5.245223183e-04	6.302703627e-12
-2.000000000e-04	1.340095710e-01	-5.231628045e-04	1.183277157e-11
-3.000000000e-04	1.340095799e-01	-5.218032902e-04	1.554219229e-11
-4.000000000e-04	1.340095888e-01	-5.204437753e-04	1.090240183e-11
-5.000000000e-04	1.340095976e-01	-5.190842599e-04	1.026016830e-11
-6.000000000e-04	1.340096064e-01	-5.177247440e-04	1.604915656e-11
-7.000000000e-04	1.340096151e-01	-5.163652275e-04	5.958958552e-11
-8.000000000e-04	1.340096238e-01	-5.150057106e-04	2.182542000e-11
-9.000000000e-04	1.340096325e-01	-5.136461931e-04	8.914395234e-12
-1.000000000e-03	1.340096411e-01	-5.122866751e-04	3.595735986e-10
-1.100000000e-03	1.340096497e-01	-5.109271566e-04	1.967224011e-11
-1.200000000e-03	1.340096582e-01	-5.095676376e-04	1.060804164e-11
-1.300000000e-03	1.340096667e-01	-5.082081181e-04	1.056641597e-11
-1.400000000e-03	1.340096751e-01	-5.068485981e-04	1.345014115e-11
-1.500000000e-03	1.340096836e-01	-5.054890776e-04	1.004106512e-11
-1.600000000e-03	1.340096919e-01	-5.041295566e-04	1.306579879e-11
-1.700000000e-03	1.340097003e-01	-5.027700351e-04	4.473711297e-12
-1.800000000e-03	1.340097085e-01	-5.014105131e-04	1.878212586e-11
-1.900000000e-03	1.340097168e-01	-5.000509907e-04	1.391809055e-11
-2.000000000e-03	1.340097250e-01	-4.986914677e-04	8.215435570e-12
-2.100000000e-03	1.340097332e-01	-4.973319442e-04	1.565792553e-11
-2.200000000e-03	1.340097413e-01	-4.959724203e-04	1.188790006e-11
-2.300000000e-03	1.340097494e-01	-4.946128958e-04	1.974822189e-11
-2.400000000e-03	1.340097574e-01	-4.932533709e-04	1.149703605e-11
-2.500000000e-03	1.340097654e-01	-4.918938455e-04	6.668877922e-11
-2.600000000e-03	1.340097734e-01	-4.905343196e-04	1.886037054e-11
-2.700000000e-03	1.340097813e-01	-4.891747933e-04	8.475997818e-12
-2.800000000e-03	1.340097891e-01	-4.878152664e-04	8.847719054e-12
-2.900000000e-03	1.340097970e-01	-4.864557391e-04	4.011338697e-11
-3.000000000e-03	1.340098048e-01	-4.850962114e-04	1.226678112e-11
-3.100000000e-03	1.340098125e-01	-4.837366831e-04	1.074797707e-11
-3.200000000e-03	1.340098202e-01	-4.823771544e-04	8.712510393e-12
-3.300000000e-03	1.340098279e-01	-4.810176253e-04	1.334023572e-11
-3.400000000e-03	1.340098355e-01	-4.796580956e-04	5.611575008e-11
-3.500000000e-03	1.340098431e-01	-4.782985656e-04	7.741113604e-12
-3.600000000e-03	1.340098507e-01	-4.769390350e-04	1.506504806e-11
-3.700000000e-03	1.340098582e-01	-4.755795040e-04	1.212820325e-11
-3.800000000e-03	1.340098656e-01	-4.742199726e-04	6.428074360e-12
-3.900000000e-03	1.340098730e-01	-4.728604407e-04	1.215194224e-11
-4.000000000e-03	1.340098804e-01	-4.715009083e-04	8.241491650e-12
-4.100000000e-03	1.340098878e-01	-4.701413755e-04	1.027515731e-11
-4.200000000e-03	1.340098951e-01	-4.687818423e-04	8.959196283e-12
-4.300000000e-03	1.340099023e-01	-4.674223086e-04	5.941747628e-12
-4.400000000e-03	1.340099095e-01	-4.660627745e-04	1.389681047e-11
-4.500000000e-03	1.340099167e-01	-4.647032399e-04	1.135862767e-11
-4.600000000e-03	1.340099238e-01	-4.633437049e-04	2.051922323e-11
-4.700000000e-03	1.340099309e-01	-4.619841695e-04	5.836488291e-12
-4.800000000e-03	1.340099380e-01	-4.606246336e-04	6.216517955e-12
-4.900000000e-03	1.340099450e-01	-4.592650973e-04	1.180384323e-11
-5.000000000e-03	1.340099519e-01	-4.579055606e-04	9.409736553e-12
-5.100000000e-03	1.340099589e-01	-4.565460234e-04	1.631501102e-11
-5.200000000e-03	1.340099658e-01	-4.551864858e-04	1.049441438e-11
-5.300000000e-03	1.340099726e-01	-4.538269478e-04	1.092126604e-11
-5.400000000e-03	1.340099794e-01	-4.524674094e-04	9.286943815e-12
-5.500000000e-03	1.340099862e-01	-4.511078706e-04	2.024269779e-11
-5.600000000e-03	1.340099929e-01	-4.497483313e-04	6.290788959e-11
-5.700000000e-03	1.340099996e-01	-4.483887917e-04	7.808300254e-12
-5.800000000e-03	1.340100062e-01	-4.470292516e-04	1.259440174e-11
-5.900000000e-03	1.340100128e-01	-4.456697111e-04	4.030288620e-11
-6.000000000e-03	1.340100193e-01	-4.443101702e-04	1.475292945e-11
-6.100000000e-03	1.340100259e-01	-4.429506289e-04	1.162282142e-11
-6.200000000e-03	1.340100323e-01	-4.415910872e-04	3.841193667e-11
-6.300000000e-03	1.340100388e-01	-4.402315451e-04	1.138477965e-11
-6.400000000e-03	1.340100451e-01	-4.388720026e-04	2.798295607e-11
-6.500000000e-03	1.340100515e-01	-4.375124597e-04	1.583862398e-11
-6.600000000e-03	1.340100578e-01	-4.361529164e-04	1.633968550e-10
-6.700000000e-03	1.340100641e-01	-4.347933727e-04	8.061698703e-12
-6.800000000e-03	1.340100703e-01	-4.334338287e-04	8.615761684e-12
-6.900000000e-03	1.340100765e-01	-4.320742842e-04	1.059919065e-11
-7.000000000e-03	1.340100826e-01	-4.307147394e-04	7.971811778e-12
-7.100000000e-03	1.340100887e-01	-4.293551941e-04	1.428097261e-11
-7.200000000e-03	1.340100948e-01	-4.279956485e-04	5.148574034e-12
-7.300000000e-03	1.340101008e-01	-4.266361025e-04	8.455234644e-12
-7.400000000e-03	1.340101068e-01	-4.252765561e-04	8.751323828e-12
-7.500000000e-03	1.340101127e-01	-4.239170094e-04	1.213597744e-11
-7.600000000e-03	1.340101186e-01	-4.225574622e-04	1.184069730e-11
-7.700000000e-03	1.340101245e-01	-4.211979147e-04	1.365279026e-11
-7.800000000e-03	1.340101303e-01	-4.198383669e-04	1.005907686e-11
-7.900000000e-03	1.340101360e-01	-4.184788186e-04	2.095931757e-11
-8.000000000e-03	1.340101418e-01	-4.171192700e-04	6.442889764e-11
-8.100000000e-03	1.340101475e-01	-4.157597211e-04	8.123592775e-11
-8.200000000e-03	1.340101531e-01	-4.144001717e-04	1.617827120e-11
-8.300000000e-03	1.340101587e-01	-4.130406221e-04	9.195091486e-12
-8.400000000e-03	1.340101643e-01	-4.116810720e-04	2.653255353e-11
-8.500000000e-03	1.340101698e-01	-4.103215216e-04	1.323265791e-11
-8.600000000e-03	1.340101753e-01	-4.089619709e-04	1.193384223e-11
-8.700000000e-03	1.340101807e-01	-4.076024198e-04	1.213345807e-11
-8.800000000e-03	1.340101861e-01	-4.062428683e-04	1.317597565e-11
-8.900000000e-03	1.340101915e-01	-4.048833165e-04	4.530793349e-12
-9.000000000e-03	1.340101968e-01	-4.035237644e-04	1.047393858e-11
-9.100000000e-03	1.340102021e-01	-4.021642119e-04	8.150688157e-12
-9.200000000e-03	1.340102073e-01	-4.008046591e-04	1.264958554e-11
-9.300000000e-03	1.340102125e-01	-3.994451059e-04	2.505831359e-11
-9.400000000e-03	1.340102176e-01	-3.980855524e-04	1.615200670e-11
-9.500000000e-03	1.340102228e-01	-3.967259986e-04	1.221579774e-11
-9.600000000e-03	1.340102278e-01	-3.953664444e-04	2.762150791e-11
-9.700000000e-03	1.340102328e-01	-3.940068899e-04	1.280976189e-11
-9.800000000e-03	1.340102378e-01	-3.926473351e-04	7.599332033e-12
-9.900000000e-03	1.340102428e-01	-3.912877799e-04	7.684231128e-12
-1.000000000e-02	1.340102477e-01	-3.899282244e-04	1.016510228e-11
-1.010000000e-02	1.340102525e-01	-3.885686686e-04	1.415994940e-11
-1.020000000e-02	1.340102574e-01	-3.872091125e-04	1.645075124e-11
-1.030000000e-02	1.340102622e-01	-3.858495561e-04	2.306695619e-11
-1.040000000e-02	1.340102669e-01	-3.844899993e-04	9.544806347e-12
-1.050000000e-02	1.340102716e-01	-3.831304422e-04	6.634820739e-12
-1.060000000e-02	1.340102762e-01	-3.817708849e-04	2.792032723e-11
-1.070000000e-02	1.340102809e-01	-3.804113272e-04	8.124585885e-12
-1.080000000e-02	1.340102854e-01	-3.790517692e-04	9.495161873e-12
-1.090000000e-02	1.340102900e-01	-3.776922109e-04	5.710491497e-11
-1.100000000e-02	1.340102945e-01	-3.763326523e-04	3.437076778e-11
-1.110000000e-02	1.340102989e-01	-3.749730934e-04	1.849376955e-11
-1.120000000e-02	1.340103033e-01	-3.736135342e-04	4.189580839e-11
-1.130000000e-02	1.340103077e-01	-3.722539747e-04	1.025917415e-11
-1.140000000e-02	1.340103120e-01	-3.708944149e-04	2.585789756e-11
-1.150000000e-02	1.340103163e-01	-3.695348548e-04	3.752718728e-11
-1.160000000e-02	1.340103205e-01	-3.681752944e-04	1.008775041e-11
-1.170000000e-02	1.340103247e-01	-3.668157337e-04	8.882494373e-12
-1.180000000e-02	1.340103289e-01	-3.654561728e-04	7.447003817e-12
-1.190000000e-02	1.340103330e-01	-3.640966116e-04	7.248953132e-12
-1.200000000e-02	1.340103371e-01	-3.627370500e-04	4.125478875e-12
-1.210000000e-02	1.340103411e-01	-3.613774882e-04	1.123906294e-11
-1.220000000e-02	1.340103451e-01	-3.600179261e-04	8.025287070e-12
-1.230000000e-02	1.340103491e-01	-3.586583638e-04	2.370890936e-11
-1.240000000e-02	1.340103530e-01	-3.572988012e-04	7.992099491e-12
-1.250000000e-02	1.340103569e-01	-3.559392383e-04	1.264464887e-11
-1.260000000e-02	1.340103607e-01	-3.545796751e-04	7.780326675e-12
-1.270000000e-02	1.340103645e-01	-3.532201117e-04	9.705146908e-12
-1.280000000e-02	1.340103682e-01	-3.518605479e-04	2.229728863e-11
-1.290000000e-02	1.340103720e-01	-3.505009840e-04	9.601421801e-12
-1.300000000e-02	1.340103756e-01	-3.491414197e-04	1.104659176e-11
-1.310000000e-02	1.340103792e-01	-3.477818553e-04	7.863148939e-11
-1.320000000e-02	1.340103828e-01	-3.464222905e-04	1.256252181e-11
-1.330000000e-02	1.340103864e-01	-3.450627255e-04	1.039117867e-11
-1.340000000e-02	1.340103899e-01	-3.437031603e-04	8.247027056e-12
-1.350000000e-02	1.340103933e-01	-3.423435947e-04	1.120415639e-11
-1.360000000e-02	1.340103968e-01	-3.409840290e-04	3.973894864e-11
-1.370000000e-02	1.340104001e-01	-3.396244630e-04	1.452598647e-11
-1.380000000e-02	1.340104035e-01	-3.382648967e-04	1.331035108e-11
-1.390000000e-02	1.340104068e-01	-3.369053302e-04	2.702061739e-11
-1.400000000e-02	1.340104100e-01	-3.355457635e-04	1.177563186e-11
-1.410000000e-02	1.340104132e-01	-3.341861965e-04	1.626930411e-11
-1.420000000e-02	1.340104164e-01	-3.328266293e-04	9.409879959e-12
-1.430000000e-02	1.340104195e-01	-3.314670619e-04	3.567969494e-11
-1.440000000e-02	1.340104226e-01	-3.301074942e-04	1.007138799e-11
-1.450000000e-02	1.340104257e-01	-3.287479263e-04	7.603368097e-12
-1.460000000e-02	1.340104287e-01	-3.273883582e-04	6.237001620e-12
-1.470000000e-02	1.340104316e-01	-3.260287898e-04	1.058446357e-11
-1.480000000e-02	1.340104346e-01	-3.246692212e-04	5.410756683e-11
-1.490000000e-02	1.340104374e-01	-3.233096524e-04	3.375677820e-11
-1.500000000e-02	1.340104403e-01	-3.219500834e-04	1.178396180e-11
-1.510000000e-02	1.340104431e-01	-3.205905142e-04	1.091338730e-11
-1.520000000e-02	1.340104458e-01	-3.192309447e-04	1.127560403e-11
-1.530000000e-02	1.340104486e-01	-3.178713750e-04	6.196292223e-12
-1.540000000e-02	1.340104512e-01	-3.165118052e-04	3.277328365e-11
-1.550000000e-02	1.340104539e-01	-3.151522351e-04	1.186196126e-11
-1.560000000e-02	1.340104565e-01	-3.137926648e-04	9.858564921e-12
-1.570000000e-02	1.340104590e-01	-3.124330943e-04	1.615674830e-11
-1.580000000e-02	1.340104615e-01	-3.110735236e-04	6.987337248e-11
-1.590000000e-02	1.340104640e-01	-3.097139526e-04	2.087765993e-11
-1.600000000e-02	1.340104664e-01	-3.083543815e-04	3.523971344e-11
-1.610000000e-02	1.340104688e-01	-3.069948102e-04	1.092047106e-11
-1.620000000e-02	1.340104712e-01	-3.056352387e-04	8.209358270e-12
-1.630000000e-02	1.340104735e-01	-3.042756670e-04	2.011432972e-11
-1.640000000e-02	1.340104757e-01	-3.029160951e-04	1.678364969e-11
-1.650000000e-02	1.340104779e-01	-3.015565231e-04	7.472142165e-12
-1.660000000e-02	1.340104801e-01	-3.001969508e-04	9.360186257e-12
-1.670000000e-02	1.340104823e-01	-2.988373784e-04	8.679263265e-12
-1.680000000e-02	1.340104844e-01	-2.974778057e-04	1.066025712e-11
-1.690000000e-02	1.340104864e-01	-2.961182329e-04	1.438245210e-11
-1.700000000e-02	1.340104884e-01	-2.947586599e-04	1.723011471e-11
-1.710000000e-02	1.340104904e-01	-2.933990868e-04	1.129647709e-11
-1.720000000e-02	1.340104923e-01	-2.920395134e-04	6.887026692e-12
-1.730000000e-02	1.340104942e-01	-2.906799399e-04	2.342351880e-11
-1.740000000e-02	1.340104961e-01	-2.893203663e-04	1.589116538e-11
-1.750000000e-02	1.340104979e-01	-2.879607924e-04	2.203832955e-11
-1.760000000e-02	1.340104997e-01	-2.866012184e-04	1.656742699e-11
-1.770000000e-02	1.340105014e-01	-2.852416442e-04	1.017073640e-11
-1.780000000e-02	1.340105031e-01	-2.838820699e-04	1.393796355e-11
-1.790000000e-02	1.340105047e-01	-2.825224954e-04	4.127339161e-12
-1.800000000e-02	1.340105063e-01	-2.811629207e-04	1.080212544e-11
-1.810000000e-02	1.340105079e-01	-2.798033459e-04	6.615583143e-11
-1.820000000e-02	1.340105094e-01	-2.784437709e-04	9.088637570e-11
-1.830000000e-02	1.340105109e-01	-2.770841958e-04	1.545823826e-11
-1.840000000e-02	1.340105123e-01	-2.757246206e-04	9.197655265e-12
-1.850000000e-02	1.340105137e-01	-2.743650452e-04	6.564026231e-12
-1.860000000e-02	1.340105151e-01	-2.730054696e-04	3.122110675e-11
-1.870000000e-02	1.340105164e-01	-2.716458939e-04	2.004756647e-11
-1.880000000e-02	1.340105177e-01	-2.702863181e-04	3.105083926e-11
-1.890000000e-02	1.340105189e-01	-2.689267421e-04	4.883857633e-12
-1.900000000e-02	1.340105201e-01	-2.675671660e-04	1.090877172e-11
-1.910000000e-02	1.340105212e-01	-2.662075897e-04	6.584678789e-12
-1.920000000e-02	1.340105224e-01	-2.648480133e-04	1.005052934e-11
-1.930000000e-02	1.340105234e-01	-2.634884368e-04	1.330811638e-11
-1.940000000e-02	1.340105244e-01	-2.621288602e-04	1.402489342e-11
-1.950000000e-02	1.340105254e-01	-2.607692834e-04	1.818848439e-11
-1.960000000e-02	1.340105264e-01	-2.594097065e-04	3.117264909e-11
-1.970000000e-02	1.340105273e-01	-2.580501295e-04	4.541844691e-12
-1.980000000e-02	1.340105281e-01	-2.566905524e-04	2.505916117e-11
-1.990000000e-02	1.340105290e-01	-2.553309751e-04	9.325941417e-12
-2.000000000e-02	1.340105297e-01	-2.539713978e-04	2.285121930e-11
-2.010000000e-02	1.340105305e-01	-2.526118203e-04	8.733408656e-12
-2.020000000e-02	1.340105312e-01	-2.512522427e-04	3.198870749e-11
-2.030000000e-02	1.340105318e-01	-2.498926650e-04	9.241559508e-12
-2.040000000e-02	1.340105324e-01	-2.485330872e-04	9.893514757e-12
-2.050000000e-02	1.340105330e-01	-2.471735093e-04	2.710340509e-11
-2.060000000e-02	1.340105335e-01	-2.458139313e-04	9.512240957e-12
-2.070000000e-02	1.340105340e-01	-2.444543531e-04	2.511363403e-11
-2.080000000e-02	1.340105345e-01	-2.430947749e-04	1.460773284e-11
-2.090000000e-02	1.340105349e-01	-2.417351966e-04	1.468820941e-11
-2.100000000e-02	1.340105352e-01	-2.403756182e-04	9.251971183e-12
-2.110000000e-02	1.340105356e-01	-2.390160397e-04	2.138316622e-11
-2.120000000e-02	1.340105359e-01	-2.376564611e-04	9.935241766e-12
-2.130000000e-02	1.340105361e-01	-2.362968824e-04	9.655402012e-12
-2.140000000e-02	1.340105363e-01	-2.349373036e-04	8.433441383e-11
-2.150000000e-02	1.340105365e-01	-2.335777248e-04	1.521061454e-11
-2.160000000e-02	1.340105366e-01	-2.322181458e-04	1.879993241e-11
-2.170000000e-02	1.340105366e-01	-2.308585668e-04	9.703788727e-12
-2.180000000e-02	1.340105367e-01	-2.294989877e-04	2.096898279e-11
-2.190000000e-02	1.340105367e-01	-2.281394086e-04	2.203733506e-11
-2.200000000e-02	1.340105366e-01	-2.267798293e-04	2.117229824e-11
-2.210000000e-02	1.340105365e-01	-2.254202500e-04	2.214692674e-11
-2.220000000e-02	1.340105364e-01	-2.240606706e-04	6.162998829e-12
-2.230000000e-02	1.340105362e-01	-2.227010912e-04	1.509311174e-11
-2.240000000e-02	1.340105360e-01	-2.213415116e-04	1.518386926e-11
-2.250000000e-02	1.340105358e-01	-2.199819320e-04	1.493015264e-11
-2.260000000e-02	1.340105355e-01	-2.186223524e-04	1.825091399e-11
-2.270000000e-02	1.340105351e-01	-2.172627727e-04	7.640849972e-12
-2.280000000e-02	1.340105348e-01	-2.159031929e-04	1.841293150e-11
-2.290000000e-02	1.340105343e-01	-2.145436131e-04	1.649406798e-11
-2.300000000e-02	1.340105339e-01	-2.131840332e-04	3.405234006e-11
-2.310000000e-02	1.340105334e-01	-2.118244533e-04	2.027261174e-11
-2.320000000e-02	1.340105328e-01	-2.104648733e-04	7.467710512e-12
-2.330000000e-02	1.340105323e-01	-2.091052933e-04	1.256896705e-11
-2.340000000e-02	1.340105316e-01	-2.077457132e-04	6.292903390e-12
-2.350000000e-02	1.340105310e-01	-2.063861331e-04	1.031671138e-11
-2.360000000e-02	1.340105303e-01	-2.050265530e-04	1.537226042e-11
-2.370000000e-02	1.340105295e-01	-2.036669728e-04	1.453996936e-11
-2.380000000e-02	1.340105287e-01	-2.023073926e-04	1.390256486e-11
-2.390000000e-02	1.340105279e-01	-2.009478123e-04	1.382526074e-11
-2.400000000e-02	1.340105270e-01	-1.995882320e-04	1.379343105e-11
-2.410000000e-02	1.340105261e-01	-1.982286517e-04	2.022467496e-11
-2.420000000e-02	1.340105252e-01	-1.968690713e-04	1.738173161e-11
-2.430000000e-02	1.340105242e-01	-1.955094910e-04	4.769444648e-12
-2.440000000e-02	1.340105231e-01	-1.941499106e-04	9.661230942e-12
-2.450000000e-02	1.340105220e-01	-1.927903301e-04	1.224623751e-11
-2.460000000e-02	1.340105209e-01	-1.914307497e-04	1.451069547e-11
-2.470000000e-02	1.340105198e-01	-1.900711692e-04	6.323590953e-12
-2.480000000e-02	1.340105186e-01	-1.887115887e-04	2.530806772e-11
-2.490000000e-02	1.340105173e-01	-1.873520083e-04	1.354476998e-11
-2.500000000e-02	1.340105160e-01	-1.859924277e-04	1.226344255e-11
-2.510000000e-02	1.340105147e-01	-1.846328472e-04	2.637281377e-11
-2.520000000e-02	1.340105133e-01	-1.832732667e-04	1.500707374e-11
-2.530000000e-02	1.340105119e-01	-1.819136862e-04	1.441528079e-11
-2.540000000e-02	1.340105105e-01	-1.805541057e-04	1.617612997e-11
-2.550000000e-02	1.340105090e-01	-1.791945251e-04	1.063364296e-10
-2.560000000e-02	1.340105075e-01	-1.778349446e-04	1.652419583e-11
-2.570000000e-02	1.340105059e-01	-1.764753641e-04	1.803155901e-11
-2.580000000e-02	1.340105043e-01	-1.751157835e-04	9.325296391e-12
-2.590000000e-02	1.340105026e-01	-1.737562030e-04	5.588729319e-11
-2.600000000e-02	1.340105009e-01	-1.723966225e-04	1.608015689e-11
-2.610000000e-02	1.340104992e-01	-1.710370420e-04	1.516501862e-11
-2.620000000e-02	1.340104974e-01	-1.696774615e-04	1.307551883e-11
-2.630000000e-02	1.340104956e-01	-1.683178811e-04	1.397969233e-11
-2.640000000e-02	1.340104937e-01	-1.669583006e-04	1.306163138e-11
-2.650000000e-02	1.340104918e-01	-1.655987202e-04	2.082265829e-11
-2.660000000e-02	1.340104899e-01	-1.642391398e-04	2.364808052e-11
-2.670000000e-02	1.340104879e-01	-1.628795594e-04	7.368515538e-12
-2.680000000e-02	1.340104858e-01	-1.615199790e-04	2.191560068e-11
-2.690000000e-02	1.340104838e-01	-1.601603987e-04	2.326666434e-11
-2.700000000e-02	1.340104817e-01	-1.588008184e-04	4.387540701e-11
-2.710000000e-02	1.340104795e-01	-1.574412381e-04	1.540683029e-11
-2.720000000e-02	1.340104773e-01	-1.560816579e-04	7.979062902e-12
-2.730000000e-02	1.340104751e-01	-1.547220777e-04	7.660304193e-12
-2.740000000e-02	1.340104728e-01	-1.533624975e-04	2.434833418e-11
-2.750000000e-02	1.340104705e-01	-1.520029174e-04	8.297085824e-12
-2.760000000e-02	1.340104681e-01	-1.506433373e-04	1.106884952e-11
-2.770000000e-02	1.340104657e-01	-1.492837573e-04	1.036789731e-11
-2.780000000e-02	1.340104633e-01	-1.479241773e-04	1.215796196e-11
-2.790000000e-02	1.340104608e-01	-1.465645974e-04	4.413054603e-11
-2.800000000e-02	1.340104583e-01	-1.452050175e-04	4.940289855e-12
-2.810000000e-02	1.340104557e-01	-1.438454377e-04	7.097050443e-12
-2.820000000e-02	1.340104531e-01	-1.424858579e-04	1.022750693e-11
-2.830000000e-02	1.340104505e-01	-1.411262782e-04	1.119951372e-11
-2.840000000e-02	1.340104478e-01	-1.397666985e-04	9.907143360e-12
-2.850000000e-02	1.340104451e-01	-1.384071189e-04	1.150349307e-11
-2.860000000e-02	1.340104423e-01	-1.370475394e-04	2.948897968e-11
-2.870000000e-02	1.340104395e-01	-1.356879599e-04	7.439181089e-12
-2.880000000e-02	1.340104366e-01	-1.343283805e-04	8.445028258e-12
-2.890000000e-02	1.340104337e-01	-1.329688011e-04	2.264399901e-11
-2.900000000e-02	1.340104308e-01	-1.316092219e-04	1.454834563e-11
-2.910000000e-02	1.340104278e-01	-1.302496427e-04	1.437218333e-11
-2.920000000e-02	1.340104248e-01	-1.288900636e-04	1.345432946e-11
-2.930000000e-02	1.340104217e-01	-1.275304845e-04	1.035122394e-11
-2.940000000e-02	1.340104186e-01	-1.261709056e-04	8.624716613e-12
-2.950000000e-02	1.340104155e-01	-1.248113267e-04	6.109177696e-12
-2.960000000e-02	1.340104123e-01	-1.234517479e-04	3.493709125e-11
-2.970000000e-02	1.340104091e-01	-1.220921692e-04	1.953117092e-11
-2.980000000e-02	1.340104058e-01	-1.207325906e-04	1.393357888e-11
-2.990000000e-02	1.340104025e-01	-1.193730120e-04	2.836347617e-11
-3.000000000e-02	1.340103992e-01	-1.180134336e-04	1.337057787e-10
