# Im(epsi1)     Re(omega/c)      Im(omega/c)      Eq(det).Opt det CON kz, R=0.5 \mum, mu_c=0.3, Re(epsi1)=3.90solve_det_conkz_vs_kz.py
0.000000000e+00	1.340110759e-01	-4.990173434e-04	1.386427389e-11
-1.000000000e-04	1.340110841e-01	-4.976570550e-04	1.925668392e-11
-2.000000000e-04	1.340110922e-01	-4.962967660e-04	7.105267612e-12
-3.000000000e-04	1.340111003e-01	-4.949364766e-04	8.186099912e-12
-4.000000000e-04	1.340111084e-01	-4.935761867e-04	1.105671137e-11
-5.000000000e-04	1.340111164e-01	-4.922158963e-04	1.207084617e-11
-6.000000000e-04	1.340111243e-01	-4.908556054e-04	9.356158597e-12
-7.000000000e-04	1.340111323e-01	-4.894953141e-04	2.562122267e-11
-8.000000000e-04	1.340111401e-01	-4.881350223e-04	1.321497682e-11
-9.000000000e-04	1.340111480e-01	-4.867747300e-04	2.712931087e-11
-1.000000000e-03	1.340111558e-01	-4.854144372e-04	1.011604801e-11
-1.100000000e-03	1.340111636e-01	-4.840541440e-04	9.089296052e-12
-1.200000000e-03	1.340111713e-01	-4.826938503e-04	6.880546427e-12
-1.300000000e-03	1.340111790e-01	-4.813335561e-04	1.795655942e-11
-1.400000000e-03	1.340111866e-01	-4.799732615e-04	1.337618052e-11
-1.500000000e-03	1.340111942e-01	-4.786129664e-04	1.166932447e-11
-1.600000000e-03	1.340112018e-01	-4.772526709e-04	7.671169505e-11
-1.700000000e-03	1.340112093e-01	-4.758923749e-04	1.051663160e-11
-1.800000000e-03	1.340112167e-01	-4.745320785e-04	3.806143106e-11
-1.900000000e-03	1.340112242e-01	-4.731717816e-04	7.218276183e-12
-2.000000000e-03	1.340112316e-01	-4.718114842e-04	2.136472734e-11
-2.100000000e-03	1.340112389e-01	-4.704511864e-04	2.380768468e-11
-2.200000000e-03	1.340112462e-01	-4.690908882e-04	1.679177855e-11
-2.300000000e-03	1.340112535e-01	-4.677305895e-04	2.563948583e-11
-2.400000000e-03	1.340112607e-01	-4.663702904e-04	2.215110713e-11
-2.500000000e-03	1.340112679e-01	-4.650099908e-04	1.972256361e-11
-2.600000000e-03	1.340112751e-01	-4.636496908e-04	1.580411905e-10
-2.700000000e-03	1.340112822e-01	-4.622893904e-04	2.648447292e-11
-2.800000000e-03	1.340112892e-01	-4.609290895e-04	2.019954252e-11
-2.900000000e-03	1.340112962e-01	-4.595687882e-04	1.109546049e-11
-3.000000000e-03	1.340113032e-01	-4.582084865e-04	3.963037004e-11
-3.100000000e-03	1.340113102e-01	-4.568481844e-04	1.194881936e-11
-3.200000000e-03	1.340113171e-01	-4.554878818e-04	1.507145423e-11
-3.300000000e-03	1.340113239e-01	-4.541275788e-04	5.795627275e-12
-3.400000000e-03	1.340113307e-01	-4.527672754e-04	6.665769247e-12
-3.500000000e-03	1.340113375e-01	-4.514069715e-04	2.506854105e-11
-3.600000000e-03	1.340113442e-01	-4.500466673e-04	3.650769125e-11
-3.700000000e-03	1.340113509e-01	-4.486863626e-04	1.126213925e-11
-3.800000000e-03	1.340113576e-01	-4.473260575e-04	6.773280753e-12
-3.900000000e-03	1.340113642e-01	-4.459657521e-04	1.213406339e-10
-4.000000000e-03	1.340113707e-01	-4.446054462e-04	9.426250831e-12
-4.100000000e-03	1.340113773e-01	-4.432451399e-04	3.721772448e-11
-4.200000000e-03	1.340113837e-01	-4.418848332e-04	8.041584215e-12
-4.300000000e-03	1.340113902e-01	-4.405245261e-04	7.296587486e-12
-4.400000000e-03	1.340113966e-01	-4.391642186e-04	1.275485794e-11
-4.500000000e-03	1.340114029e-01	-4.378039106e-04	7.487512378e-11
-4.600000000e-03	1.340114093e-01	-4.364436024e-04	7.153214925e-12
-4.700000000e-03	1.340114155e-01	-4.350832937e-04	5.131126672e-11
-4.800000000e-03	1.340114218e-01	-4.337229846e-04	2.375534588e-11
-4.900000000e-03	1.340114280e-01	-4.323626751e-04	1.661587572e-11
-5.000000000e-03	1.340114341e-01	-4.310023653e-04	1.606341204e-11
-5.100000000e-03	1.340114402e-01	-4.296420550e-04	7.581742751e-12
-5.200000000e-03	1.340114463e-01	-4.282817444e-04	1.242503724e-11
-5.300000000e-03	1.340114523e-01	-4.269214334e-04	2.621205634e-11
-5.400000000e-03	1.340114583e-01	-4.255611220e-04	4.311423245e-11
-5.500000000e-03	1.340114643e-01	-4.242008103e-04	1.678389621e-11
-5.600000000e-03	1.340114702e-01	-4.228404981e-04	6.151396439e-12
-5.700000000e-03	1.340114760e-01	-4.214801856e-04	9.999809643e-12
-5.800000000e-03	1.340114818e-01	-4.201198728e-04	5.848673253e-12
-5.900000000e-03	1.340114876e-01	-4.187595595e-04	2.598590720e-11
-6.000000000e-03	1.340114934e-01	-4.173992459e-04	1.470277078e-11
-6.100000000e-03	1.340114991e-01	-4.160389319e-04	1.359294620e-10
-6.200000000e-03	1.340115047e-01	-4.146786176e-04	9.486621173e-12
-6.300000000e-03	1.340115103e-01	-4.133183029e-04	8.009781582e-12
-6.400000000e-03	1.340115159e-01	-4.119579879e-04	7.913355377e-12
-6.500000000e-03	1.340115214e-01	-4.105976725e-04	1.460255375e-11
-6.600000000e-03	1.340115269e-01	-4.092373567e-04	2.042108821e-11
-6.700000000e-03	1.340115324e-01	-4.078770406e-04	4.297299371e-11
-6.800000000e-03	1.340115378e-01	-4.065167241e-04	2.835699500e-11
-6.900000000e-03	1.340115432e-01	-4.051564073e-04	8.784250260e-12
-7.000000000e-03	1.340115485e-01	-4.037960902e-04	9.207805686e-12
-7.100000000e-03	1.340115538e-01	-4.024357727e-04	1.210061668e-11
-7.200000000e-03	1.340115590e-01	-4.010754549e-04	1.070458374e-11
-7.300000000e-03	1.340115642e-01	-3.997151367e-04	2.232675930e-11
-7.400000000e-03	1.340115694e-01	-3.983548182e-04	2.612466421e-11
-7.500000000e-03	1.340115745e-01	-3.969944993e-04	2.474748488e-11
-7.600000000e-03	1.340115796e-01	-3.956341801e-04	3.266386119e-11
-7.700000000e-03	1.340115846e-01	-3.942738606e-04	6.675969505e-12
-7.800000000e-03	1.340115896e-01	-3.929135408e-04	1.320371747e-11
-7.900000000e-03	1.340115946e-01	-3.915532206e-04	1.557736531e-11
-8.000000000e-03	1.340115995e-01	-3.901929002e-04	2.047140364e-11
-8.100000000e-03	1.340116044e-01	-3.888325793e-04	9.146688062e-12
-8.200000000e-03	1.340116092e-01	-3.874722582e-04	1.221341342e-11
-8.300000000e-03	1.340116140e-01	-3.861119368e-04	1.250817172e-11
-8.400000000e-03	1.340116187e-01	-3.847516150e-04	1.351570229e-11
-8.500000000e-03	1.340116234e-01	-3.833912929e-04	8.764265778e-12
-8.600000000e-03	1.340116281e-01	-3.820309705e-04	8.723048164e-12
-8.700000000e-03	1.340116327e-01	-3.806706478e-04	8.878804126e-12
-8.800000000e-03	1.340116373e-01	-3.793103248e-04	4.589213934e-11
-8.900000000e-03	1.340116418e-01	-3.779500015e-04	8.724531665e-12
-9.000000000e-03	1.340116463e-01	-3.765896779e-04	1.137657066e-11
-9.100000000e-03	1.340116508e-01	-3.752293540e-04	8.401846321e-12
-9.200000000e-03	1.340116552e-01	-3.738690298e-04	1.367978975e-11
-9.300000000e-03	1.340116596e-01	-3.725087053e-04	1.407141703e-11
-9.400000000e-03	1.340116639e-01	-3.711483805e-04	1.415728924e-11
-9.500000000e-03	1.340116682e-01	-3.697880554e-04	1.474274719e-11
-9.600000000e-03	1.340116725e-01	-3.684277300e-04	8.714036206e-11
-9.700000000e-03	1.340116767e-01	-3.670674043e-04	1.182659687e-10
-9.800000000e-03	1.340116809e-01	-3.657070783e-04	9.493595495e-12
-9.900000000e-03	1.340116850e-01	-3.643467521e-04	8.502967144e-12
-1.000000000e-02	1.340116891e-01	-3.629864256e-04	8.368076953e-12
-1.010000000e-02	1.340116931e-01	-3.616260988e-04	1.216028026e-11
-1.020000000e-02	1.340116971e-01	-3.602657717e-04	9.151064775e-12
-1.030000000e-02	1.340117011e-01	-3.589054443e-04	9.308956609e-12
-1.040000000e-02	1.340117050e-01	-3.575451167e-04	8.730971058e-12
-1.050000000e-02	1.340117089e-01	-3.561847888e-04	9.992812086e-12
-1.060000000e-02	1.340117127e-01	-3.548244606e-04	1.598504164e-11
-1.070000000e-02	1.340117165e-01	-3.534641321e-04	6.195626703e-12
-1.080000000e-02	1.340117203e-01	-3.521038034e-04	2.573807699e-11
-1.090000000e-02	1.340117240e-01	-3.507434744e-04	2.025340430e-11
-1.100000000e-02	1.340117277e-01	-3.493831452e-04	1.031114430e-11
-1.110000000e-02	1.340117313e-01	-3.480228157e-04	1.484667570e-11
-1.120000000e-02	1.340117349e-01	-3.466624859e-04	3.477122405e-11
-1.130000000e-02	1.340117384e-01	-3.453021559e-04	1.969492566e-11
-1.140000000e-02	1.340117420e-01	-3.439418256e-04	1.045241833e-11
-1.150000000e-02	1.340117454e-01	-3.425814951e-04	2.206670383e-11
-1.160000000e-02	1.340117488e-01	-3.412211644e-04	1.687742085e-11
-1.170000000e-02	1.340117522e-01	-3.398608333e-04	1.801709883e-11
-1.180000000e-02	1.340117556e-01	-3.385005021e-04	1.229308971e-11
-1.190000000e-02	1.340117589e-01	-3.371401706e-04	6.439192694e-12
-1.200000000e-02	1.340117621e-01	-3.357798388e-04	3.031209416e-11
-1.210000000e-02	1.340117654e-01	-3.344195069e-04	1.260493031e-11
-1.220000000e-02	1.340117685e-01	-3.330591746e-04	1.731676436e-11
-1.230000000e-02	1.340117717e-01	-3.316988422e-04	2.558131379e-11
-1.240000000e-02	1.340117748e-01	-3.303385095e-04	2.853117596e-11
-1.250000000e-02	1.340117778e-01	-3.289781766e-04	3.088455640e-11
-1.260000000e-02	1.340117808e-01	-3.276178435e-04	1.509716671e-11
-1.270000000e-02	1.340117838e-01	-3.262575101e-04	1.274161990e-10
-1.280000000e-02	1.340117867e-01	-3.248971765e-04	8.557122044e-12
-1.290000000e-02	1.340117896e-01	-3.235368427e-04	2.903865698e-11
-1.300000000e-02	1.340117925e-01	-3.221765086e-04	2.249980951e-11
-1.310000000e-02	1.340117953e-01	-3.208161744e-04	6.528624931e-12
-1.320000000e-02	1.340117980e-01	-3.194558399e-04	2.271025924e-11
-1.330000000e-02	1.340118008e-01	-3.180955052e-04	8.830744231e-12
-1.340000000e-02	1.340118035e-01	-3.167351704e-04	3.399614969e-11
-1.350000000e-02	1.340118061e-01	-3.153748352e-04	2.371444921e-11
-1.360000000e-02	1.340118087e-01	-3.140144999e-04	1.433405741e-11
-1.370000000e-02	1.340118113e-01	-3.126541644e-04	2.531288231e-11
-1.380000000e-02	1.340118138e-01	-3.112938287e-04	1.796430291e-11
-1.390000000e-02	1.340118162e-01	-3.099334928e-04	1.214354151e-11
-1.400000000e-02	1.340118187e-01	-3.085731567e-04	1.265166879e-11
-1.410000000e-02	1.340118211e-01	-3.072128203e-04	9.920808322e-12
-1.420000000e-02	1.340118234e-01	-3.058524838e-04	1.555884378e-11
-1.430000000e-02	1.340118257e-01	-3.044921471e-04	2.871874262e-11
-1.440000000e-02	1.340118280e-01	-3.031318102e-04	9.499025297e-12
-1.450000000e-02	1.340118302e-01	-3.017714732e-04	1.487446704e-11
-1.460000000e-02	1.340118324e-01	-3.004111359e-04	7.646832945e-12
-1.470000000e-02	1.340118346e-01	-2.990507984e-04	8.464518981e-12
-1.480000000e-02	1.340118367e-01	-2.976904608e-04	6.619567125e-12
-1.490000000e-02	1.340118387e-01	-2.963301230e-04	6.256678633e-12
-1.500000000e-02	1.340118408e-01	-2.949697850e-04	1.211420504e-11
-1.510000000e-02	1.340118427e-01	-2.936094468e-04	2.656721068e-11
-1.520000000e-02	1.340118447e-01	-2.922491085e-04	2.976834224e-11
-1.530000000e-02	1.340118466e-01	-2.908887700e-04	1.035209675e-11
-1.540000000e-02	1.340118484e-01	-2.895284313e-04	1.340610210e-11
-1.550000000e-02	1.340118502e-01	-2.881680924e-04	7.777312088e-12
-1.560000000e-02	1.340118520e-01	-2.868077534e-04	2.087954352e-11
-1.570000000e-02	1.340118538e-01	-2.854474142e-04	4.304158082e-11
-1.580000000e-02	1.340118554e-01	-2.840870749e-04	1.695452995e-11
-1.590000000e-02	1.340118571e-01	-2.827267354e-04	1.209173608e-11
-1.600000000e-02	1.340118587e-01	-2.813663957e-04	5.647674131e-12
-1.610000000e-02	1.340118603e-01	-2.800060559e-04	1.120597776e-11
-1.620000000e-02	1.340118618e-01	-2.786457159e-04	6.185455525e-11
-1.630000000e-02	1.340118633e-01	-2.772853758e-04	1.194889090e-11
-1.640000000e-02	1.340118647e-01	-2.759250355e-04	1.139648040e-11
-1.650000000e-02	1.340118661e-01	-2.745646951e-04	9.909388234e-12
-1.660000000e-02	1.340118675e-01	-2.732043545e-04	1.387822624e-11
-1.670000000e-02	1.340118688e-01	-2.718440138e-04	8.501098707e-11
-1.680000000e-02	1.340118701e-01	-2.704836730e-04	2.061344617e-11
-1.690000000e-02	1.340118713e-01	-2.691233320e-04	1.119875032e-11
-1.700000000e-02	1.340118725e-01	-2.677629909e-04	1.349104009e-11
-1.710000000e-02	1.340118737e-01	-2.664026496e-04	6.716310853e-12
-1.720000000e-02	1.340118748e-01	-2.650423082e-04	1.292705417e-11
-1.730000000e-02	1.340118759e-01	-2.636819667e-04	1.663581643e-11
-1.740000000e-02	1.340118769e-01	-2.623216251e-04	1.193514625e-11
-1.750000000e-02	1.340118779e-01	-2.609612833e-04	1.351945841e-11
-1.760000000e-02	1.340118788e-01	-2.596009414e-04	1.384891746e-11
-1.770000000e-02	1.340118797e-01	-2.582405994e-04	8.646150816e-12
-1.780000000e-02	1.340118806e-01	-2.568802573e-04	1.148134955e-11
-1.790000000e-02	1.340118814e-01	-2.555199150e-04	2.598810712e-11
-1.800000000e-02	1.340118822e-01	-2.541595726e-04	1.260494303e-11
-1.810000000e-02	1.340118829e-01	-2.527992302e-04	1.815409708e-11
-1.820000000e-02	1.340118836e-01	-2.514388876e-04	3.576032311e-11
-1.830000000e-02	1.340118843e-01	-2.500785449e-04	8.282860771e-12
-1.840000000e-02	1.340118849e-01	-2.487182020e-04	2.035553188e-11
-1.850000000e-02	1.340118855e-01	-2.473578591e-04	3.416628011e-11
-1.860000000e-02	1.340118860e-01	-2.459975161e-04	1.237234661e-11
-1.870000000e-02	1.340118865e-01	-2.446371730e-04	1.987814340e-11
-1.880000000e-02	1.340118870e-01	-2.432768298e-04	1.200889166e-11
-1.890000000e-02	1.340118874e-01	-2.419164865e-04	1.281237014e-11
-1.900000000e-02	1.340118877e-01	-2.405561430e-04	1.318208072e-11
-1.910000000e-02	1.340118881e-01	-2.391957995e-04	1.732274821e-11
-1.920000000e-02	1.340118884e-01	-2.378354559e-04	7.579529193e-12
-1.930000000e-02	1.340118886e-01	-2.364751123e-04	1.016331138e-11
-1.940000000e-02	1.340118888e-01	-2.351147685e-04	6.137188872e-12
-1.950000000e-02	1.340118890e-01	-2.337544246e-04	1.012569224e-11
-1.960000000e-02	1.340118891e-01	-2.323940807e-04	9.959393265e-12
-1.970000000e-02	1.340118892e-01	-2.310337367e-04	9.259091821e-12
-1.980000000e-02	1.340118892e-01	-2.296733926e-04	2.826361896e-11
-1.990000000e-02	1.340118892e-01	-2.283130484e-04	2.080756186e-11
-2.000000000e-02	1.340118892e-01	-2.269527042e-04	1.454104955e-11
-2.010000000e-02	1.340118891e-01	-2.255923599e-04	1.525411182e-11
-2.020000000e-02	1.340118890e-01	-2.242320155e-04	1.760532988e-11
-2.030000000e-02	1.340118888e-01	-2.228716710e-04	9.184061897e-12
-2.040000000e-02	1.340118886e-01	-2.215113265e-04	2.080808093e-11
-2.050000000e-02	1.340118883e-01	-2.201509819e-04	3.680625702e-11
-2.060000000e-02	1.340118880e-01	-2.187906373e-04	9.557224037e-12
-2.070000000e-02	1.340118877e-01	-2.174302926e-04	2.545003997e-11
-2.080000000e-02	1.340118873e-01	-2.160699478e-04	5.161076425e-11
-2.090000000e-02	1.340118869e-01	-2.147096030e-04	6.040693045e-12
-2.100000000e-02	1.340118865e-01	-2.133492581e-04	1.813100365e-11
-2.110000000e-02	1.340118860e-01	-2.119889132e-04	1.192732028e-11
-2.120000000e-02	1.340118854e-01	-2.106285682e-04	2.075089468e-11
-2.130000000e-02	1.340118848e-01	-2.092682232e-04	2.237019293e-11
-2.140000000e-02	1.340118842e-01	-2.079078782e-04	1.311571943e-11
-2.150000000e-02	1.340118836e-01	-2.065475331e-04	1.028069359e-11
-2.160000000e-02	1.340118828e-01	-2.051871879e-04	9.637922052e-12
-2.170000000e-02	1.340118821e-01	-2.038268427e-04	6.247016074e-12
-2.180000000e-02	1.340118813e-01	-2.024664975e-04	3.487723656e-11
-2.190000000e-02	1.340118805e-01	-2.011061523e-04	1.466662792e-11
-2.200000000e-02	1.340118796e-01	-1.997458070e-04	8.194509142e-12
-2.210000000e-02	1.340118787e-01	-1.983854617e-04	1.079540748e-11
-2.220000000e-02	1.340118777e-01	-1.970251163e-04	1.509655060e-11
-2.230000000e-02	1.340118768e-01	-1.956647710e-04	3.051046324e-11
-2.240000000e-02	1.340118757e-01	-1.943044256e-04	1.523957349e-11
-2.250000000e-02	1.340118746e-01	-1.929440802e-04	1.898843145e-11
-2.260000000e-02	1.340118735e-01	-1.915837347e-04	2.031963570e-11
-2.270000000e-02	1.340118724e-01	-1.902233893e-04	2.268528327e-11
-2.280000000e-02	1.340118712e-01	-1.888630438e-04	6.799344943e-12
-2.290000000e-02	1.340118699e-01	-1.875026983e-04	1.407880834e-11
-2.300000000e-02	1.340118686e-01	-1.861423528e-04	2.393828988e-11
-2.310000000e-02	1.340118673e-01	-1.847820073e-04	1.762615673e-11
-2.320000000e-02	1.340118659e-01	-1.834216618e-04	1.965609342e-11
-2.330000000e-02	1.340118645e-01	-1.820613163e-04	9.211394848e-12
-2.340000000e-02	1.340118631e-01	-1.807009708e-04	1.255380956e-11
-2.350000000e-02	1.340118616e-01	-1.793406253e-04	1.503150959e-11
-2.360000000e-02	1.340118601e-01	-1.779802798e-04	9.009637216e-12
-2.370000000e-02	1.340118585e-01	-1.766199343e-04	2.041387056e-11
-2.380000000e-02	1.340118569e-01	-1.752595888e-04	6.200642642e-11
-2.390000000e-02	1.340118552e-01	-1.738992432e-04	1.505356849e-11
-2.400000000e-02	1.340118535e-01	-1.725388978e-04	8.136763677e-12
-2.410000000e-02	1.340118518e-01	-1.711785523e-04	1.394867796e-11
-2.420000000e-02	1.340118500e-01	-1.698182068e-04	1.693151968e-11
-2.430000000e-02	1.340118482e-01	-1.684578614e-04	1.040093144e-11
-2.440000000e-02	1.340118463e-01	-1.670975159e-04	4.048678457e-11
-2.450000000e-02	1.340118444e-01	-1.657371705e-04	1.262009158e-11
-2.460000000e-02	1.340118425e-01	-1.643768251e-04	6.863239834e-12
-2.470000000e-02	1.340118405e-01	-1.630164798e-04	2.522212275e-11
-2.480000000e-02	1.340118385e-01	-1.616561344e-04	7.080305004e-12
-2.490000000e-02	1.340118364e-01	-1.602957891e-04	5.611380301e-11
-2.500000000e-02	1.340118343e-01	-1.589354438e-04	2.769135694e-11
-2.510000000e-02	1.340118321e-01	-1.575750986e-04	6.509438530e-12
-2.520000000e-02	1.340118300e-01	-1.562147534e-04	6.547144434e-12
-2.530000000e-02	1.340118277e-01	-1.548544082e-04	1.022598203e-11
-2.540000000e-02	1.340118254e-01	-1.534940631e-04	1.243035272e-11
-2.550000000e-02	1.340118231e-01	-1.521337180e-04	8.150150593e-12
-2.560000000e-02	1.340118208e-01	-1.507733729e-04	1.102585496e-11
-2.570000000e-02	1.340118184e-01	-1.494130279e-04	1.863892782e-11
-2.580000000e-02	1.340118159e-01	-1.480526829e-04	7.051579154e-11
-2.590000000e-02	1.340118135e-01	-1.466923380e-04	9.829964421e-12
-2.600000000e-02	1.340118109e-01	-1.453319932e-04	1.200112660e-11
-2.610000000e-02	1.340118084e-01	-1.439716484e-04	9.352165574e-12
-2.620000000e-02	1.340118058e-01	-1.426113036e-04	1.351255991e-11
-2.630000000e-02	1.340118031e-01	-1.412509589e-04	1.358583589e-11
-2.640000000e-02	1.340118004e-01	-1.398906143e-04	1.262384896e-11
-2.650000000e-02	1.340117977e-01	-1.385302697e-04	5.637186130e-12
-2.660000000e-02	1.340117949e-01	-1.371699252e-04	1.264991189e-11
-2.670000000e-02	1.340117921e-01	-1.358095807e-04	1.115408995e-11
-2.680000000e-02	1.340117893e-01	-1.344492364e-04	1.649575619e-11
-2.690000000e-02	1.340117864e-01	-1.330888921e-04	1.737982294e-11
-2.700000000e-02	1.340117834e-01	-1.317285478e-04	4.072781084e-11
-2.710000000e-02	1.340117805e-01	-1.303682037e-04	1.663404143e-11
-2.720000000e-02	1.340117774e-01	-1.290078596e-04	2.786170058e-11
-2.730000000e-02	1.340117744e-01	-1.276475156e-04	1.951393371e-11
-2.740000000e-02	1.340117713e-01	-1.262871716e-04	1.828871862e-11
-2.750000000e-02	1.340117681e-01	-1.249268278e-04	8.942632811e-12
-2.760000000e-02	1.340117650e-01	-1.235664840e-04	1.340831032e-11
-2.770000000e-02	1.340117617e-01	-1.222061404e-04	2.409640674e-11
-2.780000000e-02	1.340117585e-01	-1.208457968e-04	1.542428436e-11
-2.790000000e-02	1.340117552e-01	-1.194854533e-04	1.291619835e-11
-2.800000000e-02	1.340117518e-01	-1.181251099e-04	4.163092060e-12
-2.810000000e-02	1.340117484e-01	-1.167647666e-04	1.245248950e-11
-2.820000000e-02	1.340117450e-01	-1.154044234e-04	8.879361972e-12
-2.830000000e-02	1.340117415e-01	-1.140440803e-04	2.453864238e-11
-2.840000000e-02	1.340117380e-01	-1.126837373e-04	1.296813091e-11
-2.850000000e-02	1.340117344e-01	-1.113233944e-04	5.310316700e-12
-2.860000000e-02	1.340117308e-01	-1.099630516e-04	6.874414424e-12
-2.870000000e-02	1.340117272e-01	-1.086027089e-04	7.095023893e-12
-2.880000000e-02	1.340117235e-01	-1.072423663e-04	1.548725449e-11
-2.890000000e-02	1.340117198e-01	-1.058820238e-04	2.289898455e-11
-2.900000000e-02	1.340117160e-01	-1.045216815e-04	3.959577049e-11
-2.910000000e-02	1.340117122e-01	-1.031613392e-04	9.233702414e-12
-2.920000000e-02	1.340117084e-01	-1.018009971e-04	1.113420698e-11
-2.930000000e-02	1.340117045e-01	-1.004406551e-04	1.428177927e-11
-2.940000000e-02	1.340117006e-01	-9.908031324e-05	9.771539924e-12
-2.950000000e-02	1.340116966e-01	-9.771997148e-05	1.336837207e-11
-2.960000000e-02	1.340116926e-01	-9.635962986e-05	6.411459061e-12
-2.970000000e-02	1.340116886e-01	-9.499928836e-05	1.076986318e-11
-2.980000000e-02	1.340116845e-01	-9.363894699e-05	7.978620054e-12
-2.990000000e-02	1.340116803e-01	-9.227860575e-05	1.070818815e-11
-3.000000000e-02	1.340116762e-01	-9.091826464e-05	3.526492927e-11
