# Im(epsi1)     Re(omega/c)      Im(omega/c)      Eq(det).Opt det CON kz, R=0.5 \mum, mu_c=0.3, Re(epsi1)=3.90solve_det_conkz_vs_kz.py
0.000000000e+00	1.339855310e-01	-5.524784847e-04	1.575219263e-11
-1.000000000e-04	1.339855407e-01	-5.511189850e-04	2.875533390e-11
-2.000000000e-04	1.339855504e-01	-5.497594847e-04	6.417857758e-12
-3.000000000e-04	1.339855600e-01	-5.483999839e-04	4.740926750e-11
-4.000000000e-04	1.339855696e-01	-5.470404825e-04	1.860185887e-11
-5.000000000e-04	1.339855792e-01	-5.456809805e-04	8.055395582e-12
-6.000000000e-04	1.339855887e-01	-5.443214780e-04	1.307036192e-11
-7.000000000e-04	1.339855982e-01	-5.429619749e-04	5.980604578e-12
-8.000000000e-04	1.339856076e-01	-5.416024712e-04	1.340372647e-11
-9.000000000e-04	1.339856170e-01	-5.402429670e-04	1.026256781e-11
-1.000000000e-03	1.339856264e-01	-5.388834622e-04	1.155957617e-11
-1.100000000e-03	1.339856357e-01	-5.375239569e-04	1.589569655e-11
-1.200000000e-03	1.339856450e-01	-5.361644510e-04	2.148333192e-11
-1.300000000e-03	1.339856542e-01	-5.348049446e-04	4.604247056e-11
-1.400000000e-03	1.339856634e-01	-5.334454376e-04	2.657133208e-11
-1.500000000e-03	1.339856725e-01	-5.320859301e-04	6.773478545e-12
-1.600000000e-03	1.339856817e-01	-5.307264220e-04	3.305497336e-11
-1.700000000e-03	1.339856907e-01	-5.293669134e-04	2.031827083e-11
-1.800000000e-03	1.339856997e-01	-5.280074043e-04	1.647680108e-11
-1.900000000e-03	1.339857087e-01	-5.266478946e-04	8.705248984e-12
-2.000000000e-03	1.339857177e-01	-5.252883844e-04	2.657095577e-11
-2.100000000e-03	1.339857266e-01	-5.239288736e-04	1.562142411e-11
-2.200000000e-03	1.339857354e-01	-5.225693623e-04	3.042880146e-11
-2.300000000e-03	1.339857443e-01	-5.212098505e-04	1.251642167e-11
-2.400000000e-03	1.339857530e-01	-5.198503382e-04	1.263774594e-11
-2.500000000e-03	1.339857618e-01	-5.184908253e-04	4.751066102e-12
-2.600000000e-03	1.339857705e-01	-5.171313119e-04	9.179103273e-12
-2.700000000e-03	1.339857791e-01	-5.157717980e-04	2.389234838e-11
-2.800000000e-03	1.339857877e-01	-5.144122836e-04	8.310427421e-12
-2.900000000e-03	1.339857963e-01	-5.130527687e-04	1.005831503e-11
-3.000000000e-03	1.339858048e-01	-5.116932532e-04	2.155004311e-11
-3.100000000e-03	1.339858133e-01	-5.103337372e-04	2.265149838e-11
-3.200000000e-03	1.339858218e-01	-5.089742207e-04	4.554194100e-11
-3.300000000e-03	1.339858302e-01	-5.076147038e-04	1.567680742e-11
-3.400000000e-03	1.339858386e-01	-5.062551863e-04	1.846297619e-11
-3.500000000e-03	1.339858469e-01	-5.048956683e-04	3.300052006e-11
-3.600000000e-03	1.339858552e-01	-5.035361498e-04	6.504010286e-12
-3.700000000e-03	1.339858634e-01	-5.021766308e-04	1.218293116e-11
-3.800000000e-03	1.339858716e-01	-5.008171113e-04	9.135722904e-12
-3.900000000e-03	1.339858798e-01	-4.994575913e-04	1.355415212e-11
-4.000000000e-03	1.339858879e-01	-4.980980708e-04	1.414803115e-11
-4.100000000e-03	1.339858960e-01	-4.967385498e-04	9.116925925e-12
-4.200000000e-03	1.339859040e-01	-4.953790283e-04	1.178965584e-11
-4.300000000e-03	1.339859120e-01	-4.940195064e-04	1.422517890e-11
-4.400000000e-03	1.339859200e-01	-4.926599839e-04	3.366450275e-11
-4.500000000e-03	1.339859279e-01	-4.913004610e-04	5.552383283e-12
-4.600000000e-03	1.339859358e-01	-4.899409376e-04	1.611656253e-11
-4.700000000e-03	1.339859436e-01	-4.885814137e-04	7.363084719e-12
-4.800000000e-03	1.339859514e-01	-4.872218893e-04	8.393456670e-12
-4.900000000e-03	1.339859591e-01	-4.858623645e-04	1.405160269e-11
-5.000000000e-03	1.339859669e-01	-4.845028392e-04	1.180886044e-11
-5.100000000e-03	1.339859745e-01	-4.831433134e-04	1.254093466e-11
-5.200000000e-03	1.339859821e-01	-4.817837872e-04	1.692017808e-11
-5.300000000e-03	1.339859897e-01	-4.804242604e-04	3.046323007e-11
-5.400000000e-03	1.339859973e-01	-4.790647333e-04	4.105773825e-11
-5.500000000e-03	1.339860048e-01	-4.777052056e-04	1.900549383e-11
-5.600000000e-03	1.339860122e-01	-4.763456775e-04	5.787179669e-11
-5.700000000e-03	1.339860197e-01	-4.749861490e-04	2.048331865e-11
-5.800000000e-03	1.339860270e-01	-4.736266199e-04	1.875806080e-11
-5.900000000e-03	1.339860344e-01	-4.722670905e-04	1.114102399e-11
-6.000000000e-03	1.339860417e-01	-4.709075605e-04	7.091722514e-12
-6.100000000e-03	1.339860489e-01	-4.695480302e-04	1.175159153e-11
-6.200000000e-03	1.339860562e-01	-4.681884993e-04	5.602760863e-11
-6.300000000e-03	1.339860633e-01	-4.668289681e-04	4.075488852e-11
-6.400000000e-03	1.339860705e-01	-4.654694364e-04	9.063509096e-12
-6.500000000e-03	1.339860776e-01	-4.641099042e-04	9.685781723e-12
-6.600000000e-03	1.339860846e-01	-4.627503716e-04	5.842088708e-11
-6.700000000e-03	1.339860916e-01	-4.613908386e-04	1.291703257e-11
-6.800000000e-03	1.339860986e-01	-4.600313051e-04	2.941300851e-11
-6.900000000e-03	1.339861055e-01	-4.586717712e-04	5.239877177e-11
-7.000000000e-03	1.339861124e-01	-4.573122369e-04	9.286529278e-12
-7.100000000e-03	1.339861192e-01	-4.559527021e-04	1.263929930e-11
-7.200000000e-03	1.339861261e-01	-4.545931670e-04	1.014121838e-11
-7.300000000e-03	1.339861328e-01	-4.532336313e-04	1.892370204e-11
-7.400000000e-03	1.339861395e-01	-4.518740953e-04	5.992192372e-12
-7.500000000e-03	1.339861462e-01	-4.505145589e-04	7.722953856e-12
-7.600000000e-03	1.339861529e-01	-4.491550220e-04	9.557131877e-12
-7.700000000e-03	1.339861595e-01	-4.477954847e-04	9.829262579e-12
-7.800000000e-03	1.339861660e-01	-4.464359470e-04	1.469755729e-11
-7.900000000e-03	1.339861725e-01	-4.450764089e-04	1.061329046e-11
-8.000000000e-03	1.339861790e-01	-4.437168704e-04	1.299427950e-11
-8.100000000e-03	1.339861854e-01	-4.423573314e-04	3.008995768e-11
-8.200000000e-03	1.339861918e-01	-4.409977921e-04	1.368970090e-11
-8.300000000e-03	1.339861982e-01	-4.396382523e-04	1.008693502e-11
-8.400000000e-03	1.339862045e-01	-4.382787122e-04	9.277603246e-12
-8.500000000e-03	1.339862108e-01	-4.369191717e-04	4.155433631e-12
-8.600000000e-03	1.339862170e-01	-4.355596307e-04	8.216928862e-12
-8.700000000e-03	1.339862232e-01	-4.342000894e-04	1.716524127e-11
-8.800000000e-03	1.339862293e-01	-4.328405476e-04	1.088041762e-11
-8.900000000e-03	1.339862354e-01	-4.314810055e-04	9.560039011e-12
-9.000000000e-03	1.339862415e-01	-4.301214630e-04	2.656904387e-11
-9.100000000e-03	1.339862475e-01	-4.287619201e-04	1.012042183e-11
-9.200000000e-03	1.339862535e-01	-4.274023768e-04	4.941112143e-12
-9.300000000e-03	1.339862594e-01	-4.260428332e-04	7.071477796e-12
-9.400000000e-03	1.339862653e-01	-4.246832891e-04	1.017800991e-11
-9.500000000e-03	1.339862712e-01	-4.233237447e-04	1.782406689e-11
-9.600000000e-03	1.339862770e-01	-4.219641999e-04	7.992379922e-12
-9.700000000e-03	1.339862828e-01	-4.206046547e-04	1.901466490e-11
-9.800000000e-03	1.339862885e-01	-4.192451091e-04	1.795864736e-11
-9.900000000e-03	1.339862942e-01	-4.178855632e-04	6.901900573e-12
-1.000000000e-02	1.339862999e-01	-4.165260169e-04	1.251628795e-11
-1.010000000e-02	1.339863055e-01	-4.151664703e-04	1.061275718e-11
-1.020000000e-02	1.339863111e-01	-4.138069233e-04	5.468271342e-12
-1.030000000e-02	1.339863166e-01	-4.124473759e-04	4.043304875e-11
-1.040000000e-02	1.339863221e-01	-4.110878281e-04	2.681178286e-11
-1.050000000e-02	1.339863275e-01	-4.097282800e-04	1.089304751e-11
-1.060000000e-02	1.339863329e-01	-4.083687316e-04	1.409899044e-11
-1.070000000e-02	1.339863383e-01	-4.070091828e-04	2.594506429e-11
-1.080000000e-02	1.339863436e-01	-4.056496336e-04	8.339502365e-12
-1.090000000e-02	1.339863489e-01	-4.042900841e-04	1.888560619e-11
-1.100000000e-02	1.339863541e-01	-4.029305342e-04	1.850740120e-11
-1.110000000e-02	1.339863593e-01	-4.015709840e-04	5.512115226e-12
-1.120000000e-02	1.339863645e-01	-4.002114335e-04	2.676576734e-11
-1.130000000e-02	1.339863696e-01	-3.988518826e-04	1.179392726e-11
-1.140000000e-02	1.339863747e-01	-3.974923313e-04	1.762460413e-11
-1.150000000e-02	1.339863797e-01	-3.961327798e-04	1.862610040e-11
-1.160000000e-02	1.339863847e-01	-3.947732279e-04	9.225210758e-12
-1.170000000e-02	1.339863897e-01	-3.934136756e-04	1.776387592e-11
-1.180000000e-02	1.339863946e-01	-3.920541231e-04	2.790360669e-11
-1.190000000e-02	1.339863995e-01	-3.906945702e-04	1.316707057e-11
-1.200000000e-02	1.339864043e-01	-3.893350170e-04	8.039040087e-12
-1.210000000e-02	1.339864091e-01	-3.879754634e-04	1.731127062e-11
-1.220000000e-02	1.339864138e-01	-3.866159095e-04	1.347898473e-11
-1.230000000e-02	1.339864185e-01	-3.852563554e-04	2.888110004e-11
-1.240000000e-02	1.339864232e-01	-3.838968008e-04	1.035901157e-11
-1.250000000e-02	1.339864278e-01	-3.825372460e-04	2.091148151e-11
-1.260000000e-02	1.339864324e-01	-3.811776909e-04	2.461312490e-11
-1.270000000e-02	1.339864369e-01	-3.798181354e-04	8.472625691e-12
-1.280000000e-02	1.339864414e-01	-3.784585797e-04	1.622419424e-11
-1.290000000e-02	1.339864459e-01	-3.770990236e-04	2.909459034e-11
-1.300000000e-02	1.339864503e-01	-3.757394672e-04	8.501611253e-12
-1.310000000e-02	1.339864547e-01	-3.743799106e-04	2.244895059e-11
-1.320000000e-02	1.339864590e-01	-3.730203536e-04	1.040777327e-11
-1.330000000e-02	1.339864633e-01	-3.716607963e-04	1.238055802e-11
-1.340000000e-02	1.339864676e-01	-3.703012387e-04	9.979787431e-12
-1.350000000e-02	1.339864718e-01	-3.689416808e-04	8.902579903e-12
-1.360000000e-02	1.339864760e-01	-3.675821227e-04	8.710342326e-12
-1.370000000e-02	1.339864801e-01	-3.662225642e-04	1.144480249e-11
-1.380000000e-02	1.339864842e-01	-3.648630055e-04	1.501611242e-11
-1.390000000e-02	1.339864882e-01	-3.635034464e-04	7.117940948e-12
-1.400000000e-02	1.339864922e-01	-3.621438871e-04	1.713791192e-11
-1.410000000e-02	1.339864962e-01	-3.607843275e-04	3.437872137e-11
-1.420000000e-02	1.339865001e-01	-3.594247676e-04	1.055096343e-11
-1.430000000e-02	1.339865040e-01	-3.580652075e-04	1.232968538e-11
-1.440000000e-02	1.339865078e-01	-3.567056470e-04	5.063434280e-11
-1.450000000e-02	1.339865116e-01	-3.553460863e-04	2.535995219e-11
-1.460000000e-02	1.339865154e-01	-3.539865253e-04	2.496303259e-11
-1.470000000e-02	1.339865191e-01	-3.526269641e-04	2.174959531e-11
-1.480000000e-02	1.339865228e-01	-3.512674026e-04	7.677358902e-12
-1.490000000e-02	1.339865264e-01	-3.499078408e-04	3.894524388e-11
-1.500000000e-02	1.339865300e-01	-3.485482787e-04	6.693255563e-12
-1.510000000e-02	1.339865336e-01	-3.471887164e-04	5.523219481e-12
-1.520000000e-02	1.339865371e-01	-3.458291538e-04	2.080476344e-11
-1.530000000e-02	1.339865406e-01	-3.444695910e-04	1.548474404e-11
-1.540000000e-02	1.339865440e-01	-3.431100279e-04	1.649974406e-11
-1.550000000e-02	1.339865474e-01	-3.417504646e-04	1.108386402e-11
-1.560000000e-02	1.339865507e-01	-3.403909010e-04	1.925947475e-11
-1.570000000e-02	1.339865541e-01	-3.390313371e-04	1.499645424e-11
-1.580000000e-02	1.339865573e-01	-3.376717730e-04	9.501196419e-12
-1.590000000e-02	1.339865605e-01	-3.363122087e-04	7.413655575e-12
-1.600000000e-02	1.339865637e-01	-3.349526441e-04	1.749381112e-11
-1.610000000e-02	1.339865669e-01	-3.335930793e-04	8.711694350e-12
-1.620000000e-02	1.339865700e-01	-3.322335142e-04	1.346850451e-11
-1.630000000e-02	1.339865730e-01	-3.308739489e-04	2.450815117e-11
-1.640000000e-02	1.339865761e-01	-3.295143834e-04	2.782260637e-11
-1.650000000e-02	1.339865790e-01	-3.281548177e-04	9.201461168e-12
-1.660000000e-02	1.339865820e-01	-3.267952517e-04	1.605786496e-11
-1.670000000e-02	1.339865849e-01	-3.254356854e-04	2.228446563e-11
-1.680000000e-02	1.339865877e-01	-3.240761190e-04	1.232698178e-11
-1.690000000e-02	1.339865905e-01	-3.227165523e-04	6.933980899e-12
-1.700000000e-02	1.339865933e-01	-3.213569854e-04	1.001700473e-11
-1.710000000e-02	1.339865960e-01	-3.199974183e-04	9.859973894e-12
-1.720000000e-02	1.339865987e-01	-3.186378510e-04	1.052953621e-11
-1.730000000e-02	1.339866014e-01	-3.172782834e-04	1.772000274e-11
-1.740000000e-02	1.339866040e-01	-3.159187156e-04	1.135975445e-11
-1.750000000e-02	1.339866065e-01	-3.145591477e-04	1.079143425e-11
-1.760000000e-02	1.339866091e-01	-3.131995795e-04	9.871288190e-12
-1.770000000e-02	1.339866116e-01	-3.118400111e-04	9.185186685e-12
-1.780000000e-02	1.339866140e-01	-3.104804425e-04	9.222570716e-12
-1.790000000e-02	1.339866164e-01	-3.091208737e-04	1.617675059e-11
-1.800000000e-02	1.339866188e-01	-3.077613047e-04	1.145678534e-11
-1.810000000e-02	1.339866211e-01	-3.064017355e-04	1.535989474e-11
-1.820000000e-02	1.339866234e-01	-3.050421661e-04	3.593903906e-11
-1.830000000e-02	1.339866256e-01	-3.036825965e-04	1.401998839e-11
-1.840000000e-02	1.339866278e-01	-3.023230267e-04	9.276009601e-12
-1.850000000e-02	1.339866300e-01	-3.009634567e-04	6.656587729e-12
-1.860000000e-02	1.339866321e-01	-2.996038865e-04	2.566321186e-11
-1.870000000e-02	1.339866341e-01	-2.982443162e-04	2.318331822e-11
-1.880000000e-02	1.339866362e-01	-2.968847456e-04	9.692587641e-12
-1.890000000e-02	1.339866382e-01	-2.955251749e-04	1.384107928e-11
-1.900000000e-02	1.339866401e-01	-2.941656040e-04	2.833752157e-11
-1.910000000e-02	1.339866420e-01	-2.928060329e-04	5.088839094e-11
-1.920000000e-02	1.339866439e-01	-2.914464616e-04	1.712665989e-11
-1.930000000e-02	1.339866457e-01	-2.900868902e-04	1.177043077e-11
-1.940000000e-02	1.339866475e-01	-2.887273186e-04	6.650249096e-11
-1.950000000e-02	1.339866492e-01	-2.873677468e-04	1.035806918e-11
-1.960000000e-02	1.339866509e-01	-2.860081749e-04	1.676189590e-11
-1.970000000e-02	1.339866526e-01	-2.846486027e-04	1.732749929e-11
-1.980000000e-02	1.339866542e-01	-2.832890305e-04	5.979854805e-12
-1.990000000e-02	1.339866558e-01	-2.819294580e-04	1.175174237e-11
-2.000000000e-02	1.339866573e-01	-2.805698854e-04	2.668786544e-11
-2.010000000e-02	1.339866588e-01	-2.792103127e-04	9.756961017e-12
-2.020000000e-02	1.339866603e-01	-2.778507398e-04	9.961920800e-12
-2.030000000e-02	1.339866617e-01	-2.764911667e-04	1.435755587e-11
-2.040000000e-02	1.339866631e-01	-2.751315935e-04	3.353093893e-11
-2.050000000e-02	1.339866644e-01	-2.737720201e-04	7.420613984e-12
-2.060000000e-02	1.339866657e-01	-2.724124466e-04	7.863584583e-12
-2.070000000e-02	1.339866670e-01	-2.710528729e-04	7.839806157e-12
-2.080000000e-02	1.339866682e-01	-2.696932991e-04	5.930409618e-12
-2.090000000e-02	1.339866693e-01	-2.683337252e-04	1.428061314e-11
-2.100000000e-02	1.339866705e-01	-2.669741511e-04	1.267966575e-11
-2.110000000e-02	1.339866715e-01	-2.656145769e-04	9.043116143e-12
-2.120000000e-02	1.339866726e-01	-2.642550025e-04	2.143020759e-11
-2.130000000e-02	1.339866736e-01	-2.628954281e-04	1.496572041e-11
-2.140000000e-02	1.339866746e-01	-2.615358534e-04	2.211915240e-11
-2.150000000e-02	1.339866755e-01	-2.601762787e-04	8.092144712e-12
-2.160000000e-02	1.339866764e-01	-2.588167038e-04	1.186726385e-11
-2.170000000e-02	1.339866772e-01	-2.574571288e-04	1.408870001e-11
-2.180000000e-02	1.339866780e-01	-2.560975537e-04	1.869250065e-11
-2.190000000e-02	1.339866788e-01	-2.547379785e-04	1.143651419e-11
-2.200000000e-02	1.339866795e-01	-2.533784031e-04	1.381657928e-11
-2.210000000e-02	1.339866801e-01	-2.520188277e-04	1.798100985e-11
-2.220000000e-02	1.339866808e-01	-2.506592521e-04	8.637012808e-11
-2.230000000e-02	1.339866814e-01	-2.492996764e-04	2.401784975e-11
-2.240000000e-02	1.339866819e-01	-2.479401006e-04	9.990386170e-12
-2.250000000e-02	1.339866824e-01	-2.465805247e-04	1.141404405e-11
-2.260000000e-02	1.339866829e-01	-2.452209486e-04	1.100945364e-11
-2.270000000e-02	1.339866833e-01	-2.438613725e-04	2.855177832e-11
-2.280000000e-02	1.339866837e-01	-2.425017963e-04	1.367123754e-10
-2.290000000e-02	1.339866841e-01	-2.411422200e-04	1.355065567e-11
-2.300000000e-02	1.339866844e-01	-2.397826435e-04	3.873001636e-11
-2.310000000e-02	1.339866846e-01	-2.384230670e-04	3.143668894e-11
-2.320000000e-02	1.339866848e-01	-2.370634904e-04	5.228643583e-12
-2.330000000e-02	1.339866850e-01	-2.357039137e-04	2.028547746e-11
-2.340000000e-02	1.339866852e-01	-2.343443369e-04	4.205955487e-12
-2.350000000e-02	1.339866853e-01	-2.329847600e-04	1.355180832e-11
-2.360000000e-02	1.339866853e-01	-2.316251831e-04	1.082200956e-11
-2.370000000e-02	1.339866853e-01	-2.302656060e-04	1.374860773e-11
-2.380000000e-02	1.339866853e-01	-2.289060289e-04	6.448559797e-12
-2.390000000e-02	1.339866852e-01	-2.275464517e-04	1.351846221e-11
-2.400000000e-02	1.339866851e-01	-2.261868744e-04	6.304375107e-12
-2.410000000e-02	1.339866850e-01	-2.248272971e-04	1.282686131e-11
-2.420000000e-02	1.339866848e-01	-2.234677197e-04	4.086490630e-11
-2.430000000e-02	1.339866846e-01	-2.221081422e-04	1.321172245e-11
-2.440000000e-02	1.339866843e-01	-2.207485646e-04	2.171844067e-11
-2.450000000e-02	1.339866840e-01	-2.193889870e-04	1.126754763e-11
-2.460000000e-02	1.339866836e-01	-2.180294093e-04	7.216421580e-12
-2.470000000e-02	1.339866832e-01	-2.166698315e-04	1.446428283e-11
-2.480000000e-02	1.339866828e-01	-2.153102537e-04	4.174341001e-12
-2.490000000e-02	1.339866823e-01	-2.139506759e-04	1.187217997e-11
-2.500000000e-02	1.339866818e-01	-2.125910979e-04	6.432675256e-11
-2.510000000e-02	1.339866812e-01	-2.112315200e-04	8.744611068e-11
-2.520000000e-02	1.339866806e-01	-2.098719419e-04	1.758859018e-11
-2.530000000e-02	1.339866800e-01	-2.085123638e-04	1.524345347e-11
-2.540000000e-02	1.339866793e-01	-2.071527857e-04	9.219088869e-12
-2.550000000e-02	1.339866786e-01	-2.057932075e-04	8.520818602e-12
-2.560000000e-02	1.339866778e-01	-2.044336293e-04	2.362937828e-11
-2.570000000e-02	1.339866770e-01	-2.030740511e-04	8.441195649e-12
-2.580000000e-02	1.339866762e-01	-2.017144728e-04	9.128514741e-12
-2.590000000e-02	1.339866753e-01	-2.003548944e-04	9.222036805e-12
-2.600000000e-02	1.339866743e-01	-1.989953161e-04	2.030115448e-11
-2.610000000e-02	1.339866734e-01	-1.976357377e-04	3.810107866e-12
-2.620000000e-02	1.339866724e-01	-1.962761593e-04	8.266640167e-12
-2.630000000e-02	1.339866713e-01	-1.949165808e-04	1.000334784e-11
-2.640000000e-02	1.339866702e-01	-1.935570023e-04	4.118799585e-11
-2.650000000e-02	1.339866691e-01	-1.921974238e-04	7.801053043e-12
-2.660000000e-02	1.339866679e-01	-1.908378453e-04	4.089510948e-11
-2.670000000e-02	1.339866667e-01	-1.894782667e-04	5.802436541e-11
-2.680000000e-02	1.339866654e-01	-1.881186882e-04	1.254626026e-11
-2.690000000e-02	1.339866641e-01	-1.867591096e-04	2.774133909e-11
-2.700000000e-02	1.339866628e-01	-1.853995310e-04	1.412833628e-11
-2.710000000e-02	1.339866614e-01	-1.840399524e-04	7.692876615e-12
-2.720000000e-02	1.339866600e-01	-1.826803738e-04	8.148652976e-12
-2.730000000e-02	1.339866585e-01	-1.813207951e-04	1.965930690e-11
-2.740000000e-02	1.339866570e-01	-1.799612165e-04	1.218349456e-11
-2.750000000e-02	1.339866554e-01	-1.786016379e-04	1.971099501e-11
-2.760000000e-02	1.339866539e-01	-1.772420592e-04	3.294528747e-11
-2.770000000e-02	1.339866522e-01	-1.758824806e-04	7.901731060e-12
-2.780000000e-02	1.339866506e-01	-1.745229020e-04	1.024029388e-11
-2.790000000e-02	1.339866488e-01	-1.731633234e-04	8.634236202e-12
-2.800000000e-02	1.339866471e-01	-1.718037447e-04	1.350398644e-11
-2.810000000e-02	1.339866453e-01	-1.704441661e-04	2.159733592e-11
-2.820000000e-02	1.339866435e-01	-1.690845875e-04	1.160965547e-11
-2.830000000e-02	1.339866416e-01	-1.677250090e-04	9.650054651e-12
-2.840000000e-02	1.339866397e-01	-1.663654304e-04	2.067673409e-11
-2.850000000e-02	1.339866377e-01	-1.650058518e-04	1.414033948e-11
-2.860000000e-02	1.339866357e-01	-1.636462733e-04	1.568684687e-11
-2.870000000e-02	1.339866337e-01	-1.622866948e-04	6.521113238e-12
-2.880000000e-02	1.339866316e-01	-1.609271163e-04	7.318453151e-12
-2.890000000e-02	1.339866295e-01	-1.595675379e-04	8.531460688e-12
-2.900000000e-02	1.339866273e-01	-1.582079594e-04	5.071293728e-11
-2.910000000e-02	1.339866251e-01	-1.568483810e-04	6.934349314e-12
-2.920000000e-02	1.339866228e-01	-1.554888027e-04	7.865775340e-12
-2.930000000e-02	1.339866205e-01	-1.541292243e-04	2.960976206e-10
-2.940000000e-02	1.339866182e-01	-1.527696460e-04	5.319477553e-12
-2.950000000e-02	1.339866158e-01	-1.514100678e-04	1.674101928e-11
-2.960000000e-02	1.339866134e-01	-1.500504895e-04	1.770857005e-11
-2.970000000e-02	1.339866110e-01	-1.486909114e-04	9.392525848e-12
-2.980000000e-02	1.339866085e-01	-1.473313332e-04	1.453783269e-11
-2.990000000e-02	1.339866060e-01	-1.459717552e-04	6.896174582e-11
-3.000000000e-02	1.339866034e-01	-1.446121771e-04	8.818451846e-12
