# Im(epsi1)     Re(omega/c)      Im(omega/c)      Eq(det).Opt det CON kz, R=0.5 \mum, mu_c=0.3, Re(epsi1)=3.90solve_det_conkz_vs_kz.py
0.000000000e+00	1.340103091e-01	-4.954282927e-04	1.076063325e-11
-1.000000000e-04	1.340103172e-01	-4.940678958e-04	1.147101375e-11
-2.000000000e-04	1.340103252e-01	-4.927074983e-04	1.765745595e-11
-3.000000000e-04	1.340103332e-01	-4.913471004e-04	1.110204811e-11
-4.000000000e-04	1.340103411e-01	-4.899867021e-04	1.443261240e-11
-5.000000000e-04	1.340103490e-01	-4.886263032e-04	1.580565520e-11
-6.000000000e-04	1.340103569e-01	-4.872659039e-04	1.227350384e-11
-7.000000000e-04	1.340103647e-01	-4.859055041e-04	1.633717311e-11
-8.000000000e-04	1.340103725e-01	-4.845451038e-04	1.361054162e-11
-9.000000000e-04	1.340103802e-01	-4.831847031e-04	4.789860697e-11
-1.000000000e-03	1.340103879e-01	-4.818243019e-04	6.499395582e-11
-1.100000000e-03	1.340103956e-01	-4.804639002e-04	1.466207103e-11
-1.200000000e-03	1.340104032e-01	-4.791034981e-04	1.118965615e-11
-1.300000000e-03	1.340104107e-01	-4.777430955e-04	1.022289368e-10
-1.400000000e-03	1.340104183e-01	-4.763826925e-04	7.000398201e-11
-1.500000000e-03	1.340104258e-01	-4.750222890e-04	1.027464332e-11
-1.600000000e-03	1.340104332e-01	-4.736618850e-04	8.494381467e-12
-1.700000000e-03	1.340104406e-01	-4.723014806e-04	9.377168866e-12
-1.800000000e-03	1.340104480e-01	-4.709410758e-04	2.086555273e-11
-1.900000000e-03	1.340104553e-01	-4.695806705e-04	3.090562531e-11
-2.000000000e-03	1.340104626e-01	-4.682202647e-04	5.078932140e-11
-2.100000000e-03	1.340104698e-01	-4.668598586e-04	2.056100958e-11
-2.200000000e-03	1.340104770e-01	-4.654994520e-04	9.866600341e-12
-2.300000000e-03	1.340104842e-01	-4.641390449e-04	1.189448671e-11
-2.400000000e-03	1.340104913e-01	-4.627786374e-04	1.516437835e-11
-2.500000000e-03	1.340104984e-01	-4.614182295e-04	1.440796711e-11
-2.600000000e-03	1.340105054e-01	-4.600578212e-04	9.170935304e-12
-2.700000000e-03	1.340105124e-01	-4.586974124e-04	1.733291966e-11
-2.800000000e-03	1.340105193e-01	-4.573370032e-04	5.534524885e-12
-2.900000000e-03	1.340105263e-01	-4.559765935e-04	2.186478218e-11
-3.000000000e-03	1.340105331e-01	-4.546161835e-04	2.553657187e-11
-3.100000000e-03	1.340105400e-01	-4.532557730e-04	9.126951439e-12
-3.200000000e-03	1.340105467e-01	-4.518953621e-04	1.078402741e-11
-3.300000000e-03	1.340105535e-01	-4.505349508e-04	9.398885793e-12
-3.400000000e-03	1.340105602e-01	-4.491745391e-04	1.041414566e-10
-3.500000000e-03	1.340105669e-01	-4.478141269e-04	7.925146716e-12
-3.600000000e-03	1.340105735e-01	-4.464537144e-04	1.174661938e-11
-3.700000000e-03	1.340105801e-01	-4.450933014e-04	1.568187414e-11
-3.800000000e-03	1.340105866e-01	-4.437328881e-04	3.127492748e-11
-3.900000000e-03	1.340105931e-01	-4.423724743e-04	4.792297426e-12
-4.000000000e-03	1.340105995e-01	-4.410120601e-04	2.376300413e-11
-4.100000000e-03	1.340106060e-01	-4.396516456e-04	1.959052363e-11
-4.200000000e-03	1.340106123e-01	-4.382912306e-04	8.125705118e-12
-4.300000000e-03	1.340106187e-01	-4.369308152e-04	8.622884732e-12
-4.400000000e-03	1.340106250e-01	-4.355703995e-04	1.819653161e-11
-4.500000000e-03	1.340106312e-01	-4.342099833e-04	1.206286262e-11
-4.600000000e-03	1.340106374e-01	-4.328495668e-04	3.315567522e-11
-4.700000000e-03	1.340106436e-01	-4.314891499e-04	2.158336762e-11
-4.800000000e-03	1.340106497e-01	-4.301287326e-04	4.336340066e-11
-4.900000000e-03	1.340106558e-01	-4.287683149e-04	7.206545927e-11
-5.000000000e-03	1.340106618e-01	-4.274078968e-04	1.433038654e-11
-5.100000000e-03	1.340106678e-01	-4.260474783e-04	1.273570312e-11
-5.200000000e-03	1.340106738e-01	-4.246870595e-04	4.990907122e-12
-5.300000000e-03	1.340106797e-01	-4.233266403e-04	1.111829824e-11
-5.400000000e-03	1.340106856e-01	-4.219662207e-04	1.074528079e-11
-5.500000000e-03	1.340106914e-01	-4.206058008e-04	1.442218670e-11
-5.600000000e-03	1.340106972e-01	-4.192453805e-04	1.549272152e-11
-5.700000000e-03	1.340107030e-01	-4.178849598e-04	1.482891497e-11
-5.800000000e-03	1.340107087e-01	-4.165245387e-04	1.746480488e-11
-5.900000000e-03	1.340107144e-01	-4.151641173e-04	2.156767574e-11
-6.000000000e-03	1.340107200e-01	-4.138036956e-04	7.258001194e-12
-6.100000000e-03	1.340107256e-01	-4.124432734e-04	1.113091427e-11
-6.200000000e-03	1.340107311e-01	-4.110828509e-04	7.551410556e-12
-6.300000000e-03	1.340107366e-01	-4.097224281e-04	7.215450314e-12
-6.400000000e-03	1.340107421e-01	-4.083620049e-04	4.648826940e-11
-6.500000000e-03	1.340107475e-01	-4.070015814e-04	1.195758576e-11
-6.600000000e-03	1.340107529e-01	-4.056411575e-04	4.933671126e-12
-6.700000000e-03	1.340107582e-01	-4.042807332e-04	9.185808013e-12
-6.800000000e-03	1.340107635e-01	-4.029203087e-04	1.901920543e-11
-6.900000000e-03	1.340107688e-01	-4.015598838e-04	5.131657065e-12
-7.000000000e-03	1.340107740e-01	-4.001994585e-04	1.137267163e-11
-7.100000000e-03	1.340107792e-01	-3.988390329e-04	3.618540024e-11
-7.200000000e-03	1.340107843e-01	-3.974786070e-04	6.203218382e-12
-7.300000000e-03	1.340107894e-01	-3.961181807e-04	1.347035002e-10
-7.400000000e-03	1.340107945e-01	-3.947577541e-04	9.227859576e-12
-7.500000000e-03	1.340107995e-01	-3.933973272e-04	9.276978601e-12
-7.600000000e-03	1.340108044e-01	-3.920368999e-04	1.099775570e-11
-7.700000000e-03	1.340108094e-01	-3.906764724e-04	8.573248187e-12
-7.800000000e-03	1.340108143e-01	-3.893160445e-04	1.935916716e-11
-7.900000000e-03	1.340108191e-01	-3.879556162e-04	2.216715505e-11
-8.000000000e-03	1.340108239e-01	-3.865951877e-04	2.115888020e-11
-8.100000000e-03	1.340108287e-01	-3.852347588e-04	2.574291979e-11
-8.200000000e-03	1.340108334e-01	-3.838743297e-04	2.810847911e-11
-8.300000000e-03	1.340108381e-01	-3.825139002e-04	9.751282334e-12
-8.400000000e-03	1.340108427e-01	-3.811534704e-04	7.942401586e-12
-8.500000000e-03	1.340108473e-01	-3.797930403e-04	1.003962532e-11
-8.600000000e-03	1.340108519e-01	-3.784326099e-04	1.254426135e-11
-8.700000000e-03	1.340108564e-01	-3.770721792e-04	1.032399705e-11
-8.800000000e-03	1.340108608e-01	-3.757117482e-04	9.106552182e-12
-8.900000000e-03	1.340108653e-01	-3.743513169e-04	5.441596127e-12
-9.000000000e-03	1.340108697e-01	-3.729908852e-04	1.150584211e-11
-9.100000000e-03	1.340108740e-01	-3.716304533e-04	2.401849371e-11
-9.200000000e-03	1.340108783e-01	-3.702700211e-04	3.869046445e-11
-9.300000000e-03	1.340108826e-01	-3.689095887e-04	1.227049363e-11
-9.400000000e-03	1.340108868e-01	-3.675491559e-04	4.507837721e-11
-9.500000000e-03	1.340108910e-01	-3.661887228e-04	2.287062255e-11
-9.600000000e-03	1.340108951e-01	-3.648282895e-04	1.333390169e-11
-9.700000000e-03	1.340108992e-01	-3.634678558e-04	1.210908389e-11
-9.800000000e-03	1.340109033e-01	-3.621074219e-04	1.424234696e-11
-9.900000000e-03	1.340109073e-01	-3.607469877e-04	2.179457571e-11
-1.000000000e-02	1.340109113e-01	-3.593865532e-04	8.391368160e-12
-1.010000000e-02	1.340109152e-01	-3.580261185e-04	9.638387395e-12
-1.020000000e-02	1.340109191e-01	-3.566656835e-04	1.566597348e-11
-1.030000000e-02	1.340109230e-01	-3.553052482e-04	1.359332608e-11
-1.040000000e-02	1.340109268e-01	-3.539448126e-04	2.631752170e-11
-1.050000000e-02	1.340109306e-01	-3.525843768e-04	1.174549332e-11
-1.060000000e-02	1.340109343e-01	-3.512239407e-04	9.630286191e-12
-1.070000000e-02	1.340109380e-01	-3.498635044e-04	8.719219346e-12
-1.080000000e-02	1.340109416e-01	-3.485030677e-04	9.558845165e-12
-1.090000000e-02	1.340109452e-01	-3.471426309e-04	1.318869897e-11
-1.100000000e-02	1.340109488e-01	-3.457821937e-04	1.247363020e-11
-1.110000000e-02	1.340109523e-01	-3.444217564e-04	9.894009960e-12
-1.120000000e-02	1.340109558e-01	-3.430613187e-04	9.824013048e-12
-1.130000000e-02	1.340109592e-01	-3.417008809e-04	3.248207904e-11
-1.140000000e-02	1.340109626e-01	-3.403404427e-04	1.281584807e-11
-1.150000000e-02	1.340109660e-01	-3.389800043e-04	7.920444958e-12
-1.160000000e-02	1.340109693e-01	-3.376195657e-04	1.349985918e-11
-1.170000000e-02	1.340109726e-01	-3.362591269e-04	1.143996818e-11
-1.180000000e-02	1.340109758e-01	-3.348986878e-04	9.518813857e-12
-1.190000000e-02	1.340109790e-01	-3.335382484e-04	1.125843789e-11
-1.200000000e-02	1.340109822e-01	-3.321778089e-04	1.243981020e-11
-1.210000000e-02	1.340109853e-01	-3.308173691e-04	1.057550921e-11
-1.220000000e-02	1.340109883e-01	-3.294569290e-04	4.145532923e-11
-1.230000000e-02	1.340109914e-01	-3.280964888e-04	1.155214845e-11
-1.240000000e-02	1.340109944e-01	-3.267360483e-04	9.785598810e-12
-1.250000000e-02	1.340109973e-01	-3.253756076e-04	1.557220025e-11
-1.260000000e-02	1.340110002e-01	-3.240151666e-04	6.240593382e-11
-1.270000000e-02	1.340110031e-01	-3.226547255e-04	1.271978443e-11
-1.280000000e-02	1.340110059e-01	-3.212942841e-04	7.862497598e-12
-1.290000000e-02	1.340110087e-01	-3.199338425e-04	1.941036298e-11
-1.300000000e-02	1.340110114e-01	-3.185734007e-04	2.957533027e-11
-1.310000000e-02	1.340110141e-01	-3.172129587e-04	6.895342048e-12
-1.320000000e-02	1.340110168e-01	-3.158525164e-04	1.346610098e-11
-1.330000000e-02	1.340110194e-01	-3.144920740e-04	2.859380710e-11
-1.340000000e-02	1.340110219e-01	-3.131316313e-04	3.078141558e-11
-1.350000000e-02	1.340110245e-01	-3.117711885e-04	1.642023092e-11
-1.360000000e-02	1.340110270e-01	-3.104107455e-04	1.173354075e-11
-1.370000000e-02	1.340110294e-01	-3.090503022e-04	1.088067999e-11
-1.380000000e-02	1.340110318e-01	-3.076898588e-04	9.653956109e-12
-1.390000000e-02	1.340110342e-01	-3.063294151e-04	1.287752788e-11
-1.400000000e-02	1.340110365e-01	-3.049689713e-04	7.611529088e-12
-1.410000000e-02	1.340110388e-01	-3.036085272e-04	2.603803985e-11
-1.420000000e-02	1.340110410e-01	-3.022480830e-04	6.438231853e-12
-1.430000000e-02	1.340110432e-01	-3.008876386e-04	1.935327712e-11
-1.440000000e-02	1.340110454e-01	-2.995271940e-04	1.756558804e-11
-1.450000000e-02	1.340110475e-01	-2.981667493e-04	1.914993642e-11
-1.460000000e-02	1.340110496e-01	-2.968063043e-04	1.228407522e-11
-1.470000000e-02	1.340110516e-01	-2.954458592e-04	2.716061806e-11
-1.480000000e-02	1.340110536e-01	-2.940854139e-04	8.168284997e-12
-1.490000000e-02	1.340110556e-01	-2.927249684e-04	1.221748153e-11
-1.500000000e-02	1.340110575e-01	-2.913645227e-04	1.004090113e-11
-1.510000000e-02	1.340110593e-01	-2.900040769e-04	1.145365322e-11
-1.520000000e-02	1.340110612e-01	-2.886436309e-04	9.050827511e-12
-1.530000000e-02	1.340110630e-01	-2.872831848e-04	1.111474503e-11
-1.540000000e-02	1.340110647e-01	-2.859227384e-04	1.156156893e-11
-1.550000000e-02	1.340110664e-01	-2.845622919e-04	8.153881407e-12
-1.560000000e-02	1.340110681e-01	-2.832018453e-04	8.268964376e-12
-1.570000000e-02	1.340110697e-01	-2.818413985e-04	4.672322810e-12
-1.580000000e-02	1.340110713e-01	-2.804809515e-04	1.177067790e-11
-1.590000000e-02	1.340110728e-01	-2.791205044e-04	6.479524079e-12
-1.600000000e-02	1.340110743e-01	-2.777600571e-04	1.833143343e-11
-1.610000000e-02	1.340110758e-01	-2.763996097e-04	1.423187013e-11
-1.620000000e-02	1.340110772e-01	-2.750391622e-04	1.133677246e-11
-1.630000000e-02	1.340110786e-01	-2.736787145e-04	1.215671418e-11
-1.640000000e-02	1.340110799e-01	-2.723182666e-04	9.356919683e-12
-1.650000000e-02	1.340110812e-01	-2.709578186e-04	5.409369715e-12
-1.660000000e-02	1.340110824e-01	-2.695973705e-04	8.047004608e-12
-1.670000000e-02	1.340110836e-01	-2.682369222e-04	3.764266729e-11
-1.680000000e-02	1.340110848e-01	-2.668764738e-04	2.226517713e-11
-1.690000000e-02	1.340110859e-01	-2.655160253e-04	1.623170431e-11
-1.700000000e-02	1.340110870e-01	-2.641555766e-04	8.679979719e-12
-1.710000000e-02	1.340110881e-01	-2.627951278e-04	9.039259939e-12
-1.720000000e-02	1.340110891e-01	-2.614346789e-04	8.706123686e-12
-1.730000000e-02	1.340110900e-01	-2.600742298e-04	1.898326730e-11
-1.740000000e-02	1.340110910e-01	-2.587137807e-04	5.633377395e-12
-1.750000000e-02	1.340110918e-01	-2.573533314e-04	1.268933332e-11
-1.760000000e-02	1.340110927e-01	-2.559928819e-04	1.100093538e-11
-1.770000000e-02	1.340110935e-01	-2.546324324e-04	1.301405203e-11
-1.780000000e-02	1.340110942e-01	-2.532719828e-04	9.477256502e-12
-1.790000000e-02	1.340110949e-01	-2.519115330e-04	1.119766190e-11
-1.800000000e-02	1.340110956e-01	-2.505510832e-04	8.666301453e-12
-1.810000000e-02	1.340110962e-01	-2.491906332e-04	1.685868685e-11
-1.820000000e-02	1.340110968e-01	-2.478301831e-04	1.526609997e-11
-1.830000000e-02	1.340110974e-01	-2.464697329e-04	1.053084831e-11
-1.840000000e-02	1.340110979e-01	-2.451092827e-04	1.106440039e-11
-1.850000000e-02	1.340110983e-01	-2.437488323e-04	7.541155355e-12
-1.860000000e-02	1.340110988e-01	-2.423883818e-04	8.453122206e-12
-1.870000000e-02	1.340110992e-01	-2.410279312e-04	9.734855640e-12
-1.880000000e-02	1.340110995e-01	-2.396674806e-04	1.310833794e-11
-1.890000000e-02	1.340110998e-01	-2.383070298e-04	7.383004613e-12
-1.900000000e-02	1.340111001e-01	-2.369465789e-04	1.748716585e-11
-1.910000000e-02	1.340111003e-01	-2.355861280e-04	9.681931379e-12
-1.920000000e-02	1.340111004e-01	-2.342256770e-04	9.178637216e-12
-1.930000000e-02	1.340111006e-01	-2.328652259e-04	2.101982200e-11
-1.940000000e-02	1.340111007e-01	-2.315047747e-04	9.937763357e-12
-1.950000000e-02	1.340111007e-01	-2.301443234e-04	7.068490513e-12
-1.960000000e-02	1.340111007e-01	-2.287838721e-04	7.857731424e-12
-1.970000000e-02	1.340111007e-01	-2.274234207e-04	1.979268760e-11
-1.980000000e-02	1.340111006e-01	-2.260629692e-04	1.728547861e-11
-1.990000000e-02	1.340111005e-01	-2.247025177e-04	5.647261040e-12
-2.000000000e-02	1.340111004e-01	-2.233420660e-04	7.261063724e-12
-2.010000000e-02	1.340111002e-01	-2.219816143e-04	1.527592098e-11
-2.020000000e-02	1.340110999e-01	-2.206211626e-04	2.075289073e-11
-2.030000000e-02	1.340110997e-01	-2.192607108e-04	1.074902547e-11
-2.040000000e-02	1.340110993e-01	-2.179002589e-04	2.815943874e-11
-2.050000000e-02	1.340110990e-01	-2.165398070e-04	1.859550836e-11
-2.060000000e-02	1.340110986e-01	-2.151793550e-04	8.556120408e-12
-2.070000000e-02	1.340110981e-01	-2.138189029e-04	3.525377440e-11
-2.080000000e-02	1.340110976e-01	-2.124584508e-04	1.450043017e-11
-2.090000000e-02	1.340110971e-01	-2.110979987e-04	2.138965425e-11
-2.100000000e-02	1.340110965e-01	-2.097375465e-04	1.838796692e-11
-2.110000000e-02	1.340110959e-01	-2.083770943e-04	1.668402712e-11
-2.120000000e-02	1.340110953e-01	-2.070166420e-04	1.563132899e-11
-2.130000000e-02	1.340110946e-01	-2.056561896e-04	4.296918085e-12
-2.140000000e-02	1.340110939e-01	-2.042957373e-04	1.336041333e-11
-2.150000000e-02	1.340110931e-01	-2.029352849e-04	6.206968841e-12
-2.160000000e-02	1.340110923e-01	-2.015748325e-04	9.912407690e-12
-2.170000000e-02	1.340110914e-01	-2.002143800e-04	1.018513086e-11
-2.180000000e-02	1.340110905e-01	-1.988539275e-04	9.019927747e-12
-2.190000000e-02	1.340110896e-01	-1.974934750e-04	7.789683242e-12
-2.200000000e-02	1.340110886e-01	-1.961330224e-04	5.870459891e-11
-2.210000000e-02	1.340110876e-01	-1.947725698e-04	1.908506691e-11
-2.220000000e-02	1.340110865e-01	-1.934121172e-04	3.182309118e-11
-2.230000000e-02	1.340110854e-01	-1.920516646e-04	1.949268502e-11
-2.240000000e-02	1.340110843e-01	-1.906912120e-04	1.320878055e-11
-2.250000000e-02	1.340110831e-01	-1.893307593e-04	1.807081275e-11
-2.260000000e-02	1.340110818e-01	-1.879703067e-04	1.559677936e-11
-2.270000000e-02	1.340110806e-01	-1.866098540e-04	1.780022427e-11
-2.280000000e-02	1.340110793e-01	-1.852494013e-04	1.452799155e-11
-2.290000000e-02	1.340110779e-01	-1.838889486e-04	2.863483146e-11
-2.300000000e-02	1.340110765e-01	-1.825284959e-04	1.316746274e-11
-2.310000000e-02	1.340110751e-01	-1.811680432e-04	2.146714525e-11
-2.320000000e-02	1.340110736e-01	-1.798075905e-04	1.058820848e-11
-2.330000000e-02	1.340110721e-01	-1.784471378e-04	3.310121887e-11
-2.340000000e-02	1.340110705e-01	-1.770866851e-04	1.121300288e-11
-2.350000000e-02	1.340110689e-01	-1.757262324e-04	1.312977724e-11
-2.360000000e-02	1.340110673e-01	-1.743657797e-04	9.169916404e-12
-2.370000000e-02	1.340110656e-01	-1.730053270e-04	4.174492669e-11
-2.380000000e-02	1.340110639e-01	-1.716448743e-04	7.291684947e-12
-2.390000000e-02	1.340110621e-01	-1.702844217e-04	8.147554186e-12
-2.400000000e-02	1.340110603e-01	-1.689239690e-04	1.329253812e-11
-2.410000000e-02	1.340110585e-01	-1.675635164e-04	1.638624178e-11
-2.420000000e-02	1.340110566e-01	-1.662030638e-04	3.680779054e-11
-2.430000000e-02	1.340110546e-01	-1.648426112e-04	6.503779027e-12
-2.440000000e-02	1.340110527e-01	-1.634821586e-04	1.185225343e-11
-2.450000000e-02	1.340110506e-01	-1.621217061e-04	1.310795813e-11
-2.460000000e-02	1.340110486e-01	-1.607612536e-04	8.535314088e-12
-2.470000000e-02	1.340110465e-01	-1.594008011e-04	1.325669940e-11
-2.480000000e-02	1.340110444e-01	-1.580403487e-04	1.032370444e-11
-2.490000000e-02	1.340110422e-01	-1.566798962e-04	1.537316107e-11
-2.500000000e-02	1.340110400e-01	-1.553194439e-04	1.076350524e-11
-2.510000000e-02	1.340110377e-01	-1.539589915e-04	8.976848152e-12
-2.520000000e-02	1.340110354e-01	-1.525985392e-04	1.631348917e-11
-2.530000000e-02	1.340110330e-01	-1.512380870e-04	1.150729617e-11
-2.540000000e-02	1.340110307e-01	-1.498776347e-04	1.095451654e-11
-2.550000000e-02	1.340110282e-01	-1.485171826e-04	2.626316044e-11
-2.560000000e-02	1.340110258e-01	-1.471567305e-04	8.652179904e-12
-2.570000000e-02	1.340110233e-01	-1.457962784e-04	2.237014451e-11
-2.580000000e-02	1.340110207e-01	-1.444358264e-04	2.089428900e-11
-2.590000000e-02	1.340110181e-01	-1.430753744e-04	8.708771766e-12
-2.600000000e-02	1.340110155e-01	-1.417149225e-04	2.010853201e-11
-2.610000000e-02	1.340110128e-01	-1.403544707e-04	3.684621468e-12
-2.620000000e-02	1.340110101e-01	-1.389940189e-04	1.095602411e-11
-2.630000000e-02	1.340110073e-01	-1.376335672e-04	8.930159257e-12
-2.640000000e-02	1.340110045e-01	-1.362731155e-04	8.504025791e-12
-2.650000000e-02	1.340110017e-01	-1.349126639e-04	5.894394150e-12
-2.660000000e-02	1.340109988e-01	-1.335522124e-04	1.103145398e-11
-2.670000000e-02	1.340109959e-01	-1.321917610e-04	1.028659718e-11
-2.680000000e-02	1.340109929e-01	-1.308313096e-04	1.497584765e-11
-2.690000000e-02	1.340109899e-01	-1.294708583e-04	3.480988070e-11
-2.700000000e-02	1.340109869e-01	-1.281104071e-04	1.164061801e-11
-2.710000000e-02	1.340109838e-01	-1.267499559e-04	1.194585413e-11
-2.720000000e-02	1.340109807e-01	-1.253895049e-04	7.926435950e-12
-2.730000000e-02	1.340109775e-01	-1.240290539e-04	6.463700292e-12
-2.740000000e-02	1.340109743e-01	-1.226686030e-04	1.231925106e-11
-2.750000000e-02	1.340109710e-01	-1.213081522e-04	1.392492490e-11
-2.760000000e-02	1.340109677e-01	-1.199477015e-04	8.474998015e-12
-2.770000000e-02	1.340109644e-01	-1.185872509e-04	2.414709050e-11
-2.780000000e-02	1.340109610e-01	-1.172268004e-04	1.372749019e-11
-2.790000000e-02	1.340109576e-01	-1.158663499e-04	1.188162278e-11
-2.800000000e-02	1.340109541e-01	-1.145058996e-04	6.561597885e-12
-2.810000000e-02	1.340109506e-01	-1.131454494e-04	8.065141926e-12
-2.820000000e-02	1.340109471e-01	-1.117849993e-04	1.175564708e-11
-2.830000000e-02	1.340109435e-01	-1.104245492e-04	2.406007398e-11
-2.840000000e-02	1.340109399e-01	-1.090640993e-04	2.142920492e-11
-2.850000000e-02	1.340109362e-01	-1.077036495e-04	1.342159393e-11
-2.860000000e-02	1.340109325e-01	-1.063431998e-04	1.652287351e-11
-2.870000000e-02	1.340109288e-01	-1.049827503e-04	7.531510059e-12
-2.880000000e-02	1.340109250e-01	-1.036223008e-04	6.982982070e-11
-2.890000000e-02	1.340109211e-01	-1.022618514e-04	9.799277647e-12
-2.900000000e-02	1.340109173e-01	-1.009014022e-04	4.609288591e-11
-2.910000000e-02	1.340109133e-01	-9.954095311e-05	1.820459328e-11
-2.920000000e-02	1.340109094e-01	-9.818050413e-05	1.889223613e-11
-2.930000000e-02	1.340109054e-01	-9.682005527e-05	2.075034002e-11
-2.940000000e-02	1.340109014e-01	-9.545960655e-05	2.370119474e-11
-2.950000000e-02	1.340108973e-01	-9.409915794e-05	4.135038718e-11
-2.960000000e-02	1.340108932e-01	-9.273870948e-05	1.261039247e-11
-2.970000000e-02	1.340108890e-01	-9.137826115e-05	2.167758141e-11
-2.980000000e-02	1.340108848e-01	-9.001781295e-05	5.669884181e-12
-2.990000000e-02	1.340108805e-01	-8.865736489e-05	1.588444826e-11
-3.000000000e-02	1.340108763e-01	-8.729691698e-05	1.278058165e-11
