# Im(epsi1)     Re(omega/c)      Im(omega/c)      Eq(det).Opt det CON kz, R=0.5 \mum, mu_c=0.3, Re(epsi1)=3.90solve_det_conkz_vs_kz.py
0.000000000e+00	1.340115154e-01	-5.016277459e-04	1.348959610e-11
-1.000000000e-04	1.340115236e-01	-5.002675365e-04	1.449050081e-11
-2.000000000e-04	1.340115318e-01	-4.989073267e-04	1.219950623e-11
-3.000000000e-04	1.340115400e-01	-4.975471163e-04	8.020796826e-12
-4.000000000e-04	1.340115481e-01	-4.961869055e-04	2.161663546e-11
-5.000000000e-04	1.340115562e-01	-4.948266941e-04	9.452408057e-12
-6.000000000e-04	1.340115643e-01	-4.934664823e-04	2.833434913e-11
-7.000000000e-04	1.340115723e-01	-4.921062700e-04	9.180604201e-12
-8.000000000e-04	1.340115802e-01	-4.907460573e-04	2.761022508e-11
-9.000000000e-04	1.340115882e-01	-4.893858440e-04	1.600099057e-11
-1.000000000e-03	1.340115961e-01	-4.880256303e-04	1.018366297e-11
-1.100000000e-03	1.340116039e-01	-4.866654161e-04	1.755135959e-11
-1.200000000e-03	1.340116117e-01	-4.853052014e-04	4.000623689e-11
-1.300000000e-03	1.340116195e-01	-4.839449863e-04	6.215579078e-11
-1.400000000e-03	1.340116272e-01	-4.825847707e-04	1.491420923e-11
-1.500000000e-03	1.340116349e-01	-4.812245547e-04	1.463777557e-11
-1.600000000e-03	1.340116425e-01	-4.798643381e-04	1.395716436e-11
-1.700000000e-03	1.340116501e-01	-4.785041212e-04	1.414069915e-11
-1.800000000e-03	1.340116576e-01	-4.771439037e-04	4.694013461e-11
-1.900000000e-03	1.340116652e-01	-4.757836858e-04	1.919900548e-11
-2.000000000e-03	1.340116726e-01	-4.744234675e-04	2.599175017e-11
-2.100000000e-03	1.340116801e-01	-4.730632487e-04	4.602856398e-11
-2.200000000e-03	1.340116874e-01	-4.717030294e-04	2.891876617e-11
-2.300000000e-03	1.340116948e-01	-4.703428097e-04	2.811101285e-11
-2.400000000e-03	1.340117021e-01	-4.689825896e-04	8.211516123e-12
-2.500000000e-03	1.340117094e-01	-4.676223690e-04	9.134902087e-12
-2.600000000e-03	1.340117166e-01	-4.662621480e-04	1.452971044e-11
-2.700000000e-03	1.340117238e-01	-4.649019265e-04	6.634530908e-12
-2.800000000e-03	1.340117309e-01	-4.635417046e-04	1.237029481e-11
-2.900000000e-03	1.340117380e-01	-4.621814823e-04	1.406350906e-11
-3.000000000e-03	1.340117451e-01	-4.608212595e-04	3.807820806e-11
-3.100000000e-03	1.340117521e-01	-4.594610363e-04	1.067676079e-11
-3.200000000e-03	1.340117591e-01	-4.581008127e-04	7.386681348e-12
-3.300000000e-03	1.340117660e-01	-4.567405887e-04	3.608672761e-12
-3.400000000e-03	1.340117729e-01	-4.553803642e-04	1.894307238e-11
-3.500000000e-03	1.340117797e-01	-4.540201393e-04	8.580200725e-12
-3.600000000e-03	1.340117866e-01	-4.526599140e-04	6.300156818e-12
-3.700000000e-03	1.340117933e-01	-4.512996882e-04	2.097188126e-11
-3.800000000e-03	1.340118000e-01	-4.499394621e-04	1.345100994e-11
-3.900000000e-03	1.340118067e-01	-4.485792355e-04	9.038932417e-12
-4.000000000e-03	1.340118134e-01	-4.472190086e-04	3.621928367e-11
-4.100000000e-03	1.340118200e-01	-4.458587812e-04	1.845914647e-11
-4.200000000e-03	1.340118265e-01	-4.444985534e-04	1.140698349e-11
-4.300000000e-03	1.340118331e-01	-4.431383252e-04	2.048564141e-11
-4.400000000e-03	1.340118395e-01	-4.417780966e-04	6.710720198e-12
-4.500000000e-03	1.340118460e-01	-4.404178676e-04	2.175793140e-11
-4.600000000e-03	1.340118524e-01	-4.390576382e-04	2.663194566e-11
-4.700000000e-03	1.340118587e-01	-4.376974084e-04	2.731846936e-11
-4.800000000e-03	1.340118651e-01	-4.363371782e-04	1.470924330e-11
-4.900000000e-03	1.340118713e-01	-4.349769476e-04	1.814511912e-11
-5.000000000e-03	1.340118776e-01	-4.336167166e-04	3.987175199e-11
-5.100000000e-03	1.340118838e-01	-4.322564853e-04	1.803262407e-11
-5.200000000e-03	1.340118899e-01	-4.308962535e-04	8.502528121e-12
-5.300000000e-03	1.340118960e-01	-4.295360214e-04	1.221467621e-11
-5.400000000e-03	1.340119021e-01	-4.281757889e-04	1.705159586e-11
-5.500000000e-03	1.340119081e-01	-4.268155560e-04	1.248063319e-11
-5.600000000e-03	1.340119141e-01	-4.254553227e-04	4.646894522e-11
-5.700000000e-03	1.340119200e-01	-4.240950890e-04	9.893984376e-12
-5.800000000e-03	1.340119259e-01	-4.227348550e-04	2.401988966e-11
-5.900000000e-03	1.340119318e-01	-4.213746206e-04	1.027888350e-11
-6.000000000e-03	1.340119376e-01	-4.200143858e-04	3.395597449e-11
-6.100000000e-03	1.340119434e-01	-4.186541507e-04	1.145624173e-11
-6.200000000e-03	1.340119491e-01	-4.172939152e-04	1.051488220e-11
-6.300000000e-03	1.340119548e-01	-4.159336793e-04	2.483311658e-11
-6.400000000e-03	1.340119605e-01	-4.145734431e-04	7.437013729e-12
-6.500000000e-03	1.340119661e-01	-4.132132065e-04	3.472077422e-11
-6.600000000e-03	1.340119717e-01	-4.118529696e-04	2.549904537e-11
-6.700000000e-03	1.340119772e-01	-4.104927323e-04	5.210122390e-12
-6.800000000e-03	1.340119827e-01	-4.091324946e-04	2.375212598e-11
-6.900000000e-03	1.340119881e-01	-4.077722566e-04	1.592868356e-11
-7.000000000e-03	1.340119935e-01	-4.064120183e-04	9.380173089e-12
-7.100000000e-03	1.340119989e-01	-4.050517796e-04	7.527566462e-12
-7.200000000e-03	1.340120042e-01	-4.036915405e-04	9.936906670e-12
-7.300000000e-03	1.340120095e-01	-4.023313011e-04	1.874116971e-11
-7.400000000e-03	1.340120147e-01	-4.009710614e-04	7.416740570e-12
-7.500000000e-03	1.340120199e-01	-3.996108213e-04	1.083455215e-11
-7.600000000e-03	1.340120251e-01	-3.982505809e-04	2.611219540e-11
-7.700000000e-03	1.340120302e-01	-3.968903402e-04	7.619546166e-12
-7.800000000e-03	1.340120353e-01	-3.955300991e-04	8.155841338e-12
-7.900000000e-03	1.340120403e-01	-3.941698577e-04	1.044221046e-11
-8.000000000e-03	1.340120453e-01	-3.928096160e-04	9.490623254e-12
-8.100000000e-03	1.340120503e-01	-3.914493739e-04	2.799360356e-11
-8.200000000e-03	1.340120552e-01	-3.900891316e-04	1.321379826e-11
-8.300000000e-03	1.340120601e-01	-3.887288889e-04	4.294229142e-11
-8.400000000e-03	1.340120649e-01	-3.873686458e-04	1.142895002e-11
-8.500000000e-03	1.340120697e-01	-3.860084025e-04	1.563016976e-11
-8.600000000e-03	1.340120744e-01	-3.846481589e-04	7.341025353e-12
-8.700000000e-03	1.340120791e-01	-3.832879149e-04	1.112632092e-11
-8.800000000e-03	1.340120838e-01	-3.819276706e-04	1.469644495e-11
-8.900000000e-03	1.340120884e-01	-3.805674260e-04	4.089056999e-11
-9.000000000e-03	1.340120930e-01	-3.792071811e-04	6.939824918e-12
-9.100000000e-03	1.340120975e-01	-3.778469359e-04	3.552333942e-11
-9.200000000e-03	1.340121020e-01	-3.764866904e-04	1.023702355e-11
-9.300000000e-03	1.340121065e-01	-3.751264446e-04	1.622834161e-11
-9.400000000e-03	1.340121109e-01	-3.737661985e-04	2.129172242e-11
-9.500000000e-03	1.340121153e-01	-3.724059521e-04	1.428709965e-11
-9.600000000e-03	1.340121196e-01	-3.710457054e-04	1.126233393e-11
-9.700000000e-03	1.340121239e-01	-3.696854584e-04	1.039896012e-11
-9.800000000e-03	1.340121281e-01	-3.683252111e-04	1.131492708e-11
-9.900000000e-03	1.340121323e-01	-3.669649636e-04	5.615819351e-12
-1.000000000e-02	1.340121365e-01	-3.656047157e-04	5.475010235e-12
-1.010000000e-02	1.340121406e-01	-3.642444676e-04	1.494746852e-11
-1.020000000e-02	1.340121447e-01	-3.628842192e-04	9.141884511e-12
-1.030000000e-02	1.340121488e-01	-3.615239705e-04	2.661539290e-11
-1.040000000e-02	1.340121528e-01	-3.601637215e-04	9.887645720e-12
-1.050000000e-02	1.340121567e-01	-3.588034722e-04	1.528190832e-11
-1.060000000e-02	1.340121606e-01	-3.574432227e-04	1.505491112e-11
-1.070000000e-02	1.340121645e-01	-3.560829729e-04	1.005492109e-11
-1.080000000e-02	1.340121684e-01	-3.547227228e-04	1.111571850e-11
-1.090000000e-02	1.340121722e-01	-3.533624725e-04	1.341583769e-11
-1.100000000e-02	1.340121759e-01	-3.520022219e-04	3.075669251e-11
-1.110000000e-02	1.340121796e-01	-3.506419710e-04	4.633776486e-11
-1.120000000e-02	1.340121833e-01	-3.492817199e-04	7.277253670e-12
-1.130000000e-02	1.340121869e-01	-3.479214685e-04	1.294847156e-11
-1.140000000e-02	1.340121905e-01	-3.465612168e-04	5.252420231e-12
-1.150000000e-02	1.340121941e-01	-3.452009649e-04	2.200718760e-11
-1.160000000e-02	1.340121976e-01	-3.438407128e-04	2.045427609e-11
-1.170000000e-02	1.340122010e-01	-3.424804604e-04	1.099994845e-11
-1.180000000e-02	1.340122045e-01	-3.411202077e-04	2.036096496e-11
-1.190000000e-02	1.340122078e-01	-3.397599548e-04	1.854079761e-11
-1.200000000e-02	1.340122112e-01	-3.383997017e-04	1.618237394e-11
-1.210000000e-02	1.340122145e-01	-3.370394483e-04	4.905312036e-11
-1.220000000e-02	1.340122177e-01	-3.356791946e-04	1.060624060e-11
-1.230000000e-02	1.340122209e-01	-3.343189408e-04	3.562008384e-11
-1.240000000e-02	1.340122241e-01	-3.329586867e-04	6.906459390e-11
-1.250000000e-02	1.340122273e-01	-3.315984323e-04	1.755331773e-11
-1.260000000e-02	1.340122304e-01	-3.302381778e-04	3.546849212e-11
-1.270000000e-02	1.340122334e-01	-3.288779230e-04	2.417560689e-11
-1.280000000e-02	1.340122364e-01	-3.275176679e-04	1.476862846e-11
-1.290000000e-02	1.340122394e-01	-3.261574127e-04	8.781476766e-12
-1.300000000e-02	1.340122423e-01	-3.247971572e-04	9.323567908e-12
-1.310000000e-02	1.340122452e-01	-3.234369015e-04	1.484412997e-11
-1.320000000e-02	1.340122480e-01	-3.220766456e-04	1.686881474e-11
-1.330000000e-02	1.340122508e-01	-3.207163894e-04	8.596663368e-12
-1.340000000e-02	1.340122536e-01	-3.193561331e-04	4.568993539e-11
-1.350000000e-02	1.340122563e-01	-3.179958765e-04	1.264902109e-11
-1.360000000e-02	1.340122590e-01	-3.166356197e-04	1.466747634e-11
-1.370000000e-02	1.340122616e-01	-3.152753627e-04	1.543100673e-11
-1.380000000e-02	1.340122642e-01	-3.139151055e-04	1.350477483e-11
-1.390000000e-02	1.340122668e-01	-3.125548481e-04	1.164242353e-11
-1.400000000e-02	1.340122693e-01	-3.111945905e-04	1.559274961e-11
-1.410000000e-02	1.340122718e-01	-3.098343327e-04	1.134123560e-11
-1.420000000e-02	1.340122742e-01	-3.084740747e-04	1.055325166e-11
-1.430000000e-02	1.340122766e-01	-3.071138165e-04	1.799339604e-11
-1.440000000e-02	1.340122790e-01	-3.057535581e-04	1.363024524e-11
-1.450000000e-02	1.340122813e-01	-3.043932995e-04	3.739667516e-11
-1.460000000e-02	1.340122835e-01	-3.030330408e-04	9.623597144e-12
-1.470000000e-02	1.340122858e-01	-3.016727818e-04	1.130986729e-11
-1.480000000e-02	1.340122879e-01	-3.003125226e-04	1.747114640e-11
-1.490000000e-02	1.340122901e-01	-2.989522633e-04	4.361801886e-11
-1.500000000e-02	1.340122922e-01	-2.975920038e-04	1.022923219e-11
-1.510000000e-02	1.340122943e-01	-2.962317441e-04	1.153578613e-11
-1.520000000e-02	1.340122963e-01	-2.948714842e-04	1.094264554e-11
-1.530000000e-02	1.340122983e-01	-2.935112241e-04	1.557636812e-11
-1.540000000e-02	1.340123002e-01	-2.921509639e-04	7.149377909e-12
-1.550000000e-02	1.340123021e-01	-2.907907035e-04	1.909978912e-11
-1.560000000e-02	1.340123039e-01	-2.894304429e-04	6.831738751e-12
-1.570000000e-02	1.340123057e-01	-2.880701822e-04	1.077677763e-11
-1.580000000e-02	1.340123075e-01	-2.867099213e-04	9.387338631e-12
-1.590000000e-02	1.340123093e-01	-2.853496602e-04	5.942127184e-11
-1.600000000e-02	1.340123109e-01	-2.839893990e-04	1.624318160e-11
-1.610000000e-02	1.340123126e-01	-2.826291376e-04	7.931734973e-12
-1.620000000e-02	1.340123142e-01	-2.812688761e-04	1.642147766e-11
-1.630000000e-02	1.340123158e-01	-2.799086144e-04	1.588035952e-11
-1.640000000e-02	1.340123173e-01	-2.785483525e-04	1.688185743e-11
-1.650000000e-02	1.340123188e-01	-2.771880905e-04	1.472643906e-11
-1.660000000e-02	1.340123202e-01	-2.758278283e-04	8.297515927e-12
-1.670000000e-02	1.340123216e-01	-2.744675661e-04	1.050722235e-10
-1.680000000e-02	1.340123230e-01	-2.731073036e-04	7.974380803e-12
-1.690000000e-02	1.340123243e-01	-2.717470410e-04	1.216544495e-11
-1.700000000e-02	1.340123256e-01	-2.703867783e-04	1.257902797e-11
-1.710000000e-02	1.340123268e-01	-2.690265154e-04	3.579245359e-11
-1.720000000e-02	1.340123280e-01	-2.676662524e-04	8.186919403e-12
-1.730000000e-02	1.340123291e-01	-2.663059893e-04	1.237316102e-11
-1.740000000e-02	1.340123302e-01	-2.649457260e-04	9.765456249e-12
-1.750000000e-02	1.340123313e-01	-2.635854626e-04	1.121404566e-11
-1.760000000e-02	1.340123323e-01	-2.622251991e-04	4.502951639e-11
-1.770000000e-02	1.340123333e-01	-2.608649354e-04	7.590963472e-12
-1.780000000e-02	1.340123343e-01	-2.595046716e-04	7.594593325e-12
-1.790000000e-02	1.340123352e-01	-2.581444077e-04	9.697272786e-12
-1.800000000e-02	1.340123360e-01	-2.567841437e-04	2.065401681e-11
-1.810000000e-02	1.340123369e-01	-2.554238796e-04	6.360758498e-12
-1.820000000e-02	1.340123376e-01	-2.540636153e-04	1.947654004e-11
-1.830000000e-02	1.340123384e-01	-2.527033510e-04	1.145400678e-11
-1.840000000e-02	1.340123391e-01	-2.513430865e-04	1.824860144e-11
-1.850000000e-02	1.340123397e-01	-2.499828219e-04	1.468942000e-11
-1.860000000e-02	1.340123403e-01	-2.486225572e-04	1.988212514e-11
-1.870000000e-02	1.340123409e-01	-2.472622924e-04	1.979334034e-11
-1.880000000e-02	1.340123415e-01	-2.459020275e-04	7.340156241e-12
-1.890000000e-02	1.340123419e-01	-2.445417625e-04	1.163643591e-11
-1.900000000e-02	1.340123424e-01	-2.431814974e-04	1.040314967e-11
-1.910000000e-02	1.340123428e-01	-2.418212322e-04	2.734612054e-11
-1.920000000e-02	1.340123432e-01	-2.404609669e-04	8.258958720e-12
-1.930000000e-02	1.340123435e-01	-2.391007015e-04	8.164308145e-12
-1.940000000e-02	1.340123438e-01	-2.377404361e-04	2.382314472e-11
-1.950000000e-02	1.340123440e-01	-2.363801705e-04	7.582117668e-11
-1.960000000e-02	1.340123442e-01	-2.350199048e-04	7.550715880e-12
-1.970000000e-02	1.340123444e-01	-2.336596391e-04	7.828597155e-12
-1.980000000e-02	1.340123445e-01	-2.322993733e-04	7.805375435e-12
-1.990000000e-02	1.340123446e-01	-2.309391074e-04	1.208612486e-11
-2.000000000e-02	1.340123446e-01	-2.295788414e-04	2.139205364e-11
-2.010000000e-02	1.340123446e-01	-2.282185754e-04	1.694443724e-11
-2.020000000e-02	1.340123446e-01	-2.268583092e-04	1.220409919e-11
-2.030000000e-02	1.340123445e-01	-2.254980430e-04	1.554406321e-11
-2.040000000e-02	1.340123443e-01	-2.241377768e-04	1.290290257e-11
-2.050000000e-02	1.340123442e-01	-2.227775104e-04	5.598421655e-11
-2.060000000e-02	1.340123440e-01	-2.214172440e-04	2.228688970e-11
-2.070000000e-02	1.340123437e-01	-2.200569776e-04	2.196453828e-11
-2.080000000e-02	1.340123434e-01	-2.186967111e-04	1.876402486e-11
-2.090000000e-02	1.340123431e-01	-2.173364445e-04	8.815317781e-12
-2.100000000e-02	1.340123427e-01	-2.159761778e-04	1.329211623e-11
-2.110000000e-02	1.340123423e-01	-2.146159111e-04	1.379524154e-11
-2.120000000e-02	1.340123418e-01	-2.132556444e-04	9.580155460e-12
-2.130000000e-02	1.340123413e-01	-2.118953776e-04	2.265382600e-11
-2.140000000e-02	1.340123408e-01	-2.105351107e-04	5.786698432e-12
-2.150000000e-02	1.340123402e-01	-2.091748438e-04	8.099919901e-12
-2.160000000e-02	1.340123396e-01	-2.078145769e-04	5.837613292e-12
-2.170000000e-02	1.340123389e-01	-2.064543099e-04	8.322974120e-12
-2.180000000e-02	1.340123382e-01	-2.050940429e-04	4.030199820e-11
-2.190000000e-02	1.340123375e-01	-2.037337758e-04	1.445909870e-11
-2.200000000e-02	1.340123367e-01	-2.023735087e-04	9.986116248e-12
-2.210000000e-02	1.340123358e-01	-2.010132416e-04	1.188780213e-11
-2.220000000e-02	1.340123350e-01	-1.996529744e-04	1.861351303e-11
-2.230000000e-02	1.340123341e-01	-1.982927073e-04	4.799164855e-11
-2.240000000e-02	1.340123331e-01	-1.969324400e-04	1.201593651e-11
-2.250000000e-02	1.340123321e-01	-1.955721728e-04	1.010734436e-11
-2.260000000e-02	1.340123311e-01	-1.942119055e-04	1.027355248e-11
-2.270000000e-02	1.340123300e-01	-1.928516382e-04	3.671116881e-11
-2.280000000e-02	1.340123289e-01	-1.914913709e-04	3.106339275e-11
-2.290000000e-02	1.340123277e-01	-1.901311036e-04	3.405110432e-11
-2.300000000e-02	1.340123265e-01	-1.887708362e-04	1.725693631e-11
-2.310000000e-02	1.340123253e-01	-1.874105689e-04	3.616332262e-11
-2.320000000e-02	1.340123240e-01	-1.860503015e-04	1.622570120e-11
-2.330000000e-02	1.340123226e-01	-1.846900341e-04	3.597120306e-11
-2.340000000e-02	1.340123213e-01	-1.833297667e-04	1.133243803e-11
-2.350000000e-02	1.340123199e-01	-1.819694994e-04	6.944638289e-12
-2.360000000e-02	1.340123184e-01	-1.806092320e-04	1.149818790e-11
-2.370000000e-02	1.340123169e-01	-1.792489646e-04	4.769366082e-11
-2.380000000e-02	1.340123154e-01	-1.778886972e-04	4.794103792e-11
-2.390000000e-02	1.340123138e-01	-1.765284298e-04	2.630480590e-11
-2.400000000e-02	1.340123122e-01	-1.751681624e-04	1.255086735e-11
-2.410000000e-02	1.340123105e-01	-1.738078950e-04	6.598246557e-12
-2.420000000e-02	1.340123088e-01	-1.724476276e-04	2.314174084e-11
-2.430000000e-02	1.340123071e-01	-1.710873603e-04	2.407106373e-11
-2.440000000e-02	1.340123053e-01	-1.697270930e-04	2.423399041e-11
-2.450000000e-02	1.340123035e-01	-1.683668256e-04	7.781984571e-12
-2.460000000e-02	1.340123016e-01	-1.670065583e-04	1.594025503e-11
-2.470000000e-02	1.340122997e-01	-1.656462910e-04	4.946426142e-12
-2.480000000e-02	1.340122978e-01	-1.642860238e-04	1.092062474e-11
-2.490000000e-02	1.340122958e-01	-1.629257565e-04	7.338545195e-12
-2.500000000e-02	1.340122938e-01	-1.615654893e-04	1.692933632e-11
-2.510000000e-02	1.340122917e-01	-1.602052221e-04	8.556530710e-12
-2.520000000e-02	1.340122896e-01	-1.588449550e-04	6.862258219e-12
-2.530000000e-02	1.340122874e-01	-1.574846878e-04	6.220438873e-11
-2.540000000e-02	1.340122852e-01	-1.561244207e-04	1.040267511e-11
-2.550000000e-02	1.340122830e-01	-1.547641537e-04	1.455596144e-11
-2.560000000e-02	1.340122807e-01	-1.534038867e-04	9.697153454e-12
-2.570000000e-02	1.340122784e-01	-1.520436197e-04	4.629043440e-11
-2.580000000e-02	1.340122761e-01	-1.506833528e-04	1.231753404e-11
-2.590000000e-02	1.340122737e-01	-1.493230859e-04	7.959949620e-12
-2.600000000e-02	1.340122712e-01	-1.479628190e-04	1.276729344e-10
-2.610000000e-02	1.340122687e-01	-1.466025523e-04	1.406215183e-11
-2.620000000e-02	1.340122662e-01	-1.452422855e-04	8.980840513e-12
-2.630000000e-02	1.340122636e-01	-1.438820188e-04	1.992345351e-11
-2.640000000e-02	1.340122610e-01	-1.425217522e-04	1.428265347e-11
-2.650000000e-02	1.340122584e-01	-1.411614856e-04	1.609695134e-11
-2.660000000e-02	1.340122557e-01	-1.398012191e-04	2.862607659e-11
-2.670000000e-02	1.340122530e-01	-1.384409527e-04	1.838824217e-11
-2.680000000e-02	1.340122502e-01	-1.370806863e-04	1.387511467e-11
-2.690000000e-02	1.340122474e-01	-1.357204200e-04	9.183069702e-12
-2.700000000e-02	1.340122445e-01	-1.343601537e-04	1.367574446e-11
-2.710000000e-02	1.340122416e-01	-1.329998875e-04	9.207941269e-12
-2.720000000e-02	1.340122387e-01	-1.316396214e-04	6.661355061e-12
-2.730000000e-02	1.340122357e-01	-1.302793554e-04	2.832189342e-11
-2.740000000e-02	1.340122327e-01	-1.289190894e-04	3.917765989e-11
-2.750000000e-02	1.340122296e-01	-1.275588235e-04	2.018937407e-11
-2.760000000e-02	1.340122265e-01	-1.261985577e-04	1.827517184e-11
-2.770000000e-02	1.340122234e-01	-1.248382920e-04	8.801054534e-12
-2.780000000e-02	1.340122202e-01	-1.234780264e-04	7.248664101e-12
-2.790000000e-02	1.340122170e-01	-1.221177608e-04	7.277769771e-12
-2.800000000e-02	1.340122137e-01	-1.207574954e-04	6.012653578e-12
-2.810000000e-02	1.340122104e-01	-1.193972300e-04	1.696788904e-11
-2.820000000e-02	1.340122070e-01	-1.180369647e-04	1.317597054e-11
-2.830000000e-02	1.340122036e-01	-1.166766996e-04	2.030282441e-11
-2.840000000e-02	1.340122002e-01	-1.153164345e-04	2.678469459e-11
-2.850000000e-02	1.340121967e-01	-1.139561695e-04	1.117244358e-11
-2.860000000e-02	1.340121932e-01	-1.125959046e-04	2.744946486e-11
-2.870000000e-02	1.340121897e-01	-1.112356398e-04	1.739819434e-11
-2.880000000e-02	1.340121861e-01	-1.098753752e-04	1.298814868e-11
-2.890000000e-02	1.340121824e-01	-1.085151106e-04	2.544564338e-11
-2.900000000e-02	1.340121787e-01	-1.071548461e-04	1.268798365e-11
-2.910000000e-02	1.340121750e-01	-1.057945818e-04	5.222627792e-12
-2.920000000e-02	1.340121713e-01	-1.044343176e-04	6.206818430e-12
-2.930000000e-02	1.340121675e-01	-1.030740534e-04	9.988896319e-12
-2.940000000e-02	1.340121636e-01	-1.017137895e-04	1.952257098e-11
-2.950000000e-02	1.340121597e-01	-1.003535256e-04	2.275085721e-11
-2.960000000e-02	1.340121558e-01	-9.899326182e-05	9.073886913e-12
-2.970000000e-02	1.340121518e-01	-9.763299819e-05	1.142967310e-11
-2.980000000e-02	1.340121478e-01	-9.627273469e-05	8.771547586e-12
-2.990000000e-02	1.340121438e-01	-9.491247131e-05	6.933270941e-12
-3.000000000e-02	1.340121397e-01	-9.355220807e-05	1.466951109e-11
