# Im(epsi1)     Re(omega/c)      Im(omega/c)      Eq(det).Opt det CON kz, R=0.5 \mum, mu_c=0.3, Re(epsi1)=3.90solve_det_conkz_vs_kz.py
0.000000000e+00	1.340046373e-01	-5.354079228e-04	1.561882224e-11
-1.000000000e-04	1.340046466e-01	-5.340486029e-04	2.832115824e-11
-2.000000000e-04	1.340046558e-01	-5.326892824e-04	2.111278589e-11
-3.000000000e-04	1.340046650e-01	-5.313299614e-04	8.180377877e-12
-4.000000000e-04	1.340046741e-01	-5.299706399e-04	1.670508826e-11
-5.000000000e-04	1.340046832e-01	-5.286113178e-04	2.277157544e-11
-6.000000000e-04	1.340046923e-01	-5.272519952e-04	5.948671168e-12
-7.000000000e-04	1.340047013e-01	-5.258926721e-04	7.815662510e-12
-8.000000000e-04	1.340047103e-01	-5.245333485e-04	6.855944484e-12
-9.000000000e-04	1.340047192e-01	-5.231740243e-04	3.547484488e-11
-1.000000000e-03	1.340047281e-01	-5.218146995e-04	4.212935071e-11
-1.100000000e-03	1.340047370e-01	-5.204553743e-04	8.345916735e-11
-1.200000000e-03	1.340047458e-01	-5.190960486e-04	1.644869082e-11
-1.300000000e-03	1.340047546e-01	-5.177367223e-04	1.759483127e-11
-1.400000000e-03	1.340047633e-01	-5.163773955e-04	8.153647657e-12
-1.500000000e-03	1.340047720e-01	-5.150180682e-04	2.237483820e-11
-1.600000000e-03	1.340047807e-01	-5.136587403e-04	4.168355979e-11
-1.700000000e-03	1.340047893e-01	-5.122994120e-04	1.571666251e-11
-1.800000000e-03	1.340047978e-01	-5.109400832e-04	3.145957928e-11
-1.900000000e-03	1.340048064e-01	-5.095807538e-04	6.472781304e-12
-2.000000000e-03	1.340048149e-01	-5.082214239e-04	1.652657340e-11
-2.100000000e-03	1.340048233e-01	-5.068620936e-04	2.229494585e-11
-2.200000000e-03	1.340048317e-01	-5.055027627e-04	1.193388214e-11
-2.300000000e-03	1.340048401e-01	-5.041434313e-04	2.791944293e-11
-2.400000000e-03	1.340048484e-01	-5.027840995e-04	1.451852775e-11
-2.500000000e-03	1.340048567e-01	-5.014247671e-04	1.926500510e-11
-2.600000000e-03	1.340048649e-01	-5.000654343e-04	1.223485124e-11
-2.700000000e-03	1.340048731e-01	-4.987061009e-04	1.254483397e-11
-2.800000000e-03	1.340048813e-01	-4.973467671e-04	1.963069624e-11
-2.900000000e-03	1.340048894e-01	-4.959874328e-04	1.348691360e-11
-3.000000000e-03	1.340048974e-01	-4.946280980e-04	1.631991495e-11
-3.100000000e-03	1.340049055e-01	-4.932687627e-04	1.368711138e-11
-3.200000000e-03	1.340049135e-01	-4.919094270e-04	1.432446644e-11
-3.300000000e-03	1.340049214e-01	-4.905500907e-04	1.523690152e-11
-3.400000000e-03	1.340049293e-01	-4.891907540e-04	1.631591020e-11
-3.500000000e-03	1.340049372e-01	-4.878314168e-04	7.606205785e-12
-3.600000000e-03	1.340049450e-01	-4.864720792e-04	1.648297524e-11
-3.700000000e-03	1.340049528e-01	-4.851127410e-04	7.545792597e-12
-3.800000000e-03	1.340049605e-01	-4.837534024e-04	9.710890672e-12
-3.900000000e-03	1.340049682e-01	-4.823940634e-04	1.076898862e-11
-4.000000000e-03	1.340049759e-01	-4.810347238e-04	3.361006140e-11
-4.100000000e-03	1.340049835e-01	-4.796753839e-04	2.272749765e-11
-4.200000000e-03	1.340049911e-01	-4.783160434e-04	7.336279302e-12
-4.300000000e-03	1.340049986e-01	-4.769567025e-04	1.556794638e-11
-4.400000000e-03	1.340050061e-01	-4.755973611e-04	1.723639209e-11
-4.500000000e-03	1.340050136e-01	-4.742380193e-04	1.116525624e-11
-4.600000000e-03	1.340050210e-01	-4.728786771e-04	9.429085326e-12
-4.700000000e-03	1.340050284e-01	-4.715193343e-04	1.172900084e-11
-4.800000000e-03	1.340050357e-01	-4.701599912e-04	6.023158605e-12
-4.900000000e-03	1.340050430e-01	-4.688006476e-04	9.311635662e-12
-5.000000000e-03	1.340050502e-01	-4.674413035e-04	1.895651162e-11
-5.100000000e-03	1.340050575e-01	-4.660819590e-04	7.373232573e-12
-5.200000000e-03	1.340050646e-01	-4.647226141e-04	9.590427478e-12
-5.300000000e-03	1.340050717e-01	-4.633632687e-04	1.193448485e-11
-5.400000000e-03	1.340050788e-01	-4.620039229e-04	1.088994023e-11
-5.500000000e-03	1.340050859e-01	-4.606445767e-04	9.137292240e-12
-5.600000000e-03	1.340050929e-01	-4.592852300e-04	7.092889390e-11
-5.700000000e-03	1.340050998e-01	-4.579258829e-04	2.048820681e-11
-5.800000000e-03	1.340051067e-01	-4.565665354e-04	2.811162312e-11
-5.900000000e-03	1.340051136e-01	-4.552071875e-04	1.773286484e-11
-6.000000000e-03	1.340051205e-01	-4.538478391e-04	8.995892065e-12
-6.100000000e-03	1.340051273e-01	-4.524884903e-04	1.507029766e-11
-6.200000000e-03	1.340051340e-01	-4.511291411e-04	7.961128185e-12
-6.300000000e-03	1.340051407e-01	-4.497697915e-04	1.664867241e-11
-6.400000000e-03	1.340051474e-01	-4.484104415e-04	1.064823406e-11
-6.500000000e-03	1.340051540e-01	-4.470510910e-04	1.448686575e-11
-6.600000000e-03	1.340051606e-01	-4.456917402e-04	9.123688405e-12
-6.700000000e-03	1.340051672e-01	-4.443323889e-04	8.134476152e-12
-6.800000000e-03	1.340051737e-01	-4.429730373e-04	1.716547930e-11
-6.900000000e-03	1.340051801e-01	-4.416136852e-04	2.830168701e-11
-7.000000000e-03	1.340051866e-01	-4.402543327e-04	1.250307224e-11
-7.100000000e-03	1.340051929e-01	-4.388949799e-04	8.760161917e-12
-7.200000000e-03	1.340051993e-01	-4.375356266e-04	5.383558630e-12
-7.300000000e-03	1.340052056e-01	-4.361762729e-04	4.270928081e-11
-7.400000000e-03	1.340052118e-01	-4.348169189e-04	7.130372978e-12
-7.500000000e-03	1.340052181e-01	-4.334575644e-04	2.238765628e-11
-7.600000000e-03	1.340052242e-01	-4.320982096e-04	1.022956260e-11
-7.700000000e-03	1.340052304e-01	-4.307388544e-04	6.015147458e-12
-7.800000000e-03	1.340052365e-01	-4.293794988e-04	1.467359764e-11
-7.900000000e-03	1.340052425e-01	-4.280201428e-04	8.769956645e-12
-8.000000000e-03	1.340052485e-01	-4.266607864e-04	2.842249213e-11
-8.100000000e-03	1.340052545e-01	-4.253014297e-04	4.209980457e-11
-8.200000000e-03	1.340052604e-01	-4.239420726e-04	1.399968250e-11
-8.300000000e-03	1.340052663e-01	-4.225827151e-04	1.364263399e-11
-8.400000000e-03	1.340052722e-01	-4.212233572e-04	1.307442646e-11
-8.500000000e-03	1.340052780e-01	-4.198639990e-04	8.411389258e-12
-8.600000000e-03	1.340052837e-01	-4.185046403e-04	3.036493487e-11
-8.700000000e-03	1.340052895e-01	-4.171452814e-04	6.373068647e-12
-8.800000000e-03	1.340052951e-01	-4.157859220e-04	1.336736361e-11
-8.900000000e-03	1.340053008e-01	-4.144265623e-04	1.601732673e-11
-9.000000000e-03	1.340053064e-01	-4.130672023e-04	9.561748750e-12
-9.100000000e-03	1.340053119e-01	-4.117078419e-04	9.592793321e-12
-9.200000000e-03	1.340053175e-01	-4.103484811e-04	3.153543908e-11
-9.300000000e-03	1.340053229e-01	-4.089891200e-04	1.521159069e-11
-9.400000000e-03	1.340053284e-01	-4.076297585e-04	2.136732404e-11
-9.500000000e-03	1.340053338e-01	-4.062703967e-04	1.824076061e-11
-9.600000000e-03	1.340053391e-01	-4.049110345e-04	1.899323921e-11
-9.700000000e-03	1.340053444e-01	-4.035516720e-04	3.412330852e-11
-9.800000000e-03	1.340053497e-01	-4.021923091e-04	9.616666319e-12
-9.900000000e-03	1.340053549e-01	-4.008329459e-04	1.833751559e-11
-1.000000000e-02	1.340053601e-01	-3.994735824e-04	2.410659985e-11
-1.010000000e-02	1.340053652e-01	-3.981142185e-04	1.368281736e-11
-1.020000000e-02	1.340053704e-01	-3.967548543e-04	7.586057481e-12
-1.030000000e-02	1.340053754e-01	-3.953954898e-04	8.170413635e-12
-1.040000000e-02	1.340053804e-01	-3.940361249e-04	1.049643774e-11
-1.050000000e-02	1.340053854e-01	-3.926767597e-04	2.223360856e-11
-1.060000000e-02	1.340053904e-01	-3.913173942e-04	1.842337035e-11
-1.070000000e-02	1.340053953e-01	-3.899580283e-04	9.498544055e-12
-1.080000000e-02	1.340054001e-01	-3.885986621e-04	7.810625693e-12
-1.090000000e-02	1.340054049e-01	-3.872392956e-04	1.369288158e-11
-1.100000000e-02	1.340054097e-01	-3.858799288e-04	1.556432045e-11
-1.110000000e-02	1.340054144e-01	-3.845205617e-04	1.808192710e-11
-1.120000000e-02	1.340054191e-01	-3.831611943e-04	2.103805667e-11
-1.130000000e-02	1.340054238e-01	-3.818018265e-04	1.532829971e-11
-1.140000000e-02	1.340054284e-01	-3.804424584e-04	1.357853792e-11
-1.150000000e-02	1.340054330e-01	-3.790830901e-04	1.839781538e-11
-1.160000000e-02	1.340054375e-01	-3.777237214e-04	2.667398331e-11
-1.170000000e-02	1.340054420e-01	-3.763643524e-04	6.778911516e-12
-1.180000000e-02	1.340054464e-01	-3.750049831e-04	1.694864882e-11
-1.190000000e-02	1.340054508e-01	-3.736456135e-04	5.437163873e-12
-1.200000000e-02	1.340054552e-01	-3.722862437e-04	8.600477970e-12
-1.210000000e-02	1.340054595e-01	-3.709268735e-04	1.035784709e-11
-1.220000000e-02	1.340054638e-01	-3.695675030e-04	1.376915105e-11
-1.230000000e-02	1.340054680e-01	-3.682081323e-04	1.179483113e-11
-1.240000000e-02	1.340054722e-01	-3.668487612e-04	2.389667354e-11
-1.250000000e-02	1.340054764e-01	-3.654893899e-04	1.302914139e-11
-1.260000000e-02	1.340054805e-01	-3.641300183e-04	1.363903524e-11
-1.270000000e-02	1.340054846e-01	-3.627706464e-04	1.731571599e-11
-1.280000000e-02	1.340054886e-01	-3.614112742e-04	5.284230254e-11
-1.290000000e-02	1.340054926e-01	-3.600519017e-04	1.367039567e-11
-1.300000000e-02	1.340054965e-01	-3.586925290e-04	9.982622638e-12
-1.310000000e-02	1.340055004e-01	-3.573331560e-04	1.299532567e-11
-1.320000000e-02	1.340055043e-01	-3.559737827e-04	1.284944341e-11
-1.330000000e-02	1.340055081e-01	-3.546144092e-04	1.148064609e-11
-1.340000000e-02	1.340055119e-01	-3.532550353e-04	1.130137874e-11
-1.350000000e-02	1.340055157e-01	-3.518956613e-04	2.558102635e-11
-1.360000000e-02	1.340055194e-01	-3.505362869e-04	1.053942088e-11
-1.370000000e-02	1.340055230e-01	-3.491769123e-04	6.864625945e-12
-1.380000000e-02	1.340055266e-01	-3.478175374e-04	1.402300775e-11
-1.390000000e-02	1.340055302e-01	-3.464581623e-04	3.004310939e-11
-1.400000000e-02	1.340055338e-01	-3.450987869e-04	5.192400694e-11
-1.410000000e-02	1.340055373e-01	-3.437394113e-04	8.797837167e-12
-1.420000000e-02	1.340055407e-01	-3.423800354e-04	2.494473865e-11
-1.430000000e-02	1.340055441e-01	-3.410206592e-04	1.694353812e-11
-1.440000000e-02	1.340055475e-01	-3.396612829e-04	7.598907003e-12
-1.450000000e-02	1.340055508e-01	-3.383019062e-04	1.789167317e-11
-1.460000000e-02	1.340055541e-01	-3.369425294e-04	1.400846331e-11
-1.470000000e-02	1.340055574e-01	-3.355831522e-04	5.706312343e-12
-1.480000000e-02	1.340055606e-01	-3.342237749e-04	1.795867876e-11
-1.490000000e-02	1.340055637e-01	-3.328643973e-04	1.140212705e-11
-1.500000000e-02	1.340055669e-01	-3.315050195e-04	8.223928623e-12
-1.510000000e-02	1.340055700e-01	-3.301456414e-04	2.779633437e-11
-1.520000000e-02	1.340055730e-01	-3.287862631e-04	1.538280279e-11
-1.530000000e-02	1.340055760e-01	-3.274268846e-04	1.745622089e-11
-1.540000000e-02	1.340055790e-01	-3.260675059e-04	2.223587374e-11
-1.550000000e-02	1.340055819e-01	-3.247081269e-04	5.556963986e-12
-1.560000000e-02	1.340055848e-01	-3.233487477e-04	2.847391454e-11
-1.570000000e-02	1.340055876e-01	-3.219893683e-04	3.916117064e-11
-1.580000000e-02	1.340055904e-01	-3.206299887e-04	1.096338863e-11
-1.590000000e-02	1.340055931e-01	-3.192706088e-04	8.644354393e-12
-1.600000000e-02	1.340055959e-01	-3.179112288e-04	1.214195320e-11
-1.610000000e-02	1.340055985e-01	-3.165518485e-04	1.134289767e-11
-1.620000000e-02	1.340056012e-01	-3.151924680e-04	9.031177173e-12
-1.630000000e-02	1.340056037e-01	-3.138330873e-04	2.637667306e-11
-1.640000000e-02	1.340056063e-01	-3.124737064e-04	2.549557675e-11
-1.650000000e-02	1.340056088e-01	-3.111143253e-04	1.293690277e-10
-1.660000000e-02	1.340056113e-01	-3.097549440e-04	6.983924404e-12
-1.670000000e-02	1.340056137e-01	-3.083955625e-04	1.260736444e-11
-1.680000000e-02	1.340056161e-01	-3.070361808e-04	1.546210242e-11
-1.690000000e-02	1.340056184e-01	-3.056767989e-04	2.524556393e-11
-1.700000000e-02	1.340056207e-01	-3.043174169e-04	5.028787116e-12
-1.710000000e-02	1.340056230e-01	-3.029580346e-04	2.616916001e-11
-1.720000000e-02	1.340056252e-01	-3.015986521e-04	3.842855543e-11
-1.730000000e-02	1.340056274e-01	-3.002392695e-04	1.032185360e-11
-1.740000000e-02	1.340056295e-01	-2.988798866e-04	7.592040435e-12
-1.750000000e-02	1.340056316e-01	-2.975205036e-04	1.265882796e-11
-1.760000000e-02	1.340056337e-01	-2.961611204e-04	6.938235732e-12
-1.770000000e-02	1.340056357e-01	-2.948017370e-04	8.080221042e-12
-1.780000000e-02	1.340056376e-01	-2.934423535e-04	1.652636826e-11
-1.790000000e-02	1.340056396e-01	-2.920829698e-04	5.138550033e-11
-1.800000000e-02	1.340056414e-01	-2.907235859e-04	1.629984651e-11
-1.810000000e-02	1.340056433e-01	-2.893642018e-04	1.432108417e-11
-1.820000000e-02	1.340056451e-01	-2.880048175e-04	9.875321958e-12
-1.830000000e-02	1.340056469e-01	-2.866454331e-04	1.068377480e-11
-1.840000000e-02	1.340056486e-01	-2.852860486e-04	7.977380933e-12
-1.850000000e-02	1.340056503e-01	-2.839266638e-04	1.209464811e-11
-1.860000000e-02	1.340056519e-01	-2.825672790e-04	1.915919377e-11
-1.870000000e-02	1.340056535e-01	-2.812078939e-04	9.853556022e-12
-1.880000000e-02	1.340056551e-01	-2.798485087e-04	9.612479622e-12
-1.890000000e-02	1.340056566e-01	-2.784891233e-04	5.969038117e-12
-1.900000000e-02	1.340056581e-01	-2.771297378e-04	1.169617912e-11
-1.910000000e-02	1.340056595e-01	-2.757703522e-04	1.348218582e-11
-1.920000000e-02	1.340056609e-01	-2.744109664e-04	5.561350757e-12
-1.930000000e-02	1.340056622e-01	-2.730515804e-04	2.165178091e-11
-1.940000000e-02	1.340056636e-01	-2.716921943e-04	1.032880435e-11
-1.950000000e-02	1.340056648e-01	-2.703328081e-04	3.639888136e-11
-1.960000000e-02	1.340056660e-01	-2.689734217e-04	1.086892402e-11
-1.970000000e-02	1.340056672e-01	-2.676140352e-04	1.149774930e-11
-1.980000000e-02	1.340056684e-01	-2.662546486e-04	9.351363145e-12
-1.990000000e-02	1.340056695e-01	-2.648952618e-04	1.268811970e-11
-2.000000000e-02	1.340056706e-01	-2.635358749e-04	1.030578678e-11
-2.010000000e-02	1.340056716e-01	-2.621764878e-04	3.510473129e-11
-2.020000000e-02	1.340056726e-01	-2.608171007e-04	2.260417866e-11
-2.030000000e-02	1.340056735e-01	-2.594577134e-04	6.127774444e-12
-2.040000000e-02	1.340056744e-01	-2.580983260e-04	1.016560358e-11
-2.050000000e-02	1.340056752e-01	-2.567389384e-04	1.420651151e-11
-2.060000000e-02	1.340056761e-01	-2.553795508e-04	9.478000933e-12
-2.070000000e-02	1.340056768e-01	-2.540201630e-04	1.545246920e-11
-2.080000000e-02	1.340056776e-01	-2.526607751e-04	1.106310993e-11
-2.090000000e-02	1.340056783e-01	-2.513013871e-04	2.720265026e-11
-2.100000000e-02	1.340056789e-01	-2.499419990e-04	7.328897472e-12
-2.110000000e-02	1.340056795e-01	-2.485826108e-04	1.698527763e-11
-2.120000000e-02	1.340056801e-01	-2.472232225e-04	2.367825420e-11
-2.130000000e-02	1.340056806e-01	-2.458638341e-04	1.758255430e-11
-2.140000000e-02	1.340056811e-01	-2.445044456e-04	3.619810402e-11
-2.150000000e-02	1.340056816e-01	-2.431450569e-04	1.175703518e-11
-2.160000000e-02	1.340056820e-01	-2.417856682e-04	1.937426683e-11
-2.170000000e-02	1.340056823e-01	-2.404262794e-04	4.201377294e-11
-2.180000000e-02	1.340056826e-01	-2.390668905e-04	1.531534188e-11
-2.190000000e-02	1.340056829e-01	-2.377075015e-04	2.813277674e-11
-2.200000000e-02	1.340056832e-01	-2.363481124e-04	5.061900612e-12
-2.210000000e-02	1.340056834e-01	-2.349887233e-04	6.737848553e-12
-2.220000000e-02	1.340056835e-01	-2.336293340e-04	1.290170748e-11
-2.230000000e-02	1.340056836e-01	-2.322699446e-04	2.952833412e-11
-2.240000000e-02	1.340056837e-01	-2.309105552e-04	1.389873760e-11
-2.250000000e-02	1.340056837e-01	-2.295511657e-04	2.197428312e-11
-2.260000000e-02	1.340056837e-01	-2.281917761e-04	1.036804854e-11
-2.270000000e-02	1.340056837e-01	-2.268323865e-04	7.704215946e-12
-2.280000000e-02	1.340056836e-01	-2.254729968e-04	9.971696151e-12
-2.290000000e-02	1.340056834e-01	-2.241136070e-04	1.167121576e-11
-2.300000000e-02	1.340056833e-01	-2.227542171e-04	9.156099013e-12
-2.310000000e-02	1.340056831e-01	-2.213948272e-04	8.327077644e-12
-2.320000000e-02	1.340056828e-01	-2.200354372e-04	1.307639140e-10
-2.330000000e-02	1.340056825e-01	-2.186760471e-04	2.830393390e-11
-2.340000000e-02	1.340056822e-01	-2.173166570e-04	1.044823342e-11
-2.350000000e-02	1.340056818e-01	-2.159572668e-04	1.492839091e-11
-2.360000000e-02	1.340056814e-01	-2.145978766e-04	6.528487530e-12
-2.370000000e-02	1.340056809e-01	-2.132384863e-04	1.208174317e-11
-2.380000000e-02	1.340056804e-01	-2.118790960e-04	1.745648924e-11
-2.390000000e-02	1.340056799e-01	-2.105197056e-04	1.426507553e-11
-2.400000000e-02	1.340056793e-01	-2.091603152e-04	1.154434683e-11
-2.410000000e-02	1.340056786e-01	-2.078009247e-04	2.907310714e-11
-2.420000000e-02	1.340056780e-01	-2.064415342e-04	1.390592124e-11
-2.430000000e-02	1.340056773e-01	-2.050821436e-04	2.074665658e-11
-2.440000000e-02	1.340056765e-01	-2.037227530e-04	6.676285501e-12
-2.450000000e-02	1.340056757e-01	-2.023633624e-04	7.156161688e-11
-2.460000000e-02	1.340056749e-01	-2.010039717e-04	1.005227709e-11
-2.470000000e-02	1.340056740e-01	-1.996445810e-04	9.214623449e-12
-2.480000000e-02	1.340056731e-01	-1.982851903e-04	4.576745907e-11
-2.490000000e-02	1.340056721e-01	-1.969257995e-04	1.400252797e-11
-2.500000000e-02	1.340056711e-01	-1.955664087e-04	1.001243669e-11
-2.510000000e-02	1.340056701e-01	-1.942070179e-04	8.301384217e-12
-2.520000000e-02	1.340056690e-01	-1.928476271e-04	8.230815674e-12
-2.530000000e-02	1.340056679e-01	-1.914882362e-04	4.104233234e-11
-2.540000000e-02	1.340056667e-01	-1.901288453e-04	1.094452136e-11
-2.550000000e-02	1.340056655e-01	-1.887694544e-04	1.215420013e-11
-2.560000000e-02	1.340056643e-01	-1.874100635e-04	1.559546085e-11
-2.570000000e-02	1.340056630e-01	-1.860506726e-04	1.612769882e-11
-2.580000000e-02	1.340056617e-01	-1.846912817e-04	7.510593542e-12
-2.590000000e-02	1.340056603e-01	-1.833318907e-04	2.175090014e-11
-2.600000000e-02	1.340056589e-01	-1.819724998e-04	1.284721933e-11
-2.610000000e-02	1.340056574e-01	-1.806131089e-04	1.698797935e-11
-2.620000000e-02	1.340056559e-01	-1.792537179e-04	1.636847382e-11
-2.630000000e-02	1.340056544e-01	-1.778943270e-04	1.220769053e-11
-2.640000000e-02	1.340056528e-01	-1.765349360e-04	1.322092601e-11
-2.650000000e-02	1.340056512e-01	-1.751755451e-04	2.014128811e-11
-2.660000000e-02	1.340056495e-01	-1.738161541e-04	8.008913825e-12
-2.670000000e-02	1.340056479e-01	-1.724567632e-04	1.236927560e-11
-2.680000000e-02	1.340056461e-01	-1.710973723e-04	1.864125047e-11
-2.690000000e-02	1.340056443e-01	-1.697379814e-04	7.129954164e-12
-2.700000000e-02	1.340056425e-01	-1.683785905e-04	3.301808154e-11
-2.710000000e-02	1.340056406e-01	-1.670191996e-04	1.000981988e-11
-2.720000000e-02	1.340056387e-01	-1.656598088e-04	6.720116768e-12
-2.730000000e-02	1.340056368e-01	-1.643004180e-04	5.869757788e-12
-2.740000000e-02	1.340056348e-01	-1.629410271e-04	1.553600464e-11
-2.750000000e-02	1.340056328e-01	-1.615816364e-04	1.159929153e-11
-2.760000000e-02	1.340056307e-01	-1.602222456e-04	6.363969940e-12
-2.770000000e-02	1.340056286e-01	-1.588628549e-04	1.859629499e-11
-2.780000000e-02	1.340056264e-01	-1.575034642e-04	5.953344728e-12
-2.790000000e-02	1.340056242e-01	-1.561440735e-04	1.310047771e-11
-2.800000000e-02	1.340056220e-01	-1.547846829e-04	9.723708174e-12
-2.810000000e-02	1.340056197e-01	-1.534252923e-04	1.328014277e-11
-2.820000000e-02	1.340056174e-01	-1.520659018e-04	1.335851665e-11
-2.830000000e-02	1.340056150e-01	-1.507065113e-04	7.489946636e-12
-2.840000000e-02	1.340056126e-01	-1.493471208e-04	2.485984055e-11
-2.850000000e-02	1.340056102e-01	-1.479877304e-04	1.206818268e-11
-2.860000000e-02	1.340056077e-01	-1.466283400e-04	1.528734771e-11
-2.870000000e-02	1.340056052e-01	-1.452689497e-04	1.617811174e-11
-2.880000000e-02	1.340056026e-01	-1.439095595e-04	1.178596240e-11
-2.890000000e-02	1.340056000e-01	-1.425501693e-04	1.233936957e-11
-2.900000000e-02	1.340055974e-01	-1.411907791e-04	8.798591051e-12
-2.910000000e-02	1.340055947e-01	-1.398313890e-04	1.289870962e-11
-2.920000000e-02	1.340055920e-01	-1.384719990e-04	2.774082028e-11
-2.930000000e-02	1.340055892e-01	-1.371126090e-04	2.971834332e-11
-2.940000000e-02	1.340055864e-01	-1.357532191e-04	1.630789162e-11
-2.950000000e-02	1.340055835e-01	-1.343938293e-04	1.305756998e-11
-2.960000000e-02	1.340055806e-01	-1.330344395e-04	9.243384984e-12
-2.970000000e-02	1.340055777e-01	-1.316750498e-04	1.583972882e-11
-2.980000000e-02	1.340055747e-01	-1.303156602e-04	1.230262281e-11
-2.990000000e-02	1.340055717e-01	-1.289562707e-04	2.285225333e-11
-3.000000000e-02	1.340055686e-01	-1.275968812e-04	7.485090470e-12
