# Im(epsi1)     Re(omega/c)      Im(omega/c)      Eq(det).Opt det CON kz, R=0.5 \mum, mu_c=0.3, Re(epsi1)=3.90solve_det_conkz_vs_kz.py
0.000000000e+00	1.340098971e-01	-4.937800397e-04	9.013864476e-12
-1.000000000e-04	1.340099051e-01	-4.924195931e-04	4.314717757e-11
-2.000000000e-04	1.340099131e-01	-4.910591460e-04	1.590295117e-11
-3.000000000e-04	1.340099210e-01	-4.896986985e-04	1.643271312e-11
-4.000000000e-04	1.340099289e-01	-4.883382505e-04	7.632955660e-12
-5.000000000e-04	1.340099367e-01	-4.869778020e-04	1.080868614e-11
-6.000000000e-04	1.340099445e-01	-4.856173530e-04	3.133492982e-11
-7.000000000e-04	1.340099523e-01	-4.842569035e-04	8.622609021e-12
-8.000000000e-04	1.340099600e-01	-4.828964536e-04	1.417695373e-11
-9.000000000e-04	1.340099677e-01	-4.815360033e-04	1.402347051e-11
-1.000000000e-03	1.340099754e-01	-4.801755524e-04	7.561427770e-12
-1.100000000e-03	1.340099830e-01	-4.788151011e-04	2.103423968e-11
-1.200000000e-03	1.340099905e-01	-4.774546494e-04	1.266456148e-11
-1.300000000e-03	1.340099981e-01	-4.760941972e-04	1.536059322e-11
-1.400000000e-03	1.340100055e-01	-4.747337445e-04	4.031679041e-11
-1.500000000e-03	1.340100130e-01	-4.733732914e-04	1.572532447e-11
-1.600000000e-03	1.340100204e-01	-4.720128378e-04	1.139396345e-11
-1.700000000e-03	1.340100277e-01	-4.706523838e-04	1.930932323e-11
-1.800000000e-03	1.340100350e-01	-4.692919294e-04	9.711608486e-12
-1.900000000e-03	1.340100423e-01	-4.679314745e-04	1.251679179e-11
-2.000000000e-03	1.340100496e-01	-4.665710191e-04	1.365652568e-11
-2.100000000e-03	1.340100567e-01	-4.652105634e-04	1.085995698e-11
-2.200000000e-03	1.340100639e-01	-4.638501071e-04	1.148491398e-11
-2.300000000e-03	1.340100710e-01	-4.624896505e-04	8.767326807e-12
-2.400000000e-03	1.340100781e-01	-4.611291934e-04	9.759361578e-12
-2.500000000e-03	1.340100851e-01	-4.597687359e-04	2.080639296e-11
-2.600000000e-03	1.340100921e-01	-4.584082780e-04	2.201972114e-11
-2.700000000e-03	1.340100990e-01	-4.570478196e-04	8.153550329e-12
-2.800000000e-03	1.340101059e-01	-4.556873608e-04	1.245288067e-11
-2.900000000e-03	1.340101128e-01	-4.543269016e-04	5.179372188e-12
-3.000000000e-03	1.340101196e-01	-4.529664419e-04	1.597330929e-11
-3.100000000e-03	1.340101264e-01	-4.516059819e-04	1.589309401e-11
-3.200000000e-03	1.340101331e-01	-4.502455214e-04	1.067357278e-11
-3.300000000e-03	1.340101398e-01	-4.488850605e-04	8.012351669e-12
-3.400000000e-03	1.340101465e-01	-4.475245992e-04	3.297886932e-11
-3.500000000e-03	1.340101531e-01	-4.461641375e-04	6.706675019e-12
-3.600000000e-03	1.340101596e-01	-4.448036754e-04	5.161283844e-12
-3.700000000e-03	1.340101662e-01	-4.434432129e-04	7.678926975e-12
-3.800000000e-03	1.340101727e-01	-4.420827500e-04	1.574142508e-11
-3.900000000e-03	1.340101791e-01	-4.407222867e-04	3.612660784e-11
-4.000000000e-03	1.340101855e-01	-4.393618229e-04	1.590878038e-11
-4.100000000e-03	1.340101919e-01	-4.380013588e-04	6.471145296e-11
-4.200000000e-03	1.340101982e-01	-4.366408943e-04	8.839333965e-12
-4.300000000e-03	1.340102045e-01	-4.352804294e-04	1.473582372e-11
-4.400000000e-03	1.340102107e-01	-4.339199641e-04	5.544675013e-12
-4.500000000e-03	1.340102169e-01	-4.325594984e-04	2.935110178e-11
-4.600000000e-03	1.340102231e-01	-4.311990323e-04	7.456445620e-12
-4.700000000e-03	1.340102292e-01	-4.298385659e-04	9.599952044e-12
-4.800000000e-03	1.340102353e-01	-4.284780990e-04	1.347173305e-11
-4.900000000e-03	1.340102413e-01	-4.271176318e-04	1.707299011e-11
-5.000000000e-03	1.340102473e-01	-4.257571642e-04	1.497627833e-11
-5.100000000e-03	1.340102533e-01	-4.243966962e-04	2.429316454e-11
-5.200000000e-03	1.340102592e-01	-4.230362278e-04	9.288501267e-11
-5.300000000e-03	1.340102650e-01	-4.216757591e-04	1.889349655e-11
-5.400000000e-03	1.340102709e-01	-4.203152900e-04	1.164102297e-11
-5.500000000e-03	1.340102766e-01	-4.189548206e-04	1.338708569e-11
-5.600000000e-03	1.340102824e-01	-4.175943507e-04	8.445576504e-12
-5.700000000e-03	1.340102881e-01	-4.162338805e-04	2.137595284e-11
-5.800000000e-03	1.340102938e-01	-4.148734100e-04	6.169634486e-11
-5.900000000e-03	1.340102994e-01	-4.135129391e-04	3.842830436e-11
-6.000000000e-03	1.340103050e-01	-4.121524678e-04	1.076975955e-11
-6.100000000e-03	1.340103105e-01	-4.107919962e-04	2.295672048e-11
-6.200000000e-03	1.340103160e-01	-4.094315242e-04	2.976042616e-11
-6.300000000e-03	1.340103214e-01	-4.080710518e-04	7.833501482e-12
-6.400000000e-03	1.340103269e-01	-4.067105792e-04	4.262232736e-11
-6.500000000e-03	1.340103322e-01	-4.053501061e-04	1.106733611e-11
-6.600000000e-03	1.340103376e-01	-4.039896327e-04	1.061341448e-11
-6.700000000e-03	1.340103429e-01	-4.026291590e-04	5.742168897e-12
-6.800000000e-03	1.340103481e-01	-4.012686849e-04	8.050132895e-11
-6.900000000e-03	1.340103533e-01	-3.999082106e-04	7.662457911e-12
-7.000000000e-03	1.340103585e-01	-3.985477358e-04	1.069464621e-11
-7.100000000e-03	1.340103636e-01	-3.971872607e-04	1.231710250e-11
-7.200000000e-03	1.340103687e-01	-3.958267853e-04	8.422563951e-12
-7.300000000e-03	1.340103737e-01	-3.944663096e-04	2.881925217e-11
-7.400000000e-03	1.340103787e-01	-3.931058335e-04	1.363683212e-11
-7.500000000e-03	1.340103837e-01	-3.917453571e-04	8.593478309e-12
-7.600000000e-03	1.340103886e-01	-3.903848804e-04	8.076308177e-11
-7.700000000e-03	1.340103935e-01	-3.890244034e-04	1.875320394e-11
-7.800000000e-03	1.340103983e-01	-3.876639260e-04	8.141808474e-12
-7.900000000e-03	1.340104031e-01	-3.863034484e-04	1.659759006e-11
-8.000000000e-03	1.340104079e-01	-3.849429704e-04	8.195928725e-12
-8.100000000e-03	1.340104126e-01	-3.835824921e-04	2.153303713e-11
-8.200000000e-03	1.340104172e-01	-3.822220135e-04	1.408195958e-11
-8.300000000e-03	1.340104219e-01	-3.808615345e-04	2.687164042e-11
-8.400000000e-03	1.340104265e-01	-3.795010553e-04	8.866273167e-12
-8.500000000e-03	1.340104310e-01	-3.781405758e-04	1.245275241e-11
-8.600000000e-03	1.340104355e-01	-3.767800959e-04	2.867427364e-11
-8.700000000e-03	1.340104400e-01	-3.754196158e-04	1.211922156e-11
-8.800000000e-03	1.340104444e-01	-3.740591353e-04	6.903427993e-12
-8.900000000e-03	1.340104488e-01	-3.726986546e-04	2.293028622e-11
-9.000000000e-03	1.340104531e-01	-3.713381735e-04	7.753731063e-12
-9.100000000e-03	1.340104574e-01	-3.699776922e-04	1.316191872e-11
-9.200000000e-03	1.340104617e-01	-3.686172106e-04	8.686289715e-12
-9.300000000e-03	1.340104659e-01	-3.672567287e-04	1.292096092e-11
-9.400000000e-03	1.340104701e-01	-3.658962465e-04	1.645695085e-11
-9.500000000e-03	1.340104742e-01	-3.645357640e-04	2.563217733e-11
-9.600000000e-03	1.340104783e-01	-3.631752812e-04	1.126684785e-11
-9.700000000e-03	1.340104823e-01	-3.618147982e-04	7.785544230e-12
-9.800000000e-03	1.340104863e-01	-3.604543149e-04	1.013206103e-11
-9.900000000e-03	1.340104903e-01	-3.590938313e-04	9.781889301e-12
-1.000000000e-02	1.340104942e-01	-3.577333474e-04	1.780040823e-11
-1.010000000e-02	1.340104981e-01	-3.563728632e-04	1.648436134e-11
-1.020000000e-02	1.340105020e-01	-3.550123788e-04	9.433594448e-12
-1.030000000e-02	1.340105058e-01	-3.536518941e-04	1.324642634e-11
-1.040000000e-02	1.340105095e-01	-3.522914092e-04	1.269688638e-11
-1.050000000e-02	1.340105133e-01	-3.509309240e-04	1.362980291e-11
-1.060000000e-02	1.340105169e-01	-3.495704385e-04	1.104623427e-11
-1.070000000e-02	1.340105206e-01	-3.482099528e-04	3.896450768e-11
-1.080000000e-02	1.340105242e-01	-3.468494668e-04	7.181584916e-12
-1.090000000e-02	1.340105277e-01	-3.454889805e-04	5.375870234e-12
-1.100000000e-02	1.340105312e-01	-3.441284940e-04	7.179326122e-12
-1.110000000e-02	1.340105347e-01	-3.427680073e-04	2.350242441e-11
-1.120000000e-02	1.340105381e-01	-3.414075203e-04	1.273303151e-11
-1.130000000e-02	1.340105415e-01	-3.400470330e-04	2.029961365e-11
-1.140000000e-02	1.340105449e-01	-3.386865455e-04	7.019815911e-12
-1.150000000e-02	1.340105482e-01	-3.373260578e-04	1.743291154e-11
-1.160000000e-02	1.340105514e-01	-3.359655698e-04	1.396257572e-11
-1.170000000e-02	1.340105547e-01	-3.346050816e-04	1.663702517e-11
-1.180000000e-02	1.340105579e-01	-3.332445931e-04	6.651291701e-12
-1.190000000e-02	1.340105610e-01	-3.318841045e-04	2.095527964e-11
-1.200000000e-02	1.340105641e-01	-3.305236155e-04	3.442024718e-11
-1.210000000e-02	1.340105672e-01	-3.291631264e-04	9.492461751e-12
-1.220000000e-02	1.340105702e-01	-3.278026370e-04	1.006763676e-11
-1.230000000e-02	1.340105732e-01	-3.264421474e-04	5.623976663e-12
-1.240000000e-02	1.340105761e-01	-3.250816576e-04	1.961516144e-11
-1.250000000e-02	1.340105790e-01	-3.237211675e-04	1.641608056e-10
-1.260000000e-02	1.340105818e-01	-3.223606772e-04	1.685987152e-11
-1.270000000e-02	1.340105846e-01	-3.210001867e-04	6.200922996e-12
-1.280000000e-02	1.340105874e-01	-3.196396960e-04	9.358118417e-12
-1.290000000e-02	1.340105901e-01	-3.182792051e-04	2.774808228e-11
-1.300000000e-02	1.340105928e-01	-3.169187140e-04	1.170250915e-11
-1.310000000e-02	1.340105955e-01	-3.155582226e-04	7.712877822e-12
-1.320000000e-02	1.340105981e-01	-3.141977311e-04	6.361050538e-12
-1.330000000e-02	1.340106006e-01	-3.128372393e-04	7.057223699e-12
-1.340000000e-02	1.340106032e-01	-3.114767474e-04	1.668480494e-11
-1.350000000e-02	1.340106056e-01	-3.101162552e-04	1.759867775e-11
-1.360000000e-02	1.340106081e-01	-3.087557629e-04	1.112769031e-11
-1.370000000e-02	1.340106105e-01	-3.073952703e-04	1.121758289e-11
-1.380000000e-02	1.340106128e-01	-3.060347776e-04	6.165971932e-11
-1.390000000e-02	1.340106152e-01	-3.046742846e-04	1.503007270e-11
-1.400000000e-02	1.340106174e-01	-3.033137915e-04	1.137781908e-11
-1.410000000e-02	1.340106197e-01	-3.019532981e-04	9.541558539e-12
-1.420000000e-02	1.340106218e-01	-3.005928046e-04	9.112192823e-12
-1.430000000e-02	1.340106240e-01	-2.992323109e-04	9.189120899e-12
-1.440000000e-02	1.340106261e-01	-2.978718171e-04	8.940308942e-12
-1.450000000e-02	1.340106282e-01	-2.965113230e-04	8.125249953e-12
-1.460000000e-02	1.340106302e-01	-2.951508288e-04	2.445658395e-11
-1.470000000e-02	1.340106322e-01	-2.937903344e-04	1.018267194e-11
-1.480000000e-02	1.340106341e-01	-2.924298398e-04	1.140605303e-11
-1.490000000e-02	1.340106360e-01	-2.910693450e-04	2.400358346e-11
-1.500000000e-02	1.340106379e-01	-2.897088501e-04	1.982556901e-11
-1.510000000e-02	1.340106397e-01	-2.883483550e-04	8.381341172e-12
-1.520000000e-02	1.340106415e-01	-2.869878597e-04	5.213600112e-11
-1.530000000e-02	1.340106432e-01	-2.856273643e-04	1.232503914e-11
-1.540000000e-02	1.340106449e-01	-2.842668687e-04	1.718148422e-11
-1.550000000e-02	1.340106466e-01	-2.829063730e-04	1.816148421e-11
-1.560000000e-02	1.340106482e-01	-2.815458771e-04	1.675566099e-11
-1.570000000e-02	1.340106498e-01	-2.801853810e-04	8.721565834e-12
-1.580000000e-02	1.340106513e-01	-2.788248848e-04	1.049540492e-11
-1.590000000e-02	1.340106528e-01	-2.774643884e-04	1.728456281e-11
-1.600000000e-02	1.340106542e-01	-2.761038919e-04	1.129567711e-11
-1.610000000e-02	1.340106556e-01	-2.747433952e-04	9.407178643e-12
-1.620000000e-02	1.340106570e-01	-2.733828984e-04	2.160429592e-11
-1.630000000e-02	1.340106583e-01	-2.720224015e-04	6.760126598e-12
-1.640000000e-02	1.340106596e-01	-2.706619044e-04	1.599104961e-11
-1.650000000e-02	1.340106608e-01	-2.693014072e-04	1.595181036e-11
-1.660000000e-02	1.340106620e-01	-2.679409098e-04	2.441207978e-11
-1.670000000e-02	1.340106632e-01	-2.665804123e-04	1.032944520e-11
-1.680000000e-02	1.340106643e-01	-2.652199147e-04	1.106238439e-11
-1.690000000e-02	1.340106654e-01	-2.638594169e-04	9.197370073e-12
-1.700000000e-02	1.340106664e-01	-2.624989190e-04	1.095726232e-11
-1.710000000e-02	1.340106674e-01	-2.611384210e-04	7.764599060e-12
-1.720000000e-02	1.340106684e-01	-2.597779229e-04	7.537259442e-12
-1.730000000e-02	1.340106693e-01	-2.584174246e-04	3.001363775e-11
-1.740000000e-02	1.340106701e-01	-2.570569262e-04	1.218306605e-11
-1.750000000e-02	1.340106710e-01	-2.556964277e-04	3.084257623e-11
-1.760000000e-02	1.340106718e-01	-2.543359291e-04	2.824646162e-11
-1.770000000e-02	1.340106725e-01	-2.529754304e-04	2.398865555e-11
-1.780000000e-02	1.340106732e-01	-2.516149315e-04	1.238666867e-11
-1.790000000e-02	1.340106739e-01	-2.502544326e-04	6.536306147e-12
-1.800000000e-02	1.340106745e-01	-2.488939335e-04	9.430731697e-12
-1.810000000e-02	1.340106751e-01	-2.475334344e-04	2.833887577e-11
-1.820000000e-02	1.340106756e-01	-2.461729351e-04	2.147243691e-11
-1.830000000e-02	1.340106761e-01	-2.448124357e-04	8.657169668e-12
-1.840000000e-02	1.340106766e-01	-2.434519363e-04	9.025451088e-12
-1.850000000e-02	1.340106770e-01	-2.420914367e-04	1.490339357e-11
-1.860000000e-02	1.340106774e-01	-2.407309370e-04	1.224341422e-11
-1.870000000e-02	1.340106777e-01	-2.393704373e-04	2.410785266e-11
-1.880000000e-02	1.340106780e-01	-2.380099374e-04	1.310756557e-11
-1.890000000e-02	1.340106782e-01	-2.366494375e-04	2.180572748e-11
-1.900000000e-02	1.340106784e-01	-2.352889375e-04	1.034921918e-11
-1.910000000e-02	1.340106786e-01	-2.339284374e-04	5.044973428e-12
-1.920000000e-02	1.340106787e-01	-2.325679372e-04	7.795531073e-12
-1.930000000e-02	1.340106788e-01	-2.312074369e-04	6.090316749e-12
-1.940000000e-02	1.340106789e-01	-2.298469366e-04	1.353517396e-11
-1.950000000e-02	1.340106789e-01	-2.284864362e-04	4.484980861e-11
-1.960000000e-02	1.340106788e-01	-2.271259357e-04	2.071540582e-11
-1.970000000e-02	1.340106787e-01	-2.257654351e-04	1.149294836e-11
-1.980000000e-02	1.340106786e-01	-2.244049345e-04	1.341552956e-11
-1.990000000e-02	1.340106784e-01	-2.230444338e-04	1.499394744e-11
-2.000000000e-02	1.340106782e-01	-2.216839330e-04	3.274352928e-11
-2.010000000e-02	1.340106780e-01	-2.203234322e-04	4.578624973e-12
-2.020000000e-02	1.340106777e-01	-2.189629313e-04	2.632635712e-11
-2.030000000e-02	1.340106774e-01	-2.176024304e-04	1.700056384e-10
-2.040000000e-02	1.340106770e-01	-2.162419293e-04	1.533471741e-11
-2.050000000e-02	1.340106766e-01	-2.148814283e-04	2.503495886e-11
-2.060000000e-02	1.340106761e-01	-2.135209271e-04	9.429832676e-12
-2.070000000e-02	1.340106756e-01	-2.121604260e-04	1.603708719e-11
-2.080000000e-02	1.340106751e-01	-2.107999247e-04	1.327162551e-11
-2.090000000e-02	1.340106745e-01	-2.094394235e-04	1.425877886e-11
-2.100000000e-02	1.340106739e-01	-2.080789222e-04	1.350833543e-11
-2.110000000e-02	1.340106733e-01	-2.067184208e-04	1.466860243e-11
-2.120000000e-02	1.340106726e-01	-2.053579194e-04	2.812338588e-11
-2.130000000e-02	1.340106718e-01	-2.039974180e-04	1.839903569e-11
-2.140000000e-02	1.340106710e-01	-2.026369165e-04	1.167011969e-11
-2.150000000e-02	1.340106702e-01	-2.012764150e-04	1.871903839e-11
-2.160000000e-02	1.340106693e-01	-1.999159135e-04	6.450036154e-12
-2.170000000e-02	1.340106684e-01	-1.985554119e-04	1.635773593e-11
-2.180000000e-02	1.340106675e-01	-1.971949103e-04	2.387343866e-11
-2.190000000e-02	1.340106665e-01	-1.958344087e-04	2.131178862e-11
-2.200000000e-02	1.340106655e-01	-1.944739071e-04	3.875355636e-11
-2.210000000e-02	1.340106644e-01	-1.931134054e-04	1.762371941e-11
-2.220000000e-02	1.340106633e-01	-1.917529037e-04	1.248569202e-11
-2.230000000e-02	1.340106621e-01	-1.903924020e-04	1.262094239e-11
-2.240000000e-02	1.340106609e-01	-1.890319003e-04	1.752607572e-11
-2.250000000e-02	1.340106597e-01	-1.876713985e-04	1.806689587e-11
-2.260000000e-02	1.340106584e-01	-1.863108968e-04	1.002704714e-11
-2.270000000e-02	1.340106571e-01	-1.849503950e-04	7.253988131e-12
-2.280000000e-02	1.340106557e-01	-1.835898932e-04	3.375761354e-10
-2.290000000e-02	1.340106543e-01	-1.822293915e-04	1.244526731e-11
-2.300000000e-02	1.340106529e-01	-1.808688897e-04	1.553349424e-11
-2.310000000e-02	1.340106514e-01	-1.795083880e-04	1.968315532e-11
-2.320000000e-02	1.340106498e-01	-1.781478862e-04	1.804243628e-11
-2.330000000e-02	1.340106483e-01	-1.767873844e-04	2.077867066e-11
-2.340000000e-02	1.340106467e-01	-1.754268827e-04	9.747476162e-12
-2.350000000e-02	1.340106450e-01	-1.740663809e-04	7.177394287e-12
-2.360000000e-02	1.340106433e-01	-1.727058792e-04	9.490361935e-12
-2.370000000e-02	1.340106416e-01	-1.713453775e-04	1.131963707e-11
-2.380000000e-02	1.340106398e-01	-1.699848757e-04	8.073627805e-12
-2.390000000e-02	1.340106380e-01	-1.686243740e-04	2.488903872e-11
-2.400000000e-02	1.340106361e-01	-1.672638723e-04	1.090108658e-11
-2.410000000e-02	1.340106342e-01	-1.659033707e-04	7.691436055e-12
-2.420000000e-02	1.340106323e-01	-1.645428690e-04	6.107195832e-12
-2.430000000e-02	1.340106303e-01	-1.631823674e-04	1.090757637e-11
-2.440000000e-02	1.340106283e-01	-1.618218658e-04	2.249100776e-11
-2.450000000e-02	1.340106262e-01	-1.604613643e-04	3.040076581e-11
-2.460000000e-02	1.340106241e-01	-1.591008627e-04	1.025887928e-11
-2.470000000e-02	1.340106220e-01	-1.577403612e-04	9.683767576e-12
-2.480000000e-02	1.340106198e-01	-1.563798598e-04	2.274343569e-11
-2.490000000e-02	1.340106176e-01	-1.550193583e-04	8.329201511e-12
-2.500000000e-02	1.340106153e-01	-1.536588569e-04	1.693346051e-11
-2.510000000e-02	1.340106130e-01	-1.522983556e-04	1.314569646e-11
-2.520000000e-02	1.340106106e-01	-1.509378543e-04	1.231739747e-11
-2.530000000e-02	1.340106082e-01	-1.495773530e-04	1.564954126e-11
-2.540000000e-02	1.340106058e-01	-1.482168518e-04	9.799720252e-12
-2.550000000e-02	1.340106033e-01	-1.468563506e-04	1.187834255e-11
-2.560000000e-02	1.340106008e-01	-1.454958495e-04	1.504980495e-11
-2.570000000e-02	1.340105982e-01	-1.441353484e-04	1.008259094e-11
-2.580000000e-02	1.340105956e-01	-1.427748474e-04	1.980415584e-11
-2.590000000e-02	1.340105930e-01	-1.414143465e-04	1.251587708e-11
-2.600000000e-02	1.340105903e-01	-1.400538456e-04	2.236568434e-11
-2.610000000e-02	1.340105876e-01	-1.386933448e-04	2.335557129e-11
-2.620000000e-02	1.340105848e-01	-1.373328440e-04	1.247061133e-11
-2.630000000e-02	1.340105820e-01	-1.359723433e-04	1.642182172e-11
-2.640000000e-02	1.340105791e-01	-1.346118427e-04	1.427297363e-11
-2.650000000e-02	1.340105763e-01	-1.332513421e-04	7.053830416e-12
-2.660000000e-02	1.340105733e-01	-1.318908416e-04	8.192101411e-12
-2.670000000e-02	1.340105703e-01	-1.305303412e-04	1.220917022e-11
-2.680000000e-02	1.340105673e-01	-1.291698408e-04	1.622504178e-11
-2.690000000e-02	1.340105643e-01	-1.278093406e-04	1.451730062e-11
-2.700000000e-02	1.340105612e-01	-1.264488404e-04	1.132620455e-11
-2.710000000e-02	1.340105580e-01	-1.250883403e-04	7.730900379e-12
-2.720000000e-02	1.340105549e-01	-1.237278403e-04	1.064434305e-11
-2.730000000e-02	1.340105516e-01	-1.223673404e-04	1.584232020e-11
-2.740000000e-02	1.340105484e-01	-1.210068405e-04	3.656363556e-11
-2.750000000e-02	1.340105451e-01	-1.196463408e-04	1.001308803e-11
-2.760000000e-02	1.340105417e-01	-1.182858411e-04	8.814841164e-12
-2.770000000e-02	1.340105383e-01	-1.169253415e-04	9.414389523e-12
-2.780000000e-02	1.340105349e-01	-1.155648421e-04	2.247648650e-11
-2.790000000e-02	1.340105314e-01	-1.142043427e-04	3.473003705e-11
-2.800000000e-02	1.340105279e-01	-1.128438434e-04	1.051817967e-11
-2.810000000e-02	1.340105244e-01	-1.114833443e-04	7.412140317e-12
-2.820000000e-02	1.340105208e-01	-1.101228452e-04	1.499974908e-11
-2.830000000e-02	1.340105171e-01	-1.087623463e-04	1.093106499e-11
-2.840000000e-02	1.340105135e-01	-1.074018474e-04	1.155233693e-11
-2.850000000e-02	1.340105098e-01	-1.060413487e-04	9.286847198e-12
-2.860000000e-02	1.340105060e-01	-1.046808501e-04	7.493141857e-12
-2.870000000e-02	1.340105022e-01	-1.033203516e-04	2.139240113e-11
-2.880000000e-02	1.340104984e-01	-1.019598532e-04	8.883337346e-12
-2.890000000e-02	1.340104945e-01	-1.005993550e-04	1.271683006e-11
-2.900000000e-02	1.340104905e-01	-9.923885684e-05	1.384191955e-11
-2.910000000e-02	1.340104866e-01	-9.787835883e-05	4.440330273e-11
-2.920000000e-02	1.340104826e-01	-9.651786093e-05	9.544865668e-12
-2.930000000e-02	1.340104785e-01	-9.515736318e-05	1.024425675e-11
-2.940000000e-02	1.340104744e-01	-9.379686555e-05	5.732777538e-11
-2.950000000e-02	1.340104703e-01	-9.243636805e-05	1.385545137e-11
-2.960000000e-02	1.340104661e-01	-9.107587070e-05	2.150984246e-11
-2.970000000e-02	1.340104619e-01	-8.971537347e-05	2.488591834e-11
-2.980000000e-02	1.340104577e-01	-8.835487639e-05	1.015954399e-11
-2.990000000e-02	1.340104534e-01	-8.699437944e-05	1.794310870e-11
-3.000000000e-02	1.340104490e-01	-8.563388264e-05	7.226547166e-12
