# Im(epsi1)     Re(omega/c)      Im(omega/c)      Eq(det).Opt det CON kz, R=0.5 \mum, mu_c=0.3, Re(epsi1)=3.90solve_det_conkz_vs_kz.py
0.000000000e+00	1.340062074e-01	-4.826097537e-04	1.919463088e-11
-1.000000000e-04	1.340062151e-01	-4.812489754e-04	3.292547692e-11
-2.000000000e-04	1.340062227e-01	-4.798881966e-04	8.953738166e-12
-3.000000000e-04	1.340062303e-01	-4.785274174e-04	1.199861172e-11
-4.000000000e-04	1.340062379e-01	-4.771666377e-04	1.290408945e-11
-5.000000000e-04	1.340062454e-01	-4.758058575e-04	1.049066529e-11
-6.000000000e-04	1.340062529e-01	-4.744450769e-04	1.093830062e-11
-7.000000000e-04	1.340062603e-01	-4.730842959e-04	1.827998529e-11
-8.000000000e-04	1.340062677e-01	-4.717235144e-04	1.034093296e-11
-9.000000000e-04	1.340062750e-01	-4.703627324e-04	2.136606530e-11
-1.000000000e-03	1.340062823e-01	-4.690019500e-04	9.279879495e-12
-1.100000000e-03	1.340062896e-01	-4.676411672e-04	5.387913440e-12
-1.200000000e-03	1.340062968e-01	-4.662803839e-04	1.261982318e-11
-1.300000000e-03	1.340063040e-01	-4.649196002e-04	1.301844213e-11
-1.400000000e-03	1.340063111e-01	-4.635588161e-04	6.221775990e-12
-1.500000000e-03	1.340063182e-01	-4.621980315e-04	7.407476722e-12
-1.600000000e-03	1.340063253e-01	-4.608372465e-04	1.182402349e-11
-1.700000000e-03	1.340063323e-01	-4.594764610e-04	8.268168521e-12
-1.800000000e-03	1.340063393e-01	-4.581156751e-04	2.324016282e-11
-1.900000000e-03	1.340063462e-01	-4.567548888e-04	1.641393248e-11
-2.000000000e-03	1.340063531e-01	-4.553941021e-04	1.509088436e-11
-2.100000000e-03	1.340063599e-01	-4.540333150e-04	1.102108634e-11
-2.200000000e-03	1.340063667e-01	-4.526725274e-04	1.676856542e-11
-2.300000000e-03	1.340063735e-01	-4.513117394e-04	8.412944071e-12
-2.400000000e-03	1.340063802e-01	-4.499509510e-04	1.267100810e-11
-2.500000000e-03	1.340063869e-01	-4.485901622e-04	2.597877791e-11
-2.600000000e-03	1.340063936e-01	-4.472293730e-04	1.021840020e-11
-2.700000000e-03	1.340064002e-01	-4.458685834e-04	2.436340745e-11
-2.800000000e-03	1.340064067e-01	-4.445077933e-04	1.661529868e-11
-2.900000000e-03	1.340064132e-01	-4.431470029e-04	7.316002533e-11
-3.000000000e-03	1.340064197e-01	-4.417862120e-04	1.407702897e-11
-3.100000000e-03	1.340064262e-01	-4.404254208e-04	1.476307365e-11
-3.200000000e-03	1.340064325e-01	-4.390646291e-04	1.114237057e-11
-3.300000000e-03	1.340064389e-01	-4.377038371e-04	4.568294946e-11
-3.400000000e-03	1.340064452e-01	-4.363430446e-04	1.003018159e-11
-3.500000000e-03	1.340064515e-01	-4.349822518e-04	7.858607368e-12
-3.600000000e-03	1.340064577e-01	-4.336214586e-04	1.758525587e-11
-3.700000000e-03	1.340064639e-01	-4.322606650e-04	1.635734819e-11
-3.800000000e-03	1.340064700e-01	-4.308998710e-04	5.817683503e-12
-3.900000000e-03	1.340064762e-01	-4.295390766e-04	1.704140413e-11
-4.000000000e-03	1.340064822e-01	-4.281782818e-04	8.371959504e-12
-4.100000000e-03	1.340064882e-01	-4.268174867e-04	8.164211396e-12
-4.200000000e-03	1.340064942e-01	-4.254566912e-04	1.402027440e-11
-4.300000000e-03	1.340065002e-01	-4.240958953e-04	2.298990183e-11
-4.400000000e-03	1.340065061e-01	-4.227350990e-04	7.440210359e-12
-4.500000000e-03	1.340065119e-01	-4.213743024e-04	1.209147756e-11
-4.600000000e-03	1.340065177e-01	-4.200135054e-04	2.197786403e-11
-4.700000000e-03	1.340065235e-01	-4.186527080e-04	1.689688812e-11
-4.800000000e-03	1.340065292e-01	-4.172919102e-04	2.257053870e-11
-4.900000000e-03	1.340065349e-01	-4.159311121e-04	1.290463133e-11
-5.000000000e-03	1.340065406e-01	-4.145703136e-04	1.093933058e-11
-5.100000000e-03	1.340065462e-01	-4.132095148e-04	8.744041500e-12
-5.200000000e-03	1.340065518e-01	-4.118487156e-04	2.113282867e-11
-5.300000000e-03	1.340065573e-01	-4.104879161e-04	1.051684976e-11
-5.400000000e-03	1.340065628e-01	-4.091271162e-04	2.249611468e-11
-5.500000000e-03	1.340065682e-01	-4.077663160e-04	1.369439215e-11
-5.600000000e-03	1.340065736e-01	-4.064055154e-04	1.709538469e-11
-5.700000000e-03	1.340065790e-01	-4.050447144e-04	1.054240272e-11
-5.800000000e-03	1.340065843e-01	-4.036839131e-04	2.233009207e-11
-5.900000000e-03	1.340065896e-01	-4.023231115e-04	1.217128307e-11
-6.000000000e-03	1.340065948e-01	-4.009623095e-04	2.104586860e-11
-6.100000000e-03	1.340066000e-01	-3.996015072e-04	4.506784837e-11
-6.200000000e-03	1.340066052e-01	-3.982407046e-04	2.856975156e-11
-6.300000000e-03	1.340066103e-01	-3.968799016e-04	1.452554370e-11
-6.400000000e-03	1.340066154e-01	-3.955190983e-04	1.866602971e-11
-6.500000000e-03	1.340066204e-01	-3.941582947e-04	6.945843957e-12
-6.600000000e-03	1.340066254e-01	-3.927974907e-04	3.053249538e-11
-6.700000000e-03	1.340066303e-01	-3.914366864e-04	3.186958076e-11
-6.800000000e-03	1.340066352e-01	-3.900758818e-04	7.420565736e-12
-6.900000000e-03	1.340066401e-01	-3.887150769e-04	1.847531575e-11
-7.000000000e-03	1.340066449e-01	-3.873542716e-04	9.785645933e-12
-7.100000000e-03	1.340066497e-01	-3.859934660e-04	9.406988468e-12
-7.200000000e-03	1.340066544e-01	-3.846326602e-04	1.283405266e-11
-7.300000000e-03	1.340066591e-01	-3.832718540e-04	1.193387292e-11
-7.400000000e-03	1.340066638e-01	-3.819110474e-04	8.043583209e-12
-7.500000000e-03	1.340066684e-01	-3.805502406e-04	8.092280628e-12
-7.600000000e-03	1.340066730e-01	-3.791894335e-04	2.797896740e-11
-7.700000000e-03	1.340066775e-01	-3.778286261e-04	2.178521810e-11
-7.800000000e-03	1.340066820e-01	-3.764678183e-04	6.894466701e-12
-7.900000000e-03	1.340066865e-01	-3.751070103e-04	1.419088532e-11
-8.000000000e-03	1.340066909e-01	-3.737462019e-04	6.149715856e-11
-8.100000000e-03	1.340066952e-01	-3.723853933e-04	7.050822699e-12
-8.200000000e-03	1.340066996e-01	-3.710245844e-04	8.140358136e-12
-8.300000000e-03	1.340067039e-01	-3.696637752e-04	2.854229991e-11
-8.400000000e-03	1.340067081e-01	-3.683029657e-04	1.739625425e-11
-8.500000000e-03	1.340067123e-01	-3.669421558e-04	1.170958178e-11
-8.600000000e-03	1.340067165e-01	-3.655813458e-04	5.844191006e-12
-8.700000000e-03	1.340067206e-01	-3.642205354e-04	6.146594900e-12
-8.800000000e-03	1.340067247e-01	-3.628597248e-04	1.583726058e-11
-8.900000000e-03	1.340067287e-01	-3.614989138e-04	9.216438329e-12
-9.000000000e-03	1.340067327e-01	-3.601381026e-04	1.187075198e-11
-9.100000000e-03	1.340067367e-01	-3.587772911e-04	7.080820179e-12
-9.200000000e-03	1.340067406e-01	-3.574164794e-04	6.050133825e-12
-9.300000000e-03	1.340067445e-01	-3.560556673e-04	1.470110836e-11
-9.400000000e-03	1.340067483e-01	-3.546948550e-04	8.120226911e-12
-9.500000000e-03	1.340067521e-01	-3.533340425e-04	1.091296483e-11
-9.600000000e-03	1.340067558e-01	-3.519732296e-04	1.136067856e-11
-9.700000000e-03	1.340067595e-01	-3.506124166e-04	9.917194045e-12
-9.800000000e-03	1.340067632e-01	-3.492516032e-04	1.330546262e-11
-9.900000000e-03	1.340067668e-01	-3.478907896e-04	1.047260582e-11
-1.000000000e-02	1.340067704e-01	-3.465299757e-04	1.268472341e-11
-1.010000000e-02	1.340067739e-01	-3.451691616e-04	8.584820644e-12
-1.020000000e-02	1.340067774e-01	-3.438083472e-04	1.114503042e-11
-1.030000000e-02	1.340067809e-01	-3.424475326e-04	1.429592406e-11
-1.040000000e-02	1.340067843e-01	-3.410867177e-04	5.919770728e-11
-1.050000000e-02	1.340067877e-01	-3.397259026e-04	1.367802681e-11
-1.060000000e-02	1.340067910e-01	-3.383650872e-04	1.327093075e-11
-1.070000000e-02	1.340067943e-01	-3.370042716e-04	8.428978307e-12
-1.080000000e-02	1.340067976e-01	-3.356434558e-04	7.383951487e-12
-1.090000000e-02	1.340068008e-01	-3.342826397e-04	5.377703751e-12
-1.100000000e-02	1.340068040e-01	-3.329218233e-04	2.715960717e-11
-1.110000000e-02	1.340068071e-01	-3.315610068e-04	1.447709648e-11
-1.120000000e-02	1.340068102e-01	-3.302001900e-04	2.093536168e-11
-1.130000000e-02	1.340068132e-01	-3.288393730e-04	9.738686075e-12
-1.140000000e-02	1.340068162e-01	-3.274785557e-04	1.689533392e-11
-1.150000000e-02	1.340068192e-01	-3.261177382e-04	1.275535441e-11
-1.160000000e-02	1.340068221e-01	-3.247569205e-04	3.216708767e-11
-1.170000000e-02	1.340068250e-01	-3.233961026e-04	1.176390073e-11
-1.180000000e-02	1.340068278e-01	-3.220352845e-04	1.347823202e-11
-1.190000000e-02	1.340068306e-01	-3.206744661e-04	9.914133665e-12
-1.200000000e-02	1.340068334e-01	-3.193136476e-04	2.130457040e-11
-1.210000000e-02	1.340068361e-01	-3.179528288e-04	1.922442440e-11
-1.220000000e-02	1.340068388e-01	-3.165920098e-04	5.649089303e-12
-1.230000000e-02	1.340068414e-01	-3.152311906e-04	1.044065520e-11
-1.240000000e-02	1.340068440e-01	-3.138703712e-04	1.654510817e-11
-1.250000000e-02	1.340068466e-01	-3.125095516e-04	8.445233721e-12
-1.260000000e-02	1.340068491e-01	-3.111487317e-04	5.775066579e-12
-1.270000000e-02	1.340068515e-01	-3.097879117e-04	1.463481336e-11
-1.280000000e-02	1.340068540e-01	-3.084270915e-04	2.647234491e-11
-1.290000000e-02	1.340068563e-01	-3.070662711e-04	1.606416364e-11
-1.300000000e-02	1.340068587e-01	-3.057054505e-04	1.553733518e-11
-1.310000000e-02	1.340068610e-01	-3.043446297e-04	1.460904702e-11
-1.320000000e-02	1.340068633e-01	-3.029838087e-04	1.533358997e-11
-1.330000000e-02	1.340068655e-01	-3.016229875e-04	1.185563757e-11
-1.340000000e-02	1.340068677e-01	-3.002621662e-04	5.546518613e-12
-1.350000000e-02	1.340068698e-01	-2.989013446e-04	9.008055775e-12
-1.360000000e-02	1.340068719e-01	-2.975405229e-04	1.053955194e-11
-1.370000000e-02	1.340068739e-01	-2.961797010e-04	6.074849495e-11
-1.380000000e-02	1.340068760e-01	-2.948188789e-04	2.447565833e-11
-1.390000000e-02	1.340068779e-01	-2.934580566e-04	1.450663470e-11
-1.400000000e-02	1.340068799e-01	-2.920972342e-04	2.370212643e-11
-1.410000000e-02	1.340068817e-01	-2.907364116e-04	2.571427941e-11
-1.420000000e-02	1.340068836e-01	-2.893755888e-04	2.688930638e-11
-1.430000000e-02	1.340068854e-01	-2.880147659e-04	4.349953926e-11
-1.440000000e-02	1.340068872e-01	-2.866539428e-04	1.127151610e-11
-1.450000000e-02	1.340068889e-01	-2.852931195e-04	1.920778117e-11
-1.460000000e-02	1.340068906e-01	-2.839322961e-04	7.982428634e-12
-1.470000000e-02	1.340068922e-01	-2.825714725e-04	2.743936254e-11
-1.480000000e-02	1.340068938e-01	-2.812106487e-04	5.671287299e-11
-1.490000000e-02	1.340068954e-01	-2.798498248e-04	5.739045978e-12
-1.500000000e-02	1.340068969e-01	-2.784890008e-04	5.824017133e-12
-1.510000000e-02	1.340068984e-01	-2.771281766e-04	1.240358598e-11
-1.520000000e-02	1.340068998e-01	-2.757673522e-04	2.051481075e-11
-1.530000000e-02	1.340069012e-01	-2.744065277e-04	2.159413247e-10
-1.540000000e-02	1.340069025e-01	-2.730457031e-04	1.058658744e-11
-1.550000000e-02	1.340069038e-01	-2.716848783e-04	1.109899697e-11
-1.560000000e-02	1.340069051e-01	-2.703240534e-04	7.085169742e-12
-1.570000000e-02	1.340069063e-01	-2.689632283e-04	2.469941212e-11
-1.580000000e-02	1.340069075e-01	-2.676024031e-04	1.034908867e-11
-1.590000000e-02	1.340069087e-01	-2.662415778e-04	2.209446082e-11
-1.600000000e-02	1.340069098e-01	-2.648807523e-04	1.232655047e-11
-1.610000000e-02	1.340069108e-01	-2.635199267e-04	5.936836355e-11
-1.620000000e-02	1.340069119e-01	-2.621591010e-04	7.873014550e-12
-1.630000000e-02	1.340069128e-01	-2.607982752e-04	1.106961989e-11
-1.640000000e-02	1.340069138e-01	-2.594374492e-04	1.166094649e-11
-1.650000000e-02	1.340069147e-01	-2.580766231e-04	1.958772520e-11
-1.660000000e-02	1.340069155e-01	-2.567157969e-04	1.425570218e-11
-1.670000000e-02	1.340069163e-01	-2.553549706e-04	1.207316463e-11
-1.680000000e-02	1.340069171e-01	-2.539941441e-04	1.296224057e-11
-1.690000000e-02	1.340069178e-01	-2.526333176e-04	2.256378479e-11
-1.700000000e-02	1.340069185e-01	-2.512724909e-04	1.158317129e-11
-1.710000000e-02	1.340069192e-01	-2.499116641e-04	1.550492589e-11
-1.720000000e-02	1.340069198e-01	-2.485508372e-04	2.075925020e-11
-1.730000000e-02	1.340069204e-01	-2.471900103e-04	2.366440437e-11
-1.740000000e-02	1.340069209e-01	-2.458291832e-04	1.194562041e-11
-1.750000000e-02	1.340069214e-01	-2.444683560e-04	7.839933453e-12
-1.760000000e-02	1.340069218e-01	-2.431075287e-04	1.928107397e-11
-1.770000000e-02	1.340069222e-01	-2.417467013e-04	1.069292686e-11
-1.780000000e-02	1.340069226e-01	-2.403858739e-04	3.511447500e-11
-1.790000000e-02	1.340069229e-01	-2.390250463e-04	1.326469965e-11
-1.800000000e-02	1.340069232e-01	-2.376642186e-04	1.350393927e-11
-1.810000000e-02	1.340069234e-01	-2.363033909e-04	2.620763145e-11
-1.820000000e-02	1.340069236e-01	-2.349425630e-04	2.897521384e-11
-1.830000000e-02	1.340069237e-01	-2.335817351e-04	1.220569331e-11
-1.840000000e-02	1.340069239e-01	-2.322209071e-04	1.901640383e-11
-1.850000000e-02	1.340069239e-01	-2.308600791e-04	1.669275311e-11
-1.860000000e-02	1.340069240e-01	-2.294992509e-04	8.353458065e-12
-1.870000000e-02	1.340069239e-01	-2.281384227e-04	4.691496590e-11
-1.880000000e-02	1.340069239e-01	-2.267775944e-04	3.993551533e-12
-1.890000000e-02	1.340069238e-01	-2.254167660e-04	6.031635424e-12
-1.900000000e-02	1.340069237e-01	-2.240559376e-04	2.306327760e-11
-1.910000000e-02	1.340069235e-01	-2.226951090e-04	7.475832094e-12
-1.920000000e-02	1.340069233e-01	-2.213342805e-04	2.141689068e-11
-1.930000000e-02	1.340069230e-01	-2.199734518e-04	8.912150320e-12
-1.940000000e-02	1.340069227e-01	-2.186126231e-04	1.021540313e-11
-1.950000000e-02	1.340069223e-01	-2.172517944e-04	1.511526033e-11
-1.960000000e-02	1.340069220e-01	-2.158909656e-04	1.288323965e-11
-1.970000000e-02	1.340069215e-01	-2.145301367e-04	3.469872435e-11
-1.980000000e-02	1.340069211e-01	-2.131693078e-04	1.111202809e-11
-1.990000000e-02	1.340069206e-01	-2.118084788e-04	2.154316956e-11
-2.000000000e-02	1.340069200e-01	-2.104476498e-04	3.171836915e-11
-2.010000000e-02	1.340069194e-01	-2.090868207e-04	2.071613097e-11
-2.020000000e-02	1.340069188e-01	-2.077259916e-04	3.335034226e-11
-2.030000000e-02	1.340069181e-01	-2.063651625e-04	7.462918215e-12
-2.040000000e-02	1.340069174e-01	-2.050043333e-04	1.038112573e-11
-2.050000000e-02	1.340069166e-01	-2.036435041e-04	1.016789133e-11
-2.060000000e-02	1.340069158e-01	-2.022826748e-04	1.222646458e-11
-2.070000000e-02	1.340069150e-01	-2.009218455e-04	1.824353527e-11
-2.080000000e-02	1.340069141e-01	-1.995610162e-04	1.380678625e-11
-2.090000000e-02	1.340069132e-01	-1.982001868e-04	1.079546910e-11
-2.100000000e-02	1.340069122e-01	-1.968393574e-04	8.089688347e-12
-2.110000000e-02	1.340069112e-01	-1.954785280e-04	1.309202813e-11
-2.120000000e-02	1.340069102e-01	-1.941176986e-04	2.305091046e-11
-2.130000000e-02	1.340069091e-01	-1.927568691e-04	5.681810453e-12
-2.140000000e-02	1.340069080e-01	-1.913960397e-04	7.790269479e-12
-2.150000000e-02	1.340069068e-01	-1.900352102e-04	1.398016827e-11
-2.160000000e-02	1.340069056e-01	-1.886743807e-04	1.697851501e-11
-2.170000000e-02	1.340069043e-01	-1.873135512e-04	1.100155510e-11
-2.180000000e-02	1.340069030e-01	-1.859527216e-04	1.480567349e-11
-2.190000000e-02	1.340069017e-01	-1.845918921e-04	1.870816822e-11
-2.200000000e-02	1.340069003e-01	-1.832310626e-04	2.917367650e-11
-2.210000000e-02	1.340068989e-01	-1.818702330e-04	2.213266315e-11
-2.220000000e-02	1.340068974e-01	-1.805094035e-04	1.417107558e-11
-2.230000000e-02	1.340068959e-01	-1.791485739e-04	7.288293446e-12
-2.240000000e-02	1.340068944e-01	-1.777877444e-04	1.553458806e-11
-2.250000000e-02	1.340068928e-01	-1.764269148e-04	1.042606766e-11
-2.260000000e-02	1.340068912e-01	-1.750660853e-04	2.100879483e-11
-2.270000000e-02	1.340068895e-01	-1.737052558e-04	1.148903895e-11
-2.280000000e-02	1.340068878e-01	-1.723444263e-04	1.212661196e-11
-2.290000000e-02	1.340068861e-01	-1.709835967e-04	1.094522095e-11
-2.300000000e-02	1.340068843e-01	-1.696227673e-04	5.655005674e-11
-2.310000000e-02	1.340068824e-01	-1.682619378e-04	1.890481371e-11
-2.320000000e-02	1.340068806e-01	-1.669011083e-04	1.158486338e-11
-2.330000000e-02	1.340068787e-01	-1.655402789e-04	5.157590180e-12
-2.340000000e-02	1.340068767e-01	-1.641794495e-04	1.186606533e-11
-2.350000000e-02	1.340068747e-01	-1.628186201e-04	1.296212962e-11
-2.360000000e-02	1.340068727e-01	-1.614577907e-04	1.317676104e-11
-2.370000000e-02	1.340068706e-01	-1.600969614e-04	1.970991275e-11
-2.380000000e-02	1.340068685e-01	-1.587361321e-04	1.054468485e-11
-2.390000000e-02	1.340068663e-01	-1.573753028e-04	1.283168129e-11
-2.400000000e-02	1.340068641e-01	-1.560144736e-04	9.572055589e-12
-2.410000000e-02	1.340068619e-01	-1.546536444e-04	1.417152636e-11
-2.420000000e-02	1.340068596e-01	-1.532928153e-04	3.878146030e-11
-2.430000000e-02	1.340068572e-01	-1.519319862e-04	1.566253402e-11
-2.440000000e-02	1.340068549e-01	-1.505711571e-04	1.419604194e-11
-2.450000000e-02	1.340068525e-01	-1.492103281e-04	2.253902038e-11
-2.460000000e-02	1.340068500e-01	-1.478494991e-04	5.962114432e-12
-2.470000000e-02	1.340068475e-01	-1.464886702e-04	1.021038092e-11
-2.480000000e-02	1.340068450e-01	-1.451278413e-04	6.270095635e-12
-2.490000000e-02	1.340068424e-01	-1.437670125e-04	1.402940797e-11
-2.500000000e-02	1.340068398e-01	-1.424061837e-04	8.804840664e-12
-2.510000000e-02	1.340068371e-01	-1.410453550e-04	2.604340524e-11
-2.520000000e-02	1.340068344e-01	-1.396845264e-04	1.446098507e-11
-2.530000000e-02	1.340068317e-01	-1.383236978e-04	1.790353500e-11
-2.540000000e-02	1.340068289e-01	-1.369628693e-04	1.113471710e-11
-2.550000000e-02	1.340068261e-01	-1.356020408e-04	9.181171825e-12
-2.560000000e-02	1.340068232e-01	-1.342412124e-04	4.398343091e-12
-2.570000000e-02	1.340068203e-01	-1.328803841e-04	2.945195902e-11
-2.580000000e-02	1.340068174e-01	-1.315195559e-04	1.712159906e-11
-2.590000000e-02	1.340068144e-01	-1.301587277e-04	9.090802792e-12
-2.600000000e-02	1.340068113e-01	-1.287978997e-04	1.015428053e-11
-2.610000000e-02	1.340068083e-01	-1.274370716e-04	1.696157367e-11
-2.620000000e-02	1.340068052e-01	-1.260762437e-04	1.997606369e-11
-2.630000000e-02	1.340068020e-01	-1.247154159e-04	1.851300237e-11
-2.640000000e-02	1.340067988e-01	-1.233545881e-04	1.267966319e-11
-2.650000000e-02	1.340067956e-01	-1.219937605e-04	7.824570681e-12
-2.660000000e-02	1.340067923e-01	-1.206329329e-04	1.394253816e-11
-2.670000000e-02	1.340067890e-01	-1.192721054e-04	9.120062650e-12
-2.680000000e-02	1.340067856e-01	-1.179112780e-04	3.055751834e-11
-2.690000000e-02	1.340067822e-01	-1.165504507e-04	1.052215318e-11
-2.700000000e-02	1.340067788e-01	-1.151896235e-04	3.482641782e-11
-2.710000000e-02	1.340067753e-01	-1.138287964e-04	4.811359388e-11
-2.720000000e-02	1.340067717e-01	-1.124679694e-04	1.226849431e-11
-2.730000000e-02	1.340067682e-01	-1.111071425e-04	1.799981822e-11
-2.740000000e-02	1.340067646e-01	-1.097463157e-04	8.618421655e-12
-2.750000000e-02	1.340067609e-01	-1.083854891e-04	1.713009175e-11
-2.760000000e-02	1.340067572e-01	-1.070246625e-04	3.532579110e-11
-2.770000000e-02	1.340067535e-01	-1.056638360e-04	1.429561330e-10
-2.780000000e-02	1.340067497e-01	-1.043030097e-04	1.254105821e-11
-2.790000000e-02	1.340067459e-01	-1.029421835e-04	1.878051767e-11
-2.800000000e-02	1.340067420e-01	-1.015813574e-04	1.288254528e-11
-2.810000000e-02	1.340067381e-01	-1.002205314e-04	4.561608902e-11
-2.820000000e-02	1.340067342e-01	-9.885970553e-05	2.231142706e-11
-2.830000000e-02	1.340067302e-01	-9.749887979e-05	1.667163343e-11
-2.840000000e-02	1.340067262e-01	-9.613805419e-05	1.113761408e-11
-2.850000000e-02	1.340067221e-01	-9.477722872e-05	3.448593506e-11
-2.860000000e-02	1.340067180e-01	-9.341640337e-05	1.762596005e-11
-2.870000000e-02	1.340067139e-01	-9.205557815e-05	8.725109217e-12
-2.880000000e-02	1.340067097e-01	-9.069475308e-05	5.309270125e-12
-2.890000000e-02	1.340067055e-01	-8.933392814e-05	7.517846156e-12
-2.900000000e-02	1.340067012e-01	-8.797310334e-05	8.301850158e-12
-2.910000000e-02	1.340066969e-01	-8.661227868e-05	8.964774817e-12
-2.920000000e-02	1.340066925e-01	-8.525145416e-05	4.690116950e-11
-2.930000000e-02	1.340066881e-01	-8.389062980e-05	2.314597129e-11
-2.940000000e-02	1.340066837e-01	-8.252980558e-05	2.741315097e-11
-2.950000000e-02	1.340066792e-01	-8.116898151e-05	6.063176932e-12
-2.960000000e-02	1.340066747e-01	-7.980815760e-05	1.108991933e-11
-2.970000000e-02	1.340066701e-01	-7.844733383e-05	2.024948995e-11
-2.980000000e-02	1.340066655e-01	-7.708651023e-05	1.735620219e-11
-2.990000000e-02	1.340066609e-01	-7.572568678e-05	6.662882338e-12
-3.000000000e-02	1.340066562e-01	-7.436486348e-05	2.656910927e-11
