# Im(epsi1)     Re(omega/c)      Im(omega/c)      Eq(det).Opt det CON kz, R=0.5 \mum, mu_c=0.3, Re(epsi1)=3.90solve_det_conkz_vs_kz.py
0.000000000e+00	1.340010589e-01	-5.399786198e-04	1.309456123e-11
-1.000000000e-04	1.340010683e-01	-5.386193473e-04	1.648775783e-11
-2.000000000e-04	1.340010776e-01	-5.372600743e-04	1.072003225e-11
-3.000000000e-04	1.340010870e-01	-5.359008007e-04	1.179084317e-10
-4.000000000e-04	1.340010962e-01	-5.345415266e-04	3.089261957e-11
-5.000000000e-04	1.340011055e-01	-5.331822520e-04	2.035773345e-11
-6.000000000e-04	1.340011147e-01	-5.318229768e-04	5.798709921e-11
-7.000000000e-04	1.340011238e-01	-5.304637011e-04	9.752971195e-12
-8.000000000e-04	1.340011329e-01	-5.291044248e-04	1.553297839e-11
-9.000000000e-04	1.340011420e-01	-5.277451480e-04	1.891316291e-11
-1.000000000e-03	1.340011510e-01	-5.263858707e-04	1.014626455e-11
-1.100000000e-03	1.340011600e-01	-5.250265928e-04	2.137882322e-11
-1.200000000e-03	1.340011690e-01	-5.236673144e-04	7.416713454e-12
-1.300000000e-03	1.340011779e-01	-5.223080355e-04	2.194077694e-11
-1.400000000e-03	1.340011867e-01	-5.209487560e-04	1.473642296e-11
-1.500000000e-03	1.340011955e-01	-5.195894760e-04	1.611297682e-11
-1.600000000e-03	1.340012043e-01	-5.182301956e-04	1.002092257e-11
-1.700000000e-03	1.340012131e-01	-5.168709145e-04	8.612112576e-12
-1.800000000e-03	1.340012218e-01	-5.155116330e-04	1.422843323e-11
-1.900000000e-03	1.340012304e-01	-5.141523510e-04	3.638912024e-11
-2.000000000e-03	1.340012390e-01	-5.127930684e-04	1.156574681e-11
-2.100000000e-03	1.340012476e-01	-5.114337854e-04	1.388706589e-11
-2.200000000e-03	1.340012562e-01	-5.100745018e-04	1.655702440e-10
-2.300000000e-03	1.340012646e-01	-5.087152177e-04	1.452995732e-11
-2.400000000e-03	1.340012731e-01	-5.073559331e-04	2.767815068e-11
-2.500000000e-03	1.340012815e-01	-5.059966480e-04	6.181023109e-12
-2.600000000e-03	1.340012899e-01	-5.046373625e-04	1.477306944e-11
-2.700000000e-03	1.340012982e-01	-5.032780764e-04	1.264502571e-11
-2.800000000e-03	1.340013065e-01	-5.019187898e-04	9.391979574e-12
-2.900000000e-03	1.340013147e-01	-5.005595027e-04	1.193725429e-11
-3.000000000e-03	1.340013229e-01	-4.992002152e-04	2.139273060e-11
-3.100000000e-03	1.340013311e-01	-4.978409271e-04	1.994966777e-11
-3.200000000e-03	1.340013392e-01	-4.964816386e-04	1.259967885e-11
-3.300000000e-03	1.340013473e-01	-4.951223495e-04	1.290425699e-11
-3.400000000e-03	1.340013553e-01	-4.937630600e-04	2.282344222e-11
-3.500000000e-03	1.340013633e-01	-4.924037700e-04	1.148656429e-11
-3.600000000e-03	1.340013713e-01	-4.910444796e-04	1.427486203e-11
-3.700000000e-03	1.340013792e-01	-4.896851886e-04	9.510795265e-12
-3.800000000e-03	1.340013871e-01	-4.883258972e-04	8.814274362e-12
-3.900000000e-03	1.340013949e-01	-4.869666053e-04	6.950366949e-11
-4.000000000e-03	1.340014027e-01	-4.856073129e-04	2.978779991e-11
-4.100000000e-03	1.340014105e-01	-4.842480201e-04	8.577213611e-12
-4.200000000e-03	1.340014182e-01	-4.828887268e-04	6.618315024e-12
-4.300000000e-03	1.340014259e-01	-4.815294330e-04	5.447808520e-12
-4.400000000e-03	1.340014335e-01	-4.801701388e-04	7.775373839e-12
-4.500000000e-03	1.340014411e-01	-4.788108441e-04	3.926778888e-11
-4.600000000e-03	1.340014486e-01	-4.774515490e-04	1.691184699e-11
-4.700000000e-03	1.340014561e-01	-4.760922534e-04	1.639502615e-11
-4.800000000e-03	1.340014636e-01	-4.747329573e-04	1.205717194e-11
-4.900000000e-03	1.340014710e-01	-4.733736608e-04	1.352017219e-11
-5.000000000e-03	1.340014784e-01	-4.720143638e-04	1.743360460e-11
-5.100000000e-03	1.340014857e-01	-4.706550664e-04	1.325511644e-11
-5.200000000e-03	1.340014930e-01	-4.692957686e-04	7.408645845e-12
-5.300000000e-03	1.340015003e-01	-4.679364703e-04	1.339292504e-11
-5.400000000e-03	1.340015075e-01	-4.665771715e-04	8.388081613e-12
-5.500000000e-03	1.340015147e-01	-4.652178724e-04	1.087300046e-11
-5.600000000e-03	1.340015218e-01	-4.638585727e-04	9.047093030e-12
-5.700000000e-03	1.340015289e-01	-4.624992727e-04	8.690974832e-12
-5.800000000e-03	1.340015359e-01	-4.611399722e-04	7.400027684e-12
-5.900000000e-03	1.340015429e-01	-4.597806713e-04	1.248843346e-11
-6.000000000e-03	1.340015499e-01	-4.584213699e-04	7.860079214e-12
-6.100000000e-03	1.340015568e-01	-4.570620682e-04	1.785270528e-11
-6.200000000e-03	1.340015637e-01	-4.557027660e-04	8.030481957e-12
-6.300000000e-03	1.340015706e-01	-4.543434633e-04	1.077636806e-11
-6.400000000e-03	1.340015774e-01	-4.529841603e-04	1.244195291e-11
-6.500000000e-03	1.340015841e-01	-4.516248568e-04	7.015304317e-12
-6.600000000e-03	1.340015909e-01	-4.502655530e-04	7.512939699e-12
-6.700000000e-03	1.340015975e-01	-4.489062487e-04	1.225856184e-11
-6.800000000e-03	1.340016042e-01	-4.475469440e-04	1.690567426e-11
-6.900000000e-03	1.340016108e-01	-4.461876389e-04	1.418298616e-11
-7.000000000e-03	1.340016173e-01	-4.448283333e-04	1.654401607e-11
-7.100000000e-03	1.340016238e-01	-4.434690274e-04	2.098733229e-11
-7.200000000e-03	1.340016303e-01	-4.421097211e-04	6.235543801e-11
-7.300000000e-03	1.340016367e-01	-4.407504143e-04	1.752374295e-11
-7.400000000e-03	1.340016431e-01	-4.393911072e-04	7.298269035e-12
-7.500000000e-03	1.340016495e-01	-4.380317997e-04	8.343175083e-12
-7.600000000e-03	1.340016558e-01	-4.366724917e-04	1.076632133e-11
-7.700000000e-03	1.340016621e-01	-4.353131834e-04	1.555715291e-11
-7.800000000e-03	1.340016683e-01	-4.339538747e-04	5.488211035e-12
-7.900000000e-03	1.340016745e-01	-4.325945656e-04	8.915854073e-12
-8.000000000e-03	1.340016806e-01	-4.312352561e-04	2.627194925e-11
-8.100000000e-03	1.340016867e-01	-4.298759462e-04	7.560756647e-12
-8.200000000e-03	1.340016928e-01	-4.285166359e-04	3.039711813e-11
-8.300000000e-03	1.340016988e-01	-4.271573253e-04	6.165253257e-11
-8.400000000e-03	1.340017048e-01	-4.257980143e-04	8.988443341e-12
-8.500000000e-03	1.340017107e-01	-4.244387029e-04	2.768766824e-11
-8.600000000e-03	1.340017166e-01	-4.230793911e-04	1.379809911e-11
-8.700000000e-03	1.340017225e-01	-4.217200789e-04	1.838691334e-11
-8.800000000e-03	1.340017283e-01	-4.203607664e-04	6.847665552e-12
-8.900000000e-03	1.340017341e-01	-4.190014535e-04	1.895760005e-11
-9.000000000e-03	1.340017398e-01	-4.176421403e-04	2.379275541e-11
-9.100000000e-03	1.340017455e-01	-4.162828267e-04	3.622842282e-11
-9.200000000e-03	1.340017511e-01	-4.149235127e-04	8.772492168e-12
-9.300000000e-03	1.340017567e-01	-4.135641983e-04	8.252936667e-11
-9.400000000e-03	1.340017623e-01	-4.122048836e-04	2.407821520e-11
-9.500000000e-03	1.340017678e-01	-4.108455686e-04	1.580973979e-12
-9.600000000e-03	1.340017733e-01	-4.094862531e-04	1.035956180e-11
-9.700000000e-03	1.340017788e-01	-4.081269374e-04	8.650507806e-12
-9.800000000e-03	1.340017842e-01	-4.067676213e-04	2.336812624e-11
-9.900000000e-03	1.340017895e-01	-4.054083048e-04	6.359987650e-12
-1.000000000e-02	1.340017948e-01	-4.040489880e-04	1.442204150e-11
-1.010000000e-02	1.340018001e-01	-4.026896708e-04	8.033273446e-12
-1.020000000e-02	1.340018054e-01	-4.013303533e-04	1.034994144e-11
-1.030000000e-02	1.340018105e-01	-3.999710355e-04	9.592686886e-12
-1.040000000e-02	1.340018157e-01	-3.986117173e-04	6.962752166e-12
-1.050000000e-02	1.340018208e-01	-3.972523988e-04	1.372754487e-11
-1.060000000e-02	1.340018259e-01	-3.958930800e-04	1.061445719e-11
-1.070000000e-02	1.340018309e-01	-3.945337608e-04	4.313695621e-12
-1.080000000e-02	1.340018359e-01	-3.931744413e-04	1.082210091e-11
-1.090000000e-02	1.340018409e-01	-3.918151215e-04	3.964488677e-11
-1.100000000e-02	1.340018458e-01	-3.904558013e-04	6.018451469e-12
-1.110000000e-02	1.340018506e-01	-3.890964808e-04	1.539706537e-11
-1.120000000e-02	1.340018555e-01	-3.877371600e-04	1.512918346e-11
-1.130000000e-02	1.340018602e-01	-3.863778389e-04	2.647340496e-11
-1.140000000e-02	1.340018650e-01	-3.850185175e-04	2.139070175e-11
-1.150000000e-02	1.340018697e-01	-3.836591957e-04	7.305097010e-12
-1.160000000e-02	1.340018743e-01	-3.822998737e-04	4.690927504e-11
-1.170000000e-02	1.340018790e-01	-3.809405513e-04	1.570831155e-11
-1.180000000e-02	1.340018835e-01	-3.795812286e-04	6.828677460e-12
-1.190000000e-02	1.340018881e-01	-3.782219056e-04	8.377222153e-12
-1.200000000e-02	1.340018926e-01	-3.768625823e-04	1.431450934e-11
-1.210000000e-02	1.340018970e-01	-3.755032587e-04	7.163333269e-12
-1.220000000e-02	1.340019014e-01	-3.741439348e-04	1.378073379e-11
-1.230000000e-02	1.340019058e-01	-3.727846106e-04	5.962047769e-12
-1.240000000e-02	1.340019101e-01	-3.714252862e-04	1.310747873e-11
-1.250000000e-02	1.340019144e-01	-3.700659614e-04	1.168725850e-11
-1.260000000e-02	1.340019187e-01	-3.687066363e-04	2.512595421e-11
-1.270000000e-02	1.340019229e-01	-3.673473109e-04	7.397132341e-11
-1.280000000e-02	1.340019270e-01	-3.659879853e-04	8.811231155e-12
-1.290000000e-02	1.340019312e-01	-3.646286593e-04	5.773236178e-12
-1.300000000e-02	1.340019352e-01	-3.632693331e-04	9.932046286e-11
-1.310000000e-02	1.340019393e-01	-3.619100066e-04	1.058646208e-11
-1.320000000e-02	1.340019433e-01	-3.605506798e-04	2.108404080e-11
-1.330000000e-02	1.340019472e-01	-3.591913528e-04	3.656167981e-11
-1.340000000e-02	1.340019512e-01	-3.578320254e-04	5.702275174e-12
-1.350000000e-02	1.340019550e-01	-3.564726978e-04	1.563765761e-11
-1.360000000e-02	1.340019589e-01	-3.551133699e-04	1.118528709e-11
-1.370000000e-02	1.340019627e-01	-3.537540418e-04	1.741039294e-11
-1.380000000e-02	1.340019664e-01	-3.523947134e-04	9.580192949e-12
-1.390000000e-02	1.340019701e-01	-3.510353847e-04	5.417800587e-12
-1.400000000e-02	1.340019738e-01	-3.496760557e-04	1.052761553e-11
-1.410000000e-02	1.340019774e-01	-3.483167265e-04	1.742434905e-11
-1.420000000e-02	1.340019810e-01	-3.469573971e-04	1.341144325e-11
-1.430000000e-02	1.340019846e-01	-3.455980674e-04	4.515648010e-11
-1.440000000e-02	1.340019881e-01	-3.442387374e-04	2.495885097e-11
-1.450000000e-02	1.340019915e-01	-3.428794072e-04	7.522401429e-12
-1.460000000e-02	1.340019950e-01	-3.415200767e-04	1.110085702e-11
-1.470000000e-02	1.340019983e-01	-3.401607460e-04	2.363956369e-11
-1.480000000e-02	1.340020017e-01	-3.388014150e-04	1.151548657e-11
-1.490000000e-02	1.340020050e-01	-3.374420838e-04	1.290257721e-11
-1.500000000e-02	1.340020082e-01	-3.360827523e-04	8.966558094e-12
-1.510000000e-02	1.340020115e-01	-3.347234206e-04	9.796818364e-12
-1.520000000e-02	1.340020146e-01	-3.333640887e-04	8.002673964e-12
-1.530000000e-02	1.340020178e-01	-3.320047565e-04	1.851274076e-11
-1.540000000e-02	1.340020209e-01	-3.306454241e-04	2.234942218e-11
-1.550000000e-02	1.340020239e-01	-3.292860915e-04	1.566359140e-11
-1.560000000e-02	1.340020269e-01	-3.279267586e-04	2.969021726e-11
-1.570000000e-02	1.340020299e-01	-3.265674255e-04	1.570569050e-11
-1.580000000e-02	1.340020328e-01	-3.252080922e-04	9.881771312e-12
-1.590000000e-02	1.340020357e-01	-3.238487586e-04	2.236066005e-11
-1.600000000e-02	1.340020386e-01	-3.224894249e-04	3.337141534e-11
-1.610000000e-02	1.340020414e-01	-3.211300909e-04	1.140809712e-11
-1.620000000e-02	1.340020441e-01	-3.197707567e-04	2.373822814e-11
-1.630000000e-02	1.340020468e-01	-3.184114223e-04	1.097245840e-11
-1.640000000e-02	1.340020495e-01	-3.170520877e-04	2.105225235e-11
-1.650000000e-02	1.340020522e-01	-3.156927528e-04	1.696045225e-11
-1.660000000e-02	1.340020548e-01	-3.143334178e-04	1.225293209e-11
-1.670000000e-02	1.340020573e-01	-3.129740825e-04	1.596529449e-11
-1.680000000e-02	1.340020598e-01	-3.116147471e-04	1.905080768e-11
-1.690000000e-02	1.340020623e-01	-3.102554114e-04	6.370118613e-12
-1.700000000e-02	1.340020647e-01	-3.088960755e-04	2.384284419e-11
-1.710000000e-02	1.340020671e-01	-3.075367395e-04	3.806319393e-11
-1.720000000e-02	1.340020695e-01	-3.061774032e-04	1.189254955e-11
-1.730000000e-02	1.340020718e-01	-3.048180668e-04	1.508011402e-11
-1.740000000e-02	1.340020741e-01	-3.034587301e-04	7.853219969e-12
-1.750000000e-02	1.340020763e-01	-3.020993933e-04	1.181991288e-11
-1.760000000e-02	1.340020785e-01	-3.007400563e-04	9.035325477e-12
-1.770000000e-02	1.340020806e-01	-2.993807191e-04	1.280225067e-11
-1.780000000e-02	1.340020827e-01	-2.980213817e-04	1.615452523e-11
-1.790000000e-02	1.340020848e-01	-2.966620441e-04	6.162435584e-11
-1.800000000e-02	1.340020868e-01	-2.953027064e-04	1.206663339e-11
-1.810000000e-02	1.340020888e-01	-2.939433684e-04	1.856928524e-11
-1.820000000e-02	1.340020907e-01	-2.925840303e-04	3.729585838e-11
-1.830000000e-02	1.340020926e-01	-2.912246921e-04	9.535594831e-12
-1.840000000e-02	1.340020945e-01	-2.898653536e-04	1.332389511e-11
-1.850000000e-02	1.340020963e-01	-2.885060150e-04	1.311719481e-11
-1.860000000e-02	1.340020981e-01	-2.871466762e-04	6.003377453e-12
-1.870000000e-02	1.340020998e-01	-2.857873373e-04	1.728434771e-11
-1.880000000e-02	1.340021015e-01	-2.844279982e-04	8.872032267e-12
-1.890000000e-02	1.340021032e-01	-2.830686589e-04	2.735357596e-11
-1.900000000e-02	1.340021048e-01	-2.817093195e-04	3.134177487e-11
-1.910000000e-02	1.340021063e-01	-2.803499799e-04	1.164586021e-11
-1.920000000e-02	1.340021079e-01	-2.789906401e-04	2.222495237e-11
-1.930000000e-02	1.340021093e-01	-2.776313002e-04	1.973079604e-11
-1.940000000e-02	1.340021108e-01	-2.762719602e-04	1.091651792e-11
-1.950000000e-02	1.340021122e-01	-2.749126200e-04	1.705466567e-11
-1.960000000e-02	1.340021136e-01	-2.735532797e-04	1.332413415e-11
-1.970000000e-02	1.340021149e-01	-2.721939392e-04	1.736496815e-11
-1.980000000e-02	1.340021162e-01	-2.708345986e-04	1.323121985e-11
-1.990000000e-02	1.340021174e-01	-2.694752578e-04	1.406331203e-11
-2.000000000e-02	1.340021186e-01	-2.681159169e-04	1.417399393e-11
-2.010000000e-02	1.340021197e-01	-2.667565758e-04	9.616655636e-12
-2.020000000e-02	1.340021209e-01	-2.653972347e-04	8.492576823e-12
-2.030000000e-02	1.340021219e-01	-2.640378934e-04	6.139523479e-12
-2.040000000e-02	1.340021230e-01	-2.626785519e-04	9.657770364e-12
-2.050000000e-02	1.340021240e-01	-2.613192104e-04	1.045343520e-11
-2.060000000e-02	1.340021249e-01	-2.599598687e-04	9.034272479e-12
-2.070000000e-02	1.340021258e-01	-2.586005269e-04	1.435020207e-11
-2.080000000e-02	1.340021267e-01	-2.572411849e-04	1.655560340e-11
-2.090000000e-02	1.340021275e-01	-2.558818429e-04	1.299766155e-11
-2.100000000e-02	1.340021283e-01	-2.545225007e-04	2.967019914e-11
-2.110000000e-02	1.340021290e-01	-2.531631584e-04	6.685975663e-12
-2.120000000e-02	1.340021297e-01	-2.518038160e-04	8.349675924e-12
-2.130000000e-02	1.340021304e-01	-2.504444735e-04	7.503006932e-12
-2.140000000e-02	1.340021310e-01	-2.490851309e-04	8.045820978e-12
-2.150000000e-02	1.340021316e-01	-2.477257882e-04	1.183279236e-11
-2.160000000e-02	1.340021321e-01	-2.463664454e-04	1.664816039e-11
-2.170000000e-02	1.340021326e-01	-2.450071024e-04	1.338799817e-11
-2.180000000e-02	1.340021331e-01	-2.436477594e-04	9.217143273e-12
-2.190000000e-02	1.340021335e-01	-2.422884163e-04	6.445821888e-12
-2.200000000e-02	1.340021339e-01	-2.409290731e-04	3.803235856e-12
-2.210000000e-02	1.340021342e-01	-2.395697297e-04	4.539683088e-11
-2.220000000e-02	1.340021345e-01	-2.382103863e-04	1.818513211e-11
-2.230000000e-02	1.340021347e-01	-2.368510428e-04	2.342536728e-11
-2.240000000e-02	1.340021350e-01	-2.354916992e-04	1.800540504e-11
-2.250000000e-02	1.340021351e-01	-2.341323556e-04	2.752738536e-11
-2.260000000e-02	1.340021352e-01	-2.327730118e-04	7.294842538e-12
-2.270000000e-02	1.340021353e-01	-2.314136680e-04	1.810809207e-11
-2.280000000e-02	1.340021354e-01	-2.300543240e-04	2.520834290e-11
-2.290000000e-02	1.340021354e-01	-2.286949800e-04	5.821871941e-12
-2.300000000e-02	1.340021353e-01	-2.273356360e-04	1.516683388e-11
-2.310000000e-02	1.340021353e-01	-2.259762918e-04	2.561503924e-11
-2.320000000e-02	1.340021351e-01	-2.246169476e-04	1.951137724e-11
-2.330000000e-02	1.340021350e-01	-2.232576033e-04	1.417123650e-11
-2.340000000e-02	1.340021348e-01	-2.218982590e-04	1.983186139e-11
-2.350000000e-02	1.340021345e-01	-2.205389145e-04	8.013969376e-12
-2.360000000e-02	1.340021342e-01	-2.191795701e-04	2.378305431e-11
-2.370000000e-02	1.340021339e-01	-2.178202255e-04	1.512365935e-11
-2.380000000e-02	1.340021335e-01	-2.164608809e-04	1.208420307e-10
-2.390000000e-02	1.340021331e-01	-2.151015362e-04	6.932265809e-12
-2.400000000e-02	1.340021327e-01	-2.137421915e-04	1.319124181e-11
-2.410000000e-02	1.340021322e-01	-2.123828468e-04	5.532922499e-11
-2.420000000e-02	1.340021316e-01	-2.110235019e-04	1.154323392e-11
-2.430000000e-02	1.340021311e-01	-2.096641571e-04	1.332362935e-11
-2.440000000e-02	1.340021305e-01	-2.083048122e-04	8.290100025e-12
-2.450000000e-02	1.340021298e-01	-2.069454672e-04	1.222163393e-11
-2.460000000e-02	1.340021291e-01	-2.055861222e-04	9.719427232e-12
-2.470000000e-02	1.340021284e-01	-2.042267772e-04	1.537675421e-11
-2.480000000e-02	1.340021276e-01	-2.028674321e-04	1.185942310e-11
-2.490000000e-02	1.340021267e-01	-2.015080870e-04	8.290127216e-12
-2.500000000e-02	1.340021259e-01	-2.001487418e-04	7.048650072e-12
-2.510000000e-02	1.340021250e-01	-1.987893967e-04	4.377378897e-12
-2.520000000e-02	1.340021240e-01	-1.974300515e-04	2.567309084e-11
-2.530000000e-02	1.340021230e-01	-1.960707062e-04	8.089989702e-12
-2.540000000e-02	1.340021220e-01	-1.947113610e-04	7.398752585e-12
-2.550000000e-02	1.340021209e-01	-1.933520157e-04	3.868484800e-11
-2.560000000e-02	1.340021198e-01	-1.919926704e-04	5.460606197e-12
-2.570000000e-02	1.340021187e-01	-1.906333250e-04	1.011844050e-10
-2.580000000e-02	1.340021175e-01	-1.892739797e-04	9.372283142e-12
-2.590000000e-02	1.340021163e-01	-1.879146343e-04	6.347728769e-12
-2.600000000e-02	1.340021150e-01	-1.865552890e-04	4.990071922e-11
-2.610000000e-02	1.340021137e-01	-1.851959436e-04	6.104097720e-12
-2.620000000e-02	1.340021123e-01	-1.838365982e-04	3.596956804e-11
-2.630000000e-02	1.340021109e-01	-1.824772528e-04	9.979085678e-12
-2.640000000e-02	1.340021095e-01	-1.811179074e-04	1.258381763e-11
-2.650000000e-02	1.340021080e-01	-1.797585620e-04	5.216603214e-11
-2.660000000e-02	1.340021065e-01	-1.783992166e-04	1.294193696e-11
-2.670000000e-02	1.340021049e-01	-1.770398712e-04	1.228077058e-11
-2.680000000e-02	1.340021033e-01	-1.756805258e-04	1.612703915e-11
-2.690000000e-02	1.340021016e-01	-1.743211804e-04	9.972285281e-12
-2.700000000e-02	1.340020999e-01	-1.729618350e-04	1.037138291e-11
-2.710000000e-02	1.340020982e-01	-1.716024896e-04	5.316751032e-12
-2.720000000e-02	1.340020964e-01	-1.702431443e-04	6.681819105e-11
-2.730000000e-02	1.340020946e-01	-1.688837989e-04	9.534272323e-12
-2.740000000e-02	1.340020928e-01	-1.675244536e-04	2.326128989e-11
-2.750000000e-02	1.340020909e-01	-1.661651083e-04	6.447093200e-11
-2.760000000e-02	1.340020889e-01	-1.648057630e-04	8.314032588e-12
-2.770000000e-02	1.340020870e-01	-1.634464177e-04	3.224463248e-11
-2.780000000e-02	1.340020850e-01	-1.620870724e-04	1.438001809e-11
-2.790000000e-02	1.340020829e-01	-1.607277272e-04	1.860212872e-11
-2.800000000e-02	1.340020808e-01	-1.593683820e-04	4.783699920e-12
-2.810000000e-02	1.340020787e-01	-1.580090369e-04	2.914886955e-11
-2.820000000e-02	1.340020765e-01	-1.566496917e-04	1.681639682e-11
-2.830000000e-02	1.340020742e-01	-1.552903466e-04	8.782501265e-12
-2.840000000e-02	1.340020720e-01	-1.539310016e-04	1.525041363e-11
-2.850000000e-02	1.340020697e-01	-1.525716565e-04	1.097510657e-11
-2.860000000e-02	1.340020673e-01	-1.512123116e-04	1.723792444e-11
-2.870000000e-02	1.340020649e-01	-1.498529666e-04	2.401105461e-11
-2.880000000e-02	1.340020625e-01	-1.484936217e-04	1.532194320e-11
-2.890000000e-02	1.340020600e-01	-1.471342769e-04	1.213542577e-11
-2.900000000e-02	1.340020575e-01	-1.457749321e-04	2.458490284e-11
-2.910000000e-02	1.340020550e-01	-1.444155874e-04	2.185619462e-11
-2.920000000e-02	1.340020524e-01	-1.430562427e-04	1.342043289e-11
-2.930000000e-02	1.340020497e-01	-1.416968980e-04	1.216808208e-11
-2.940000000e-02	1.340020471e-01	-1.403375535e-04	4.554456792e-11
-2.950000000e-02	1.340020443e-01	-1.389782089e-04	1.834649686e-11
-2.960000000e-02	1.340020416e-01	-1.376188645e-04	1.572233870e-11
-2.970000000e-02	1.340020388e-01	-1.362595201e-04	1.745138785e-11
-2.980000000e-02	1.340020359e-01	-1.349001758e-04	1.138579931e-11
-2.990000000e-02	1.340020330e-01	-1.335408315e-04	2.142012343e-11
-3.000000000e-02	1.340020301e-01	-1.321814873e-04	2.681319929e-11
