# Im(epsi1)     Re(omega/c)      Im(omega/c)      Eq(det).Opt det CON kz, R=0.5 \mum, mu_c=0.3, Re(epsi1)=3.90solve_det_conkz_vs_kz.py
0.000000000e+00	1.339251631e-01	-5.738330114e-04	1.201760095e-12
-1.000000000e-04	1.339251724e-01	-5.724672228e-04	1.979305460e-11
-2.000000000e-04	1.339251816e-01	-5.711014332e-04	3.931461109e-11
-3.000000000e-04	1.339251908e-01	-5.697356426e-04	1.392798446e-11
-4.000000000e-04	1.339252000e-01	-5.683698509e-04	5.975725755e-12
-5.000000000e-04	1.339252091e-01	-5.670040582e-04	2.356038977e-11
-6.000000000e-04	1.339252181e-01	-5.656382645e-04	3.068223657e-11
-7.000000000e-04	1.339252272e-01	-5.642724698e-04	1.244525212e-11
-8.000000000e-04	1.339252362e-01	-5.629066740e-04	6.689023134e-12
-9.000000000e-04	1.339252451e-01	-5.615408772e-04	2.155759640e-11
-1.000000000e-03	1.339252540e-01	-5.601750795e-04	2.532566464e-11
-1.100000000e-03	1.339252629e-01	-5.588092807e-04	1.469036658e-11
-1.200000000e-03	1.339252717e-01	-5.574434809e-04	1.935230047e-11
-1.300000000e-03	1.339252805e-01	-5.560776800e-04	6.139880369e-12
-1.400000000e-03	1.339252893e-01	-5.547118782e-04	9.718846915e-12
-1.500000000e-03	1.339252980e-01	-5.533460754e-04	7.286576525e-11
-1.600000000e-03	1.339253067e-01	-5.519802716e-04	1.589684369e-11
-1.700000000e-03	1.339253153e-01	-5.506144668e-04	5.368510202e-11
-1.900000000e-03	1.339253325e-01	-5.478828543e-04	5.936071723e-11
-2.000000000e-03	1.339253410e-01	-5.465170465e-04	1.016401470e-11
-2.100000000e-03	1.339253495e-01	-5.451512378e-04	5.705671668e-11
-2.200000000e-03	1.339253579e-01	-5.437854281e-04	1.258040340e-11
-2.300000000e-03	1.339253663e-01	-5.424196174e-04	2.840573594e-11
-2.400000000e-03	1.339253747e-01	-5.410538057e-04	1.153193085e-11
-2.600000000e-03	1.339253913e-01	-5.383221795e-04	1.264273519e-11
-2.700000000e-03	1.339253995e-01	-5.369563649e-04	9.497520155e-12
-2.800000000e-03	1.339254077e-01	-5.355905494e-04	3.040776660e-11
-2.900000000e-03	1.339254159e-01	-5.342247329e-04	4.113443958e-11
-3.000000000e-03	1.339254240e-01	-5.328589155e-04	5.959331028e-11
-3.100000000e-03	1.339254321e-01	-5.314930971e-04	5.797689880e-12
-3.200000000e-03	1.339254401e-01	-5.301272778e-04	4.479548783e-12
-3.300000000e-03	1.339254482e-01	-5.287614575e-04	1.751720139e-11
-3.400000000e-03	1.339254561e-01	-5.273956363e-04	1.046690787e-11
-3.500000000e-03	1.339254641e-01	-5.260298141e-04	2.507723785e-11
-3.600000000e-03	1.339254719e-01	-5.246639911e-04	6.487606534e-12
-3.700000000e-03	1.339254798e-01	-5.232981670e-04	3.817933188e-12
-3.800000000e-03	1.339254876e-01	-5.219323421e-04	2.963541137e-11
-3.900000000e-03	1.339254954e-01	-5.205665162e-04	2.050869157e-11
-4.000000000e-03	1.339255031e-01	-5.192006894e-04	1.115194492e-11
-4.100000000e-03	1.339255108e-01	-5.178348617e-04	4.694454567e-11
-4.200000000e-03	1.339255185e-01	-5.164690330e-04	6.225830331e-12
-4.300000000e-03	1.339255261e-01	-5.151032034e-04	3.467719090e-11
-4.400000000e-03	1.339255337e-01	-5.137373730e-04	2.131881746e-11
-4.500000000e-03	1.339255412e-01	-5.123715416e-04	4.332798734e-11
-4.600000000e-03	1.339255487e-01	-5.110057093e-04	3.513475923e-12
-4.700000000e-03	1.339255562e-01	-5.096398761e-04	3.077416348e-11
-4.800000000e-03	1.339255636e-01	-5.082740420e-04	2.948081580e-12
-4.900000000e-03	1.339255710e-01	-5.069082070e-04	1.760131325e-11
-5.000000000e-03	1.339255783e-01	-5.055423711e-04	6.052968257e-12
-5.100000000e-03	1.339255856e-01	-5.041765343e-04	6.824496725e-12
-5.300000000e-03	1.339256001e-01	-5.014448581e-04	4.413615831e-12
-5.400000000e-03	1.339256073e-01	-5.000790187e-04	9.740132285e-12
-5.500000000e-03	1.339256144e-01	-4.987131783e-04	2.320165708e-11
-5.600000000e-03	1.339256216e-01	-4.973473372e-04	3.316977567e-11
-5.700000000e-03	1.339256286e-01	-4.959814951e-04	6.497991086e-11
-5.800000000e-03	1.339256357e-01	-4.946156521e-04	4.350450352e-12
-5.900000000e-03	1.339256426e-01	-4.932498083e-04	1.721084672e-11
-6.000000000e-03	1.339256496e-01	-4.918839637e-04	2.280993495e-11
-6.100000000e-03	1.339256565e-01	-4.905181181e-04	1.445212820e-11
-6.200000000e-03	1.339256634e-01	-4.891522717e-04	1.805906958e-12
-6.300000000e-03	1.339256702e-01	-4.877864245e-04	2.986211591e-11
-6.400000000e-03	1.339256770e-01	-4.864205764e-04	1.024940300e-11
-6.500000000e-03	1.339256838e-01	-4.850547274e-04	1.550847340e-11
-6.600000000e-03	1.339256905e-01	-4.836888776e-04	7.582213222e-12
-6.700000000e-03	1.339256972e-01	-4.823230270e-04	7.305797130e-12
-6.900000000e-03	1.339257104e-01	-4.795913231e-04	6.922943238e-11
-7.000000000e-03	1.339257170e-01	-4.782254700e-04	4.409987937e-11
-7.100000000e-03	1.339257235e-01	-4.768596160e-04	2.189193412e-11
-7.200000000e-03	1.339257300e-01	-4.754937611e-04	2.070285746e-11
-7.400000000e-03	1.339257428e-01	-4.727620490e-04	1.283963710e-11
-7.500000000e-03	1.339257492e-01	-4.713961917e-04	2.686213841e-11
-7.600000000e-03	1.339257555e-01	-4.700303336e-04	6.601900632e-11
-7.700000000e-03	1.339257618e-01	-4.686644747e-04	2.785109304e-11
-7.800000000e-03	1.339257680e-01	-4.672986149e-04	2.901613189e-12
-7.900000000e-03	1.339257742e-01	-4.659327544e-04	4.262762973e-11
-8.000000000e-03	1.339257804e-01	-4.645668930e-04	1.096583811e-11
-8.100000000e-03	1.339257865e-01	-4.632010309e-04	8.308704111e-12
-8.200000000e-03	1.339257926e-01	-4.618351679e-04	3.075794746e-11
-8.300000000e-03	1.339257987e-01	-4.604693042e-04	9.700676747e-12
-8.400000000e-03	1.339258047e-01	-4.591034396e-04	1.665047649e-11
-8.600000000e-03	1.339258166e-01	-4.563717081e-04	9.785509339e-12
-8.700000000e-03	1.339258225e-01	-4.550058412e-04	2.679884190e-11
-8.800000000e-03	1.339258283e-01	-4.536399735e-04	3.716872623e-11
-8.900000000e-03	1.339258341e-01	-4.522741050e-04	6.834376974e-12
-9.000000000e-03	1.339258399e-01	-4.509082358e-04	6.211173228e-12
-9.100000000e-03	1.339258456e-01	-4.495423658e-04	6.485754706e-12
-9.200000000e-03	1.339258513e-01	-4.481764950e-04	1.678871630e-11
-9.300000000e-03	1.339258570e-01	-4.468106234e-04	6.430752733e-11
-9.500000000e-03	1.339258682e-01	-4.440788780e-04	1.373010637e-11
-9.600000000e-03	1.339258737e-01	-4.427130042e-04	1.329623358e-11
-9.700000000e-03	1.339258792e-01	-4.413471296e-04	5.915213623e-11
-9.800000000e-03	1.339258847e-01	-4.399812542e-04	1.822905073e-11
-9.900000000e-03	1.339258901e-01	-4.386153781e-04	2.708990252e-11
-1.000000000e-02	1.339258955e-01	-4.372495012e-04	5.419594538e-12
-1.010000000e-02	1.339259009e-01	-4.358836237e-04	1.908784301e-11
-1.020000000e-02	1.339259062e-01	-4.345177453e-04	3.961836464e-11
-1.030000000e-02	1.339259114e-01	-4.331518662e-04	3.110028189e-11
-1.040000000e-02	1.339259167e-01	-4.317859864e-04	7.825328446e-12
-1.050000000e-02	1.339259218e-01	-4.304201059e-04	1.670394596e-11
-1.060000000e-02	1.339259270e-01	-4.290542246e-04	5.233738618e-11
-1.070000000e-02	1.339259321e-01	-4.276883426e-04	2.582657158e-11
-1.080000000e-02	1.339259372e-01	-4.263224599e-04	2.606175963e-11
-1.090000000e-02	1.339259422e-01	-4.249565765e-04	2.627315105e-11
-1.100000000e-02	1.339259472e-01	-4.235906923e-04	3.053513924e-11
-1.110000000e-02	1.339259521e-01	-4.222248075e-04	3.833749140e-11
-1.120000000e-02	1.339259571e-01	-4.208589219e-04	6.240858863e-12
-1.130000000e-02	1.339259619e-01	-4.194930356e-04	9.248619450e-12
-1.140000000e-02	1.339259668e-01	-4.181271486e-04	2.624915887e-11
-1.150000000e-02	1.339259716e-01	-4.167612609e-04	3.678608545e-12
-1.160000000e-02	1.339259763e-01	-4.153953726e-04	4.711794018e-12
-1.170000000e-02	1.339259810e-01	-4.140294835e-04	6.856722741e-12
-1.180000000e-02	1.339259857e-01	-4.126635937e-04	2.335829455e-11
-1.190000000e-02	1.339259904e-01	-4.112977032e-04	5.418567261e-12
-1.200000000e-02	1.339259950e-01	-4.099318121e-04	9.102504216e-12
-1.210000000e-02	1.339259995e-01	-4.085659202e-04	1.586130837e-11
-1.220000000e-02	1.339260040e-01	-4.072000277e-04	9.531011623e-12
-1.230000000e-02	1.339260085e-01	-4.058341345e-04	2.422306956e-11
-1.240000000e-02	1.339260130e-01	-4.044682406e-04	1.581828467e-11
-1.250000000e-02	1.339260174e-01	-4.031023461e-04	6.446102317e-12
-1.260000000e-02	1.339260217e-01	-4.017364509e-04	8.928113085e-12
-1.270000000e-02	1.339260261e-01	-4.003705550e-04	7.949416520e-12
-1.280000000e-02	1.339260304e-01	-3.990046585e-04	8.963139362e-12
-1.290000000e-02	1.339260346e-01	-3.976387613e-04	1.786118171e-11
-1.300000000e-02	1.339260388e-01	-3.962728634e-04	2.586211721e-12
-1.310000000e-02	1.339260430e-01	-3.949069649e-04	1.469969227e-11
-1.320000000e-02	1.339260471e-01	-3.935410657e-04	2.939556391e-12
-1.330000000e-02	1.339260512e-01	-3.921751659e-04	2.735331783e-11
-1.340000000e-02	1.339260552e-01	-3.908092655e-04	5.472591758e-11
-1.350000000e-02	1.339260593e-01	-3.894433644e-04	1.564690161e-11
-1.360000000e-02	1.339260632e-01	-3.880774626e-04	1.790189310e-11
-1.370000000e-02	1.339260672e-01	-3.867115602e-04	1.227140497e-11
-1.380000000e-02	1.339260711e-01	-3.853456572e-04	1.045911907e-11
-1.390000000e-02	1.339260749e-01	-3.839797536e-04	1.086614923e-11
-1.400000000e-02	1.339260787e-01	-3.826138493e-04	5.021394333e-12
-1.410000000e-02	1.339260825e-01	-3.812479444e-04	4.200816675e-12
-1.420000000e-02	1.339260863e-01	-3.798820389e-04	1.577288652e-11
-1.430000000e-02	1.339260900e-01	-3.785161328e-04	5.888584275e-11
-1.440000000e-02	1.339260936e-01	-3.771502260e-04	2.907429491e-11
-1.450000000e-02	1.339260972e-01	-3.757843187e-04	2.763927641e-11
-1.460000000e-02	1.339261008e-01	-3.744184107e-04	5.403289551e-12
-1.470000000e-02	1.339261044e-01	-3.730525021e-04	1.162408271e-11
-1.480000000e-02	1.339261079e-01	-3.716865930e-04	7.014540819e-12
-1.490000000e-02	1.339261113e-01	-3.703206832e-04	7.675076029e-12
-1.500000000e-02	1.339261147e-01	-3.689547728e-04	2.288321863e-11
-1.510000000e-02	1.339261181e-01	-3.675888618e-04	1.990790358e-11
-1.520000000e-02	1.339261215e-01	-3.662229503e-04	9.417413115e-11
-1.530000000e-02	1.339261248e-01	-3.648570381e-04	1.081787770e-11
-1.540000000e-02	1.339261281e-01	-3.634911254e-04	1.562875532e-11
-1.550000000e-02	1.339261313e-01	-3.621252121e-04	1.581280779e-11
-1.560000000e-02	1.339261345e-01	-3.607592982e-04	2.734106176e-12
-1.570000000e-02	1.339261376e-01	-3.593933837e-04	7.303483091e-12
-1.580000000e-02	1.339261407e-01	-3.580274686e-04	7.274501024e-13
-1.590000000e-02	1.339261438e-01	-3.566615530e-04	4.685492813e-12
-1.600000000e-02	1.339261468e-01	-3.552956368e-04	5.495741912e-11
-1.610000000e-02	1.339261498e-01	-3.539297201e-04	2.312655970e-11
-1.620000000e-02	1.339261528e-01	-3.525638027e-04	6.667625117e-12
-1.630000000e-02	1.339261557e-01	-3.511978849e-04	1.167580216e-11
-1.640000000e-02	1.339261586e-01	-3.498319664e-04	1.266999181e-10
-1.650000000e-02	1.339261614e-01	-3.484660475e-04	1.407737490e-11
-1.660000000e-02	1.339261642e-01	-3.471001279e-04	1.679751104e-11
-1.670000000e-02	1.339261670e-01	-3.457342079e-04	2.211327313e-11
-1.680000000e-02	1.339261697e-01	-3.443682872e-04	7.334417089e-12
-1.690000000e-02	1.339261724e-01	-3.430023661e-04	3.030667270e-11
-1.700000000e-02	1.339261750e-01	-3.416364444e-04	3.116434543e-12
-1.710000000e-02	1.339261776e-01	-3.402705221e-04	3.585789328e-12
-1.720000000e-02	1.339261802e-01	-3.389045994e-04	1.670895537e-11
-1.730000000e-02	1.339261827e-01	-3.375386761e-04	9.544741638e-12
-1.740000000e-02	1.339261852e-01	-3.361727522e-04	9.486038723e-11
-1.750000000e-02	1.339261876e-01	-3.348068279e-04	7.576278169e-12
-1.760000000e-02	1.339261900e-01	-3.334409030e-04	1.294450636e-11
-1.770000000e-02	1.339261924e-01	-3.320749776e-04	2.692095100e-11
-1.780000000e-02	1.339261947e-01	-3.307090518e-04	4.916598942e-11
-1.790000000e-02	1.339261970e-01	-3.293431253e-04	2.825773642e-11
-1.800000000e-02	1.339261993e-01	-3.279771984e-04	1.565865261e-11
-1.810000000e-02	1.339262015e-01	-3.266112710e-04	2.370240704e-11
-1.820000000e-02	1.339262037e-01	-3.252453431e-04	5.140458876e-11
-1.830000000e-02	1.339262058e-01	-3.238794147e-04	1.709062259e-11
-1.840000000e-02	1.339262079e-01	-3.225134857e-04	1.529668083e-11
-1.850000000e-02	1.339262099e-01	-3.211475563e-04	4.984326919e-12
-1.860000000e-02	1.339262120e-01	-3.197816264e-04	1.703342764e-11
-1.870000000e-02	1.339262139e-01	-3.184156960e-04	1.401064450e-11
-1.880000000e-02	1.339262159e-01	-3.170497652e-04	1.122862358e-11
-1.890000000e-02	1.339262178e-01	-3.156838338e-04	1.271702442e-11
-1.900000000e-02	1.339262196e-01	-3.143179020e-04	9.000787971e-11
-1.910000000e-02	1.339262214e-01	-3.129519697e-04	1.337850348e-11
-1.920000000e-02	1.339262232e-01	-3.115860369e-04	1.219394343e-12
-1.930000000e-02	1.339262250e-01	-3.102201037e-04	1.195474391e-11
-1.940000000e-02	1.339262267e-01	-3.088541699e-04	2.324983791e-11
-1.950000000e-02	1.339262283e-01	-3.074882358e-04	1.753855926e-11
-1.960000000e-02	1.339262299e-01	-3.061223011e-04	8.180935287e-11
-1.970000000e-02	1.339262315e-01	-3.047563660e-04	6.935344792e-12
-1.980000000e-02	1.339262331e-01	-3.033904305e-04	6.898543111e-12
-1.990000000e-02	1.339262346e-01	-3.020244945e-04	8.504231177e-12
-2.000000000e-02	1.339262360e-01	-3.006585580e-04	1.231199538e-11
-2.010000000e-02	1.339262375e-01	-2.992926212e-04	4.948051837e-12
-2.020000000e-02	1.339262389e-01	-2.979266838e-04	1.175511981e-11
-2.030000000e-02	1.339262402e-01	-2.965607460e-04	7.620183691e-13
-2.040000000e-02	1.339262415e-01	-2.951948078e-04	3.430343262e-11
-2.050000000e-02	1.339262428e-01	-2.938288692e-04	1.557468312e-11
-2.060000000e-02	1.339262440e-01	-2.924629301e-04	1.552258815e-11
-2.070000000e-02	1.339262452e-01	-2.910969906e-04	3.790621361e-12
-2.080000000e-02	1.339262464e-01	-2.897310507e-04	1.904279032e-11
-2.090000000e-02	1.339262475e-01	-2.883651103e-04	1.107535969e-11
-2.100000000e-02	1.339262486e-01	-2.869991696e-04	1.459314512e-11
-2.110000000e-02	1.339262496e-01	-2.856332284e-04	4.871066090e-12
-2.120000000e-02	1.339262506e-01	-2.842672868e-04	2.535437803e-11
-2.130000000e-02	1.339262515e-01	-2.829013448e-04	1.731645975e-11
-2.140000000e-02	1.339262525e-01	-2.815354024e-04	2.518275194e-11
-2.170000000e-02	1.339262550e-01	-2.774375728e-04	4.161676764e-11
-2.180000000e-02	1.339262557e-01	-2.760716288e-04	4.470867075e-11
-2.190000000e-02	1.339262565e-01	-2.747056844e-04	7.135613640e-11
-2.200000000e-02	1.339262571e-01	-2.733397396e-04	3.110754541e-12
-2.210000000e-02	1.339262578e-01	-2.719737944e-04	1.705643451e-11
-2.220000000e-02	1.339262584e-01	-2.706078489e-04	1.327145094e-11
-2.230000000e-02	1.339262590e-01	-2.692419029e-04	9.529056429e-12
-2.240000000e-02	1.339262595e-01	-2.678759566e-04	1.346686823e-11
-2.250000000e-02	1.339262600e-01	-2.665100100e-04	4.049271713e-12
-2.260000000e-02	1.339262604e-01	-2.651440629e-04	3.364800650e-12
-2.270000000e-02	1.339262608e-01	-2.637781155e-04	1.399537563e-11
-2.280000000e-02	1.339262612e-01	-2.624121677e-04	5.359694763e-11
-2.290000000e-02	1.339262615e-01	-2.610462196e-04	1.847906816e-11
-2.300000000e-02	1.339262618e-01	-2.596802711e-04	2.050138699e-11
-2.310000000e-02	1.339262621e-01	-2.583143222e-04	1.122989763e-11
-2.320000000e-02	1.339262623e-01	-2.569483730e-04	3.470315431e-11
-2.350000000e-02	1.339262627e-01	-2.528505233e-04	1.956055403e-11
-2.360000000e-02	1.339262627e-01	-2.514845727e-04	2.236352324e-11
-2.370000000e-02	1.339262628e-01	-2.501186218e-04	5.642209037e-12
-2.380000000e-02	1.339262627e-01	-2.487526705e-04	3.143049639e-12
-2.390000000e-02	1.339262627e-01	-2.473867189e-04	7.681416970e-12
-2.400000000e-02	1.339262626e-01	-2.460207670e-04	9.003476862e-12
-2.410000000e-02	1.339262624e-01	-2.446548147e-04	1.583159147e-11
-2.420000000e-02	1.339262623e-01	-2.432888622e-04	6.844367173e-12
-2.430000000e-02	1.339262620e-01	-2.419229093e-04	4.195256069e-12
-2.440000000e-02	1.339262618e-01	-2.405569561e-04	8.562258614e-12
-2.450000000e-02	1.339262615e-01	-2.391910026e-04	1.979666370e-11
-2.460000000e-02	1.339262612e-01	-2.378250487e-04	2.967363866e-11
-2.470000000e-02	1.339262608e-01	-2.364590946e-04	5.359931795e-11
-2.480000000e-02	1.339262604e-01	-2.350931402e-04	2.385441835e-11
-2.510000000e-02	1.339262589e-01	-2.309952750e-04	2.718086944e-11
-2.520000000e-02	1.339262583e-01	-2.296293194e-04	1.765475906e-11
-2.530000000e-02	1.339262577e-01	-2.282633635e-04	2.106993910e-11
-2.540000000e-02	1.339262571e-01	-2.268974073e-04	3.458586205e-11
-2.550000000e-02	1.339262564e-01	-2.255314508e-04	2.832955094e-11
-2.560000000e-02	1.339262557e-01	-2.241654940e-04	1.766680628e-11
-2.570000000e-02	1.339262549e-01	-2.227995370e-04	1.412191989e-11
-2.580000000e-02	1.339262541e-01	-2.214335797e-04	3.553492977e-12
-2.590000000e-02	1.339262532e-01	-2.200676221e-04	7.752063016e-12
-2.600000000e-02	1.339262524e-01	-2.187016642e-04	3.674069655e-11
-2.610000000e-02	1.339262514e-01	-2.173357061e-04	7.182826295e-12
-2.620000000e-02	1.339262505e-01	-2.159697477e-04	2.329240844e-11
-2.640000000e-02	1.339262484e-01	-2.132378301e-04	2.255297695e-11
-2.650000000e-02	1.339262473e-01	-2.118718710e-04	2.219539816e-11
-2.660000000e-02	1.339262462e-01	-2.105059116e-04	7.811631129e-12
-2.670000000e-02	1.339262451e-01	-2.091399519e-04	4.908323972e-11
-2.680000000e-02	1.339262439e-01	-2.077739920e-04	2.359951523e-11
-2.690000000e-02	1.339262426e-01	-2.064080319e-04	5.869341590e-12
-2.700000000e-02	1.339262414e-01	-2.050420715e-04	1.734045812e-11
-2.710000000e-02	1.339262401e-01	-2.036761109e-04	2.670456401e-11
-2.720000000e-02	1.339262387e-01	-2.023101500e-04	1.411358158e-12
-2.730000000e-02	1.339262373e-01	-2.009441890e-04	1.399722802e-11
-2.740000000e-02	1.339262359e-01	-1.995782277e-04	3.305316762e-11
-2.750000000e-02	1.339262344e-01	-1.982122661e-04	1.399668037e-10
-2.760000000e-02	1.339262329e-01	-1.968463044e-04	2.018214090e-11
-2.770000000e-02	1.339262313e-01	-1.954803424e-04	9.762019781e-11
-2.780000000e-02	1.339262298e-01	-1.941143802e-04	4.108386379e-11
-2.790000000e-02	1.339262281e-01	-1.927484178e-04	1.065444879e-11
-2.810000000e-02	1.339262248e-01	-1.900164924e-04	2.082476435e-11
-2.820000000e-02	1.339262230e-01	-1.886505294e-04	2.643727867e-12
-2.840000000e-02	1.339262194e-01	-1.859186028e-04	4.867420300e-12
-2.850000000e-02	1.339262175e-01	-1.845526392e-04	5.134055474e-12
-2.860000000e-02	1.339262156e-01	-1.831866754e-04	2.003363088e-11
-2.870000000e-02	1.339262137e-01	-1.818207115e-04	4.195368647e-11
-2.880000000e-02	1.339262117e-01	-1.804547473e-04	3.532832789e-11
-2.890000000e-02	1.339262097e-01	-1.790887830e-04	9.075978341e-11
-2.900000000e-02	1.339262076e-01	-1.777228184e-04	8.059739439e-11
-2.910000000e-02	1.339262055e-01	-1.763568537e-04	1.500882174e-11
-2.920000000e-02	1.339262034e-01	-1.749908889e-04	1.849292589e-11
-2.940000000e-02	1.339261990e-01	-1.722589586e-04	6.114634334e-12
-2.950000000e-02	1.339261968e-01	-1.708929933e-04	2.130031792e-11
-2.960000000e-02	1.339261945e-01	-1.695270277e-04	2.147504328e-11
-2.980000000e-02	1.339261898e-01	-1.667950962e-04	1.511418438e-11
-3.000000000e-02	1.339261849e-01	-1.640631641e-04	1.743935591e-11
-3.010000000e-02	1.339261824e-01	-1.626971978e-04	2.060584336e-11
-3.020000000e-02	1.339261799e-01	-1.613312314e-04	2.766783142e-11
-3.030000000e-02	1.339261773e-01	-1.599652648e-04	1.910381460e-10
-3.040000000e-02	1.339261747e-01	-1.585992981e-04	1.564679577e-11
-3.050000000e-02	1.339261721e-01	-1.572333313e-04	1.225601116e-11
-3.060000000e-02	1.339261694e-01	-1.558673643e-04	1.949855127e-11
-3.070000000e-02	1.339261667e-01	-1.545013972e-04	1.598152915e-11
-3.080000000e-02	1.339261639e-01	-1.531354300e-04	9.782798474e-12
-3.090000000e-02	1.339261611e-01	-1.517694627e-04	2.390060610e-11
-3.100000000e-02	1.339261583e-01	-1.504034952e-04	3.924056704e-12
-3.110000000e-02	1.339261554e-01	-1.490375276e-04	1.939241556e-11
-3.120000000e-02	1.339261525e-01	-1.476715599e-04	2.393480542e-11
-3.130000000e-02	1.339261495e-01	-1.463055921e-04	7.218146431e-11
-3.140000000e-02	1.339261465e-01	-1.449396242e-04	4.288021624e-11
-3.150000000e-02	1.339261435e-01	-1.435736562e-04	1.140634512e-11
-3.160000000e-02	1.339261404e-01	-1.422076881e-04	3.001075312e-12
-3.170000000e-02	1.339261373e-01	-1.408417199e-04	1.872024468e-11
-3.180000000e-02	1.339261341e-01	-1.394757516e-04	2.330677441e-11
-3.190000000e-02	1.339261309e-01	-1.381097832e-04	1.943125643e-11
