# Im(epsi1)     Re(omega/c)      Im(omega/c)      Eq(det).Opt det CON kz, R=0.5 \mum, mu_c=0.3, Re(epsi1)=3.90solve_det_conkz_vs_kz.py
0.000000000e+00	1.340059728e-01	-4.820207462e-04	2.692576738e-11
-1.000000000e-04	1.340059804e-01	-4.806599507e-04	1.310494852e-11
-2.000000000e-04	1.340059880e-01	-4.792991547e-04	1.873975900e-11
-3.000000000e-04	1.340059956e-01	-4.779383583e-04	2.031041440e-11
-4.000000000e-04	1.340060032e-01	-4.765775614e-04	1.947676978e-11
-5.000000000e-04	1.340060106e-01	-4.752167641e-04	7.584031291e-12
-6.000000000e-04	1.340060181e-01	-4.738559663e-04	1.370790963e-11
-7.000000000e-04	1.340060255e-01	-4.724951680e-04	3.477586634e-11
-8.000000000e-04	1.340060329e-01	-4.711343693e-04	8.092353180e-12
-9.000000000e-04	1.340060402e-01	-4.697735702e-04	1.067730138e-11
-1.000000000e-03	1.340060475e-01	-4.684127706e-04	9.548069596e-11
-1.100000000e-03	1.340060547e-01	-4.670519706e-04	1.126230725e-11
-1.200000000e-03	1.340060619e-01	-4.656911701e-04	9.910454292e-12
-1.300000000e-03	1.340060691e-01	-4.643303692e-04	7.667284792e-11
-1.400000000e-03	1.340060762e-01	-4.629695679e-04	1.573994375e-11
-1.500000000e-03	1.340060833e-01	-4.616087661e-04	1.820279613e-11
-1.600000000e-03	1.340060903e-01	-4.602479639e-04	1.146056590e-11
-1.700000000e-03	1.340060973e-01	-4.588871613e-04	4.605512927e-11
-1.800000000e-03	1.340061043e-01	-4.575263582e-04	1.124579767e-11
-1.900000000e-03	1.340061112e-01	-4.561655547e-04	1.581368377e-11
-2.000000000e-03	1.340061181e-01	-4.548047508e-04	3.306917128e-11
-2.100000000e-03	1.340061249e-01	-4.534439465e-04	1.107645532e-11
-2.200000000e-03	1.340061317e-01	-4.520831417e-04	1.334787758e-11
-2.300000000e-03	1.340061384e-01	-4.507223366e-04	5.678270972e-11
-2.400000000e-03	1.340061451e-01	-4.493615310e-04	1.115203086e-11
-2.500000000e-03	1.340061518e-01	-4.480007250e-04	1.204799218e-11
-2.600000000e-03	1.340061584e-01	-4.466399186e-04	1.496728732e-11
-2.700000000e-03	1.340061650e-01	-4.452791118e-04	3.689023878e-11
-2.800000000e-03	1.340061716e-01	-4.439183046e-04	9.964858825e-12
-2.900000000e-03	1.340061781e-01	-4.425574970e-04	1.541290626e-11
-3.000000000e-03	1.340061845e-01	-4.411966889e-04	1.019153029e-11
-3.100000000e-03	1.340061909e-01	-4.398358805e-04	1.833338819e-11
-3.200000000e-03	1.340061973e-01	-4.384750717e-04	1.495252020e-11
-3.300000000e-03	1.340062037e-01	-4.371142625e-04	4.871056080e-12
-3.400000000e-03	1.340062099e-01	-4.357534529e-04	1.340207961e-11
-3.500000000e-03	1.340062162e-01	-4.343926429e-04	1.120970192e-11
-3.600000000e-03	1.340062224e-01	-4.330318325e-04	2.294587271e-11
-3.700000000e-03	1.340062286e-01	-4.316710217e-04	7.670426547e-12
-3.800000000e-03	1.340062347e-01	-4.303102105e-04	2.744329890e-11
-3.900000000e-03	1.340062408e-01	-4.289493990e-04	1.525923613e-11
-4.000000000e-03	1.340062468e-01	-4.275885870e-04	2.287029329e-11
-4.100000000e-03	1.340062528e-01	-4.262277747e-04	6.401247281e-12
-4.200000000e-03	1.340062588e-01	-4.248669621e-04	2.114040918e-11
-4.300000000e-03	1.340062647e-01	-4.235061490e-04	3.067920208e-11
-4.400000000e-03	1.340062706e-01	-4.221453356e-04	4.117021983e-11
-4.500000000e-03	1.340062765e-01	-4.207845218e-04	2.441025948e-11
-4.600000000e-03	1.340062823e-01	-4.194237076e-04	9.411645505e-12
-4.700000000e-03	1.340062880e-01	-4.180628930e-04	1.760338251e-11
-4.800000000e-03	1.340062937e-01	-4.167020781e-04	1.777511194e-11
-4.900000000e-03	1.340062994e-01	-4.153412629e-04	1.865233468e-11
-5.000000000e-03	1.340063050e-01	-4.139804472e-04	1.274871289e-11
-5.100000000e-03	1.340063106e-01	-4.126196313e-04	9.820097901e-12
-5.200000000e-03	1.340063162e-01	-4.112588149e-04	2.233407857e-11
-5.300000000e-03	1.340063217e-01	-4.098979982e-04	1.065863494e-11
-5.400000000e-03	1.340063271e-01	-4.085371812e-04	1.391278038e-11
-5.500000000e-03	1.340063326e-01	-4.071763638e-04	1.926202209e-11
-5.600000000e-03	1.340063380e-01	-4.058155460e-04	8.080232812e-12
-5.700000000e-03	1.340063433e-01	-4.044547280e-04	1.187851025e-11
-5.800000000e-03	1.340063486e-01	-4.030939095e-04	9.670212591e-12
-5.900000000e-03	1.340063539e-01	-4.017330907e-04	1.350233951e-11
-6.000000000e-03	1.340063591e-01	-4.003722716e-04	2.330382157e-11
-6.100000000e-03	1.340063643e-01	-3.990114522e-04	2.083504855e-11
-6.200000000e-03	1.340063694e-01	-3.976506324e-04	5.379916881e-12
-6.300000000e-03	1.340063745e-01	-3.962898123e-04	2.324428459e-11
-6.400000000e-03	1.340063795e-01	-3.949289918e-04	1.605413654e-11
-6.500000000e-03	1.340063846e-01	-3.935681710e-04	1.776921406e-11
-6.600000000e-03	1.340063895e-01	-3.922073499e-04	1.215518289e-11
-6.700000000e-03	1.340063945e-01	-3.908465285e-04	9.269838558e-12
-6.800000000e-03	1.340063993e-01	-3.894857067e-04	9.308226168e-12
-6.900000000e-03	1.340064042e-01	-3.881248847e-04	5.336715261e-12
-7.000000000e-03	1.340064090e-01	-3.867640623e-04	1.176690453e-11
-7.100000000e-03	1.340064138e-01	-3.854032396e-04	4.039298369e-11
-7.200000000e-03	1.340064185e-01	-3.840424165e-04	1.012844597e-11
-7.300000000e-03	1.340064232e-01	-3.826815932e-04	2.021376138e-11
-7.400000000e-03	1.340064278e-01	-3.813207696e-04	1.452179748e-11
-7.500000000e-03	1.340064324e-01	-3.799599456e-04	1.554339934e-11
-7.600000000e-03	1.340064370e-01	-3.785991213e-04	9.609083939e-12
-7.700000000e-03	1.340064415e-01	-3.772382968e-04	1.088596448e-11
-7.800000000e-03	1.340064460e-01	-3.758774719e-04	6.238377669e-12
-7.900000000e-03	1.340064504e-01	-3.745166467e-04	1.652574065e-11
-8.000000000e-03	1.340064548e-01	-3.731558213e-04	2.464222252e-11
-8.100000000e-03	1.340064591e-01	-3.717949955e-04	2.554733602e-11
-8.200000000e-03	1.340064634e-01	-3.704341694e-04	1.115639934e-11
-8.300000000e-03	1.340064677e-01	-3.690733431e-04	2.005457690e-11
-8.400000000e-03	1.340064719e-01	-3.677125165e-04	1.697699190e-11
-8.500000000e-03	1.340064761e-01	-3.663516895e-04	8.603087167e-12
-8.600000000e-03	1.340064803e-01	-3.649908623e-04	5.839663419e-12
-8.700000000e-03	1.340064844e-01	-3.636300348e-04	5.764263420e-11
-8.800000000e-03	1.340064884e-01	-3.622692071e-04	2.882859316e-11
-8.900000000e-03	1.340064925e-01	-3.609083790e-04	1.459305753e-11
-9.000000000e-03	1.340064964e-01	-3.595475507e-04	2.208549917e-11
-9.100000000e-03	1.340065004e-01	-3.581867221e-04	1.816704944e-11
-9.200000000e-03	1.340065043e-01	-3.568258932e-04	9.995231515e-12
-9.300000000e-03	1.340065081e-01	-3.554650641e-04	1.972754385e-11
-9.400000000e-03	1.340065119e-01	-3.541042347e-04	2.923532315e-11
-9.500000000e-03	1.340065157e-01	-3.527434050e-04	1.627710322e-11
-9.600000000e-03	1.340065194e-01	-3.513825750e-04	9.610365390e-12
-9.700000000e-03	1.340065231e-01	-3.500217448e-04	4.745432643e-12
-9.800000000e-03	1.340065268e-01	-3.486609144e-04	8.586401321e-12
-9.900000000e-03	1.340065304e-01	-3.473000836e-04	1.583277284e-11
-1.000000000e-02	1.340065339e-01	-3.459392526e-04	1.190950178e-11
-1.010000000e-02	1.340065375e-01	-3.445784214e-04	5.941345911e-12
-1.020000000e-02	1.340065410e-01	-3.432175899e-04	1.056894377e-11
-1.030000000e-02	1.340065444e-01	-3.418567582e-04	4.890339361e-12
-1.040000000e-02	1.340065478e-01	-3.404959262e-04	1.980319731e-11
-1.050000000e-02	1.340065512e-01	-3.391350940e-04	1.137358827e-11
-1.060000000e-02	1.340065545e-01	-3.377742615e-04	2.450192405e-11
-1.070000000e-02	1.340065577e-01	-3.364134288e-04	9.845263182e-12
-1.080000000e-02	1.340065610e-01	-3.350525958e-04	1.640551359e-11
-1.090000000e-02	1.340065642e-01	-3.336917626e-04	4.761351286e-12
-1.100000000e-02	1.340065673e-01	-3.323309292e-04	4.352243880e-11
-1.110000000e-02	1.340065704e-01	-3.309700956e-04	1.104058850e-11
-1.120000000e-02	1.340065735e-01	-3.296092617e-04	1.088767876e-11
-1.130000000e-02	1.340065765e-01	-3.282484275e-04	1.067531122e-11
-1.140000000e-02	1.340065795e-01	-3.268875932e-04	6.294775046e-11
-1.150000000e-02	1.340065825e-01	-3.255267586e-04	9.857778796e-12
-1.160000000e-02	1.340065854e-01	-3.241659238e-04	1.585529243e-11
-1.170000000e-02	1.340065882e-01	-3.228050888e-04	1.868119325e-11
-1.180000000e-02	1.340065911e-01	-3.214442536e-04	1.103692481e-11
-1.190000000e-02	1.340065938e-01	-3.200834181e-04	1.483019864e-11
-1.200000000e-02	1.340065966e-01	-3.187225825e-04	1.589582650e-11
-1.210000000e-02	1.340065993e-01	-3.173617466e-04	7.952329418e-12
-1.220000000e-02	1.340066019e-01	-3.160009105e-04	9.787841039e-12
-1.230000000e-02	1.340066045e-01	-3.146400742e-04	9.208747599e-12
-1.240000000e-02	1.340066071e-01	-3.132792377e-04	8.640885087e-12
-1.250000000e-02	1.340066097e-01	-3.119184010e-04	7.924227187e-12
-1.260000000e-02	1.340066121e-01	-3.105575641e-04	1.943056981e-11
-1.270000000e-02	1.340066146e-01	-3.091967270e-04	2.881039833e-11
-1.280000000e-02	1.340066170e-01	-3.078358897e-04	1.200982270e-11
-1.290000000e-02	1.340066194e-01	-3.064750522e-04	1.502636482e-11
-1.300000000e-02	1.340066217e-01	-3.051142145e-04	1.202601978e-11
-1.310000000e-02	1.340066240e-01	-3.037533767e-04	9.890037062e-12
-1.320000000e-02	1.340066262e-01	-3.023925386e-04	5.585743907e-11
-1.330000000e-02	1.340066284e-01	-3.010317003e-04	4.000836634e-11
-1.340000000e-02	1.340066306e-01	-2.996708619e-04	7.338981376e-12
-1.350000000e-02	1.340066327e-01	-2.983100233e-04	8.227866378e-12
-1.360000000e-02	1.340066348e-01	-2.969491845e-04	7.617912123e-12
-1.370000000e-02	1.340066368e-01	-2.955883455e-04	2.311582317e-11
-1.380000000e-02	1.340066388e-01	-2.942275063e-04	2.557706213e-11
-1.390000000e-02	1.340066408e-01	-2.928666670e-04	4.807577586e-11
-1.400000000e-02	1.340066427e-01	-2.915058275e-04	1.950166554e-11
-1.410000000e-02	1.340066445e-01	-2.901449878e-04	1.048152714e-11
-1.420000000e-02	1.340066464e-01	-2.887841479e-04	6.877099219e-12
-1.430000000e-02	1.340066482e-01	-2.874233079e-04	7.516139890e-12
-1.440000000e-02	1.340066499e-01	-2.860624678e-04	3.533118149e-12
-1.450000000e-02	1.340066516e-01	-2.847016274e-04	1.515777682e-11
-1.460000000e-02	1.340066533e-01	-2.833407869e-04	1.559662377e-11
-1.470000000e-02	1.340066549e-01	-2.819799463e-04	7.332046338e-12
-1.480000000e-02	1.340066565e-01	-2.806191054e-04	7.707291413e-12
-1.490000000e-02	1.340066580e-01	-2.792582645e-04	7.649778505e-12
-1.500000000e-02	1.340066595e-01	-2.778974234e-04	5.400894889e-11
-1.510000000e-02	1.340066610e-01	-2.765365821e-04	8.600568015e-12
-1.520000000e-02	1.340066624e-01	-2.751757407e-04	7.402241878e-11
-1.530000000e-02	1.340066638e-01	-2.738148991e-04	5.517315578e-11
-1.540000000e-02	1.340066651e-01	-2.724540574e-04	1.882956095e-11
-1.550000000e-02	1.340066664e-01	-2.710932156e-04	3.025985016e-11
-1.560000000e-02	1.340066676e-01	-2.697323736e-04	1.047679780e-11
-1.570000000e-02	1.340066689e-01	-2.683715315e-04	2.962166032e-11
-1.580000000e-02	1.340066700e-01	-2.670106892e-04	8.985606380e-12
-1.590000000e-02	1.340066711e-01	-2.656498468e-04	8.552295999e-12
-1.600000000e-02	1.340066722e-01	-2.642890043e-04	1.345001981e-11
-1.610000000e-02	1.340066733e-01	-2.629281617e-04	8.578856080e-12
-1.620000000e-02	1.340066743e-01	-2.615673189e-04	7.560981880e-12
-1.630000000e-02	1.340066752e-01	-2.602064760e-04	1.039177930e-11
-1.640000000e-02	1.340066762e-01	-2.588456330e-04	2.343052956e-11
-1.650000000e-02	1.340066770e-01	-2.574847898e-04	1.466303992e-11
-1.660000000e-02	1.340066779e-01	-2.561239465e-04	2.285817604e-11
-1.670000000e-02	1.340066787e-01	-2.547631032e-04	9.076135781e-12
-1.680000000e-02	1.340066794e-01	-2.534022597e-04	1.375980357e-11
-1.690000000e-02	1.340066801e-01	-2.520414161e-04	7.386201712e-12
-1.700000000e-02	1.340066808e-01	-2.506805724e-04	1.497987722e-11
-1.710000000e-02	1.340066814e-01	-2.493197286e-04	2.209310788e-11
-1.720000000e-02	1.340066820e-01	-2.479588846e-04	3.990446645e-11
-1.730000000e-02	1.340066826e-01	-2.465980406e-04	9.669772524e-12
-1.740000000e-02	1.340066831e-01	-2.452371965e-04	6.303206120e-12
-1.750000000e-02	1.340066835e-01	-2.438763522e-04	1.136902002e-11
-1.760000000e-02	1.340066840e-01	-2.425155079e-04	3.947605956e-11
-1.770000000e-02	1.340066844e-01	-2.411546635e-04	1.318969775e-11
-1.780000000e-02	1.340066847e-01	-2.397938190e-04	1.290033048e-11
-1.790000000e-02	1.340066850e-01	-2.384329744e-04	1.139772240e-11
-1.800000000e-02	1.340066853e-01	-2.370721297e-04	1.409549130e-11
-1.810000000e-02	1.340066855e-01	-2.357112849e-04	1.465614037e-11
-1.820000000e-02	1.340066856e-01	-2.343504400e-04	1.680001834e-11
-1.830000000e-02	1.340066858e-01	-2.329895951e-04	1.116755512e-11
-1.840000000e-02	1.340066859e-01	-2.316287501e-04	9.497636482e-12
-1.850000000e-02	1.340066859e-01	-2.302679049e-04	6.900843938e-12
-1.860000000e-02	1.340066859e-01	-2.289070598e-04	4.414270751e-11
-1.870000000e-02	1.340066859e-01	-2.275462145e-04	5.745256873e-12
-1.880000000e-02	1.340066858e-01	-2.261853692e-04	2.747691180e-11
-1.890000000e-02	1.340066857e-01	-2.248245238e-04	8.428932124e-12
-1.900000000e-02	1.340066856e-01	-2.234636783e-04	1.789890764e-11
-1.910000000e-02	1.340066854e-01	-2.221028328e-04	7.452816378e-11
-1.920000000e-02	1.340066851e-01	-2.207419872e-04	1.003568883e-11
-1.930000000e-02	1.340066848e-01	-2.193811415e-04	2.462984431e-11
-1.940000000e-02	1.340066845e-01	-2.180202958e-04	1.068496585e-10
-1.950000000e-02	1.340066842e-01	-2.166594500e-04	1.493548763e-11
-1.960000000e-02	1.340066838e-01	-2.152986042e-04	2.343142888e-11
-1.970000000e-02	1.340066833e-01	-2.139377583e-04	4.977859744e-12
-1.980000000e-02	1.340066828e-01	-2.125769123e-04	2.402773853e-11
-1.990000000e-02	1.340066823e-01	-2.112160664e-04	4.750281331e-11
-2.000000000e-02	1.340066817e-01	-2.098552203e-04	1.069949907e-11
-2.010000000e-02	1.340066811e-01	-2.084943742e-04	3.139815697e-11
-2.020000000e-02	1.340066805e-01	-2.071335281e-04	2.829838760e-11
-2.030000000e-02	1.340066798e-01	-2.057726819e-04	2.889338723e-11
-2.040000000e-02	1.340066790e-01	-2.044118357e-04	1.740763857e-11
-2.050000000e-02	1.340066783e-01	-2.030509895e-04	1.073594176e-11
-2.060000000e-02	1.340066775e-01	-2.016901432e-04	4.481455347e-11
-2.070000000e-02	1.340066766e-01	-2.003292969e-04	6.145661276e-12
-2.080000000e-02	1.340066757e-01	-1.989684506e-04	1.041346755e-11
-2.090000000e-02	1.340066748e-01	-1.976076042e-04	2.219309239e-11
-2.100000000e-02	1.340066738e-01	-1.962467578e-04	6.456186028e-12
-2.110000000e-02	1.340066728e-01	-1.948859114e-04	1.274585741e-11
-2.120000000e-02	1.340066717e-01	-1.935250650e-04	6.269025286e-12
-2.130000000e-02	1.340066706e-01	-1.921642185e-04	9.124323931e-12
-2.140000000e-02	1.340066694e-01	-1.908033720e-04	1.321928197e-11
-2.150000000e-02	1.340066682e-01	-1.894425255e-04	2.018244684e-11
-2.160000000e-02	1.340066670e-01	-1.880816790e-04	1.212080197e-11
-2.170000000e-02	1.340066657e-01	-1.867208325e-04	2.026943769e-11
-2.180000000e-02	1.340066644e-01	-1.853599860e-04	1.358409726e-11
-2.190000000e-02	1.340066631e-01	-1.839991394e-04	9.808946455e-12
-2.200000000e-02	1.340066617e-01	-1.826382929e-04	1.466978153e-11
-2.210000000e-02	1.340066602e-01	-1.812774464e-04	1.430866359e-11
-2.220000000e-02	1.340066588e-01	-1.799165998e-04	1.215448725e-11
-2.230000000e-02	1.340066573e-01	-1.785557533e-04	1.571407236e-11
-2.240000000e-02	1.340066557e-01	-1.771949067e-04	1.128249880e-11
-2.250000000e-02	1.340066541e-01	-1.758340602e-04	1.143382766e-11
-2.260000000e-02	1.340066524e-01	-1.744732137e-04	4.889527691e-12
-2.270000000e-02	1.340066508e-01	-1.731123671e-04	1.453342250e-11
-2.280000000e-02	1.340066490e-01	-1.717515206e-04	4.051773689e-11
-2.290000000e-02	1.340066473e-01	-1.703906741e-04	2.214610433e-11
-2.300000000e-02	1.340066455e-01	-1.690298277e-04	1.879106467e-11
-2.310000000e-02	1.340066436e-01	-1.676689812e-04	1.960872823e-11
-2.320000000e-02	1.340066417e-01	-1.663081347e-04	9.816614988e-12
-2.330000000e-02	1.340066398e-01	-1.649472883e-04	5.242430849e-12
-2.340000000e-02	1.340066378e-01	-1.635864419e-04	1.791406258e-11
-2.350000000e-02	1.340066358e-01	-1.622255956e-04	1.802777360e-11
-2.360000000e-02	1.340066337e-01	-1.608647492e-04	1.161393456e-11
-2.370000000e-02	1.340066316e-01	-1.595039029e-04	1.407632657e-11
-2.380000000e-02	1.340066295e-01	-1.581430566e-04	2.646501484e-11
-2.390000000e-02	1.340066273e-01	-1.567822104e-04	7.372454981e-12
-2.400000000e-02	1.340066251e-01	-1.554213642e-04	8.917827386e-12
-2.410000000e-02	1.340066228e-01	-1.540605180e-04	7.093684731e-12
-2.420000000e-02	1.340066205e-01	-1.526996719e-04	1.981289867e-11
-2.430000000e-02	1.340066182e-01	-1.513388258e-04	9.853685496e-12
-2.440000000e-02	1.340066158e-01	-1.499779797e-04	4.009986528e-11
-2.450000000e-02	1.340066134e-01	-1.486171337e-04	6.306743496e-12
-2.460000000e-02	1.340066109e-01	-1.472562878e-04	7.868478591e-12
-2.470000000e-02	1.340066084e-01	-1.458954419e-04	2.648250840e-11
-2.480000000e-02	1.340066058e-01	-1.445345960e-04	9.315299531e-12
-2.490000000e-02	1.340066032e-01	-1.431737502e-04	1.465282906e-11
-2.500000000e-02	1.340066006e-01	-1.418129045e-04	1.148445325e-11
-2.510000000e-02	1.340065979e-01	-1.404520588e-04	6.773900810e-12
-2.520000000e-02	1.340065952e-01	-1.390912132e-04	7.124074024e-12
-2.530000000e-02	1.340065924e-01	-1.377303677e-04	8.246755813e-12
-2.540000000e-02	1.340065896e-01	-1.363695222e-04	1.147926980e-11
-2.550000000e-02	1.340065868e-01	-1.350086768e-04	7.683007115e-12
-2.560000000e-02	1.340065839e-01	-1.336478314e-04	9.569376865e-12
-2.570000000e-02	1.340065810e-01	-1.322869861e-04	7.833808259e-11
-2.580000000e-02	1.340065780e-01	-1.309261409e-04	1.827831997e-11
-2.590000000e-02	1.340065750e-01	-1.295652958e-04	9.737908407e-12
-2.600000000e-02	1.340065720e-01	-1.282044508e-04	2.362073532e-11
-2.610000000e-02	1.340065689e-01	-1.268436058e-04	1.093823336e-11
-2.620000000e-02	1.340065658e-01	-1.254827609e-04	1.855438679e-11
-2.630000000e-02	1.340065626e-01	-1.241219161e-04	7.071106059e-12
-2.640000000e-02	1.340065594e-01	-1.227610714e-04	1.272892360e-11
-2.650000000e-02	1.340065561e-01	-1.214002268e-04	9.243964403e-12
-2.660000000e-02	1.340065528e-01	-1.200393822e-04	2.357659793e-11
-2.670000000e-02	1.340065495e-01	-1.186785378e-04	6.101386696e-12
-2.680000000e-02	1.340065461e-01	-1.173176934e-04	1.312214130e-11
-2.690000000e-02	1.340065427e-01	-1.159568492e-04	1.455782501e-11
-2.700000000e-02	1.340065392e-01	-1.145960050e-04	2.150554809e-11
-2.710000000e-02	1.340065357e-01	-1.132351610e-04	1.148027079e-11
-2.720000000e-02	1.340065322e-01	-1.118743170e-04	7.027221898e-12
-2.730000000e-02	1.340065286e-01	-1.105134732e-04	1.252614252e-11
-2.740000000e-02	1.340065249e-01	-1.091526295e-04	1.063991392e-11
-2.750000000e-02	1.340065213e-01	-1.077917858e-04	9.740097331e-12
-2.760000000e-02	1.340065176e-01	-1.064309423e-04	1.789111382e-11
-2.770000000e-02	1.340065138e-01	-1.050700989e-04	1.591958226e-11
-2.780000000e-02	1.340065100e-01	-1.037092557e-04	3.215056385e-11
-2.790000000e-02	1.340065062e-01	-1.023484125e-04	7.529792962e-12
-2.800000000e-02	1.340065023e-01	-1.009875694e-04	1.474005815e-11
-2.810000000e-02	1.340064984e-01	-9.962672650e-05	1.441981202e-11
-2.820000000e-02	1.340064944e-01	-9.826588370e-05	1.382030461e-11
-2.830000000e-02	1.340064904e-01	-9.690504103e-05	8.047987514e-12
-2.840000000e-02	1.340064864e-01	-9.554419850e-05	6.522857028e-11
-2.850000000e-02	1.340064823e-01	-9.418335607e-05	8.917050547e-12
-2.860000000e-02	1.340064782e-01	-9.282251378e-05	1.111804134e-11
-2.870000000e-02	1.340064740e-01	-9.146167163e-05	1.933047802e-11
-2.880000000e-02	1.340064698e-01	-9.010082962e-05	1.119708538e-11
-2.890000000e-02	1.340064656e-01	-8.873998774e-05	8.723533720e-12
-2.900000000e-02	1.340064613e-01	-8.737914601e-05	1.155764013e-11
-2.910000000e-02	1.340064570e-01	-8.601830442e-05	1.267402124e-11
-2.920000000e-02	1.340064526e-01	-8.465746298e-05	5.768638894e-11
-2.930000000e-02	1.340064482e-01	-8.329662167e-05	1.225956418e-11
-2.940000000e-02	1.340064437e-01	-8.193578052e-05	1.484516781e-11
-2.950000000e-02	1.340064392e-01	-8.057493952e-05	3.319597125e-11
-2.960000000e-02	1.340064347e-01	-7.921409867e-05	2.584166605e-11
-2.970000000e-02	1.340064301e-01	-7.785325798e-05	1.137654459e-10
-2.980000000e-02	1.340064255e-01	-7.649241745e-05	2.031127921e-11
-2.990000000e-02	1.340064208e-01	-7.513157707e-05	2.053724807e-11
-3.000000000e-02	1.340064161e-01	-7.377073686e-05	1.084206510e-11
