# Im(epsi1)     Re(omega/c)      Im(omega/c)      Eq(det).Opt det CON kz, R=0.5 \mum, mu_c=0.3, Re(epsi1)=3.90solve_det_conkz_vs_kz.py
0.000000000e+00	1.340074561e-01	-4.859234859e-04	2.245615145e-11
-1.000000000e-04	1.340074638e-01	-4.845628050e-04	2.699132875e-11
-2.000000000e-04	1.340074716e-01	-4.832021236e-04	2.882288203e-11
-3.000000000e-04	1.340074793e-01	-4.818414417e-04	5.402946699e-11
-4.000000000e-04	1.340074869e-01	-4.804807594e-04	1.272868992e-11
-5.000000000e-04	1.340074945e-01	-4.791200766e-04	1.323976358e-11
-6.000000000e-04	1.340075021e-01	-4.777593933e-04	2.315298648e-11
-7.000000000e-04	1.340075096e-01	-4.763987096e-04	5.123852098e-12
-8.000000000e-04	1.340075171e-01	-4.750380254e-04	9.204926328e-12
-9.000000000e-04	1.340075246e-01	-4.736773408e-04	1.169042223e-11
-1.000000000e-03	1.340075320e-01	-4.723166557e-04	1.538113322e-11
-1.100000000e-03	1.340075393e-01	-4.709559702e-04	1.435157516e-11
-1.200000000e-03	1.340075467e-01	-4.695952843e-04	3.536962200e-11
-1.300000000e-03	1.340075539e-01	-4.682345978e-04	2.736923318e-11
-1.400000000e-03	1.340075612e-01	-4.668739110e-04	1.321307241e-11
-1.500000000e-03	1.340075684e-01	-4.655132237e-04	1.343016471e-11
-1.600000000e-03	1.340075755e-01	-4.641525360e-04	9.411404172e-12
-1.700000000e-03	1.340075827e-01	-4.627918478e-04	1.073656049e-11
-1.800000000e-03	1.340075897e-01	-4.614311592e-04	1.720193534e-11
-1.900000000e-03	1.340075968e-01	-4.600704702e-04	1.087228382e-11
-2.000000000e-03	1.340076038e-01	-4.587097808e-04	1.345825023e-11
-2.100000000e-03	1.340076107e-01	-4.573490909e-04	9.493020258e-12
-2.200000000e-03	1.340076176e-01	-4.559884006e-04	8.852858776e-12
-2.300000000e-03	1.340076245e-01	-4.546277098e-04	1.174951707e-11
-2.400000000e-03	1.340076313e-01	-4.532670187e-04	2.407563822e-11
-2.500000000e-03	1.340076381e-01	-4.519063271e-04	9.873828863e-12
-2.600000000e-03	1.340076448e-01	-4.505456351e-04	8.926311944e-12
-2.700000000e-03	1.340076515e-01	-4.491849427e-04	7.137488049e-12
-2.800000000e-03	1.340076582e-01	-4.478242499e-04	3.435477182e-11
-2.900000000e-03	1.340076648e-01	-4.464635567e-04	5.725989323e-12
-3.000000000e-03	1.340076714e-01	-4.451028631e-04	8.490191019e-12
-3.100000000e-03	1.340076779e-01	-4.437421690e-04	8.466469749e-12
-3.200000000e-03	1.340076844e-01	-4.423814746e-04	1.522382148e-11
-3.300000000e-03	1.340076909e-01	-4.410207798e-04	8.919732369e-12
-3.400000000e-03	1.340076973e-01	-4.396600845e-04	1.310614496e-11
-3.500000000e-03	1.340077037e-01	-4.382993889e-04	1.397840163e-11
-3.600000000e-03	1.340077100e-01	-4.369386929e-04	1.291288325e-11
-3.700000000e-03	1.340077163e-01	-4.355779964e-04	2.525165215e-11
-3.800000000e-03	1.340077225e-01	-4.342172996e-04	2.745446072e-11
-3.900000000e-03	1.340077287e-01	-4.328566024e-04	1.036026795e-11
-4.000000000e-03	1.340077349e-01	-4.314959048e-04	1.175328206e-11
-4.100000000e-03	1.340077410e-01	-4.301352068e-04	1.742454581e-11
-4.200000000e-03	1.340077471e-01	-4.287745085e-04	1.098220612e-11
-4.300000000e-03	1.340077532e-01	-4.274138097e-04	1.087606672e-11
-4.400000000e-03	1.340077592e-01	-4.260531106e-04	1.197717230e-11
-4.500000000e-03	1.340077651e-01	-4.246924111e-04	3.164410726e-11
-4.600000000e-03	1.340077710e-01	-4.233317112e-04	7.964728524e-12
-4.700000000e-03	1.340077769e-01	-4.219710110e-04	1.952574327e-11
-4.800000000e-03	1.340077827e-01	-4.206103104e-04	9.015241602e-12
-4.900000000e-03	1.340077885e-01	-4.192496094e-04	5.472484010e-12
-5.000000000e-03	1.340077943e-01	-4.178889080e-04	3.062298305e-11
-5.100000000e-03	1.340078000e-01	-4.165282063e-04	5.179184242e-12
-5.200000000e-03	1.340078057e-01	-4.151675042e-04	8.755115316e-12
-5.300000000e-03	1.340078113e-01	-4.138068018e-04	8.025556581e-12
-5.400000000e-03	1.340078169e-01	-4.124460990e-04	1.468896201e-11
-5.500000000e-03	1.340078224e-01	-4.110853958e-04	9.325197371e-12
-5.600000000e-03	1.340078279e-01	-4.097246923e-04	1.289987712e-11
-5.700000000e-03	1.340078334e-01	-4.083639885e-04	8.666523373e-12
-5.800000000e-03	1.340078388e-01	-4.070032843e-04	2.112125340e-11
-5.900000000e-03	1.340078442e-01	-4.056425797e-04	1.964744146e-11
-6.000000000e-03	1.340078495e-01	-4.042818748e-04	3.333903260e-11
-6.100000000e-03	1.340078548e-01	-4.029211695e-04	1.250222232e-11
-6.200000000e-03	1.340078601e-01	-4.015604640e-04	1.032481021e-11
-6.300000000e-03	1.340078653e-01	-4.001997580e-04	1.438849709e-11
-6.400000000e-03	1.340078705e-01	-3.988390518e-04	2.637258161e-11
-6.500000000e-03	1.340078756e-01	-3.974783452e-04	7.713958349e-12
-6.600000000e-03	1.340078807e-01	-3.961176382e-04	1.864648079e-11
-6.700000000e-03	1.340078858e-01	-3.947569310e-04	5.404157103e-11
-6.800000000e-03	1.340078908e-01	-3.933962234e-04	1.866005772e-11
-6.900000000e-03	1.340078957e-01	-3.920355155e-04	9.846965249e-12
-7.000000000e-03	1.340079007e-01	-3.906748072e-04	1.561344157e-11
-7.100000000e-03	1.340079055e-01	-3.893140987e-04	1.902142674e-11
-7.200000000e-03	1.340079104e-01	-3.879533898e-04	2.633450015e-11
-7.300000000e-03	1.340079152e-01	-3.865926806e-04	5.530172896e-12
-7.400000000e-03	1.340079199e-01	-3.852319710e-04	1.155179477e-11
-7.500000000e-03	1.340079247e-01	-3.838712612e-04	1.573244166e-11
-7.600000000e-03	1.340079293e-01	-3.825105511e-04	1.855998909e-11
-7.700000000e-03	1.340079340e-01	-3.811498406e-04	8.020234324e-12
-7.800000000e-03	1.340079386e-01	-3.797891298e-04	1.145638254e-11
-7.900000000e-03	1.340079431e-01	-3.784284188e-04	9.217338661e-12
-8.000000000e-03	1.340079476e-01	-3.770677074e-04	3.126764870e-11
-8.100000000e-03	1.340079521e-01	-3.757069957e-04	2.673633780e-11
-8.200000000e-03	1.340079565e-01	-3.743462837e-04	8.089028920e-12
-8.300000000e-03	1.340079609e-01	-3.729855715e-04	1.383557006e-11
-8.400000000e-03	1.340079653e-01	-3.716248589e-04	7.001979875e-11
-8.500000000e-03	1.340079696e-01	-3.702641460e-04	3.340620164e-11
-8.600000000e-03	1.340079738e-01	-3.689034329e-04	9.022110340e-12
-8.700000000e-03	1.340079781e-01	-3.675427194e-04	9.547423999e-11
-8.800000000e-03	1.340079822e-01	-3.661820057e-04	9.453552923e-12
-8.900000000e-03	1.340079864e-01	-3.648212917e-04	4.114852054e-11
-9.000000000e-03	1.340079905e-01	-3.634605774e-04	1.078558443e-11
-9.100000000e-03	1.340079945e-01	-3.620998628e-04	2.001388959e-11
-9.200000000e-03	1.340079986e-01	-3.607391480e-04	1.347562940e-11
-9.300000000e-03	1.340080025e-01	-3.593784328e-04	7.777348203e-12
-9.400000000e-03	1.340080065e-01	-3.580177174e-04	6.219719267e-12
-9.500000000e-03	1.340080104e-01	-3.566570017e-04	1.767578875e-11
-9.600000000e-03	1.340080142e-01	-3.552962858e-04	8.817569617e-12
-9.700000000e-03	1.340080180e-01	-3.539355696e-04	1.111540109e-11
-9.800000000e-03	1.340080218e-01	-3.525748531e-04	7.052671976e-12
-9.900000000e-03	1.340080255e-01	-3.512141363e-04	1.275175876e-11
-1.000000000e-02	1.340080292e-01	-3.498534193e-04	1.204263370e-11
-1.010000000e-02	1.340080328e-01	-3.484927020e-04	1.879019192e-11
-1.020000000e-02	1.340080364e-01	-3.471319845e-04	1.474552011e-11
-1.030000000e-02	1.340080400e-01	-3.457712667e-04	5.187786419e-12
-1.040000000e-02	1.340080435e-01	-3.444105487e-04	2.164219898e-11
-1.050000000e-02	1.340080470e-01	-3.430498304e-04	3.173780049e-11
-1.060000000e-02	1.340080504e-01	-3.416891118e-04	1.492801805e-11
-1.070000000e-02	1.340080538e-01	-3.403283931e-04	1.709398046e-11
-1.080000000e-02	1.340080572e-01	-3.389676740e-04	1.205648084e-11
-1.090000000e-02	1.340080605e-01	-3.376069547e-04	7.454449245e-12
-1.100000000e-02	1.340080638e-01	-3.362462352e-04	1.311462722e-11
-1.110000000e-02	1.340080670e-01	-3.348855155e-04	2.252198534e-11
-1.120000000e-02	1.340080702e-01	-3.335247955e-04	1.409242009e-11
-1.130000000e-02	1.340080733e-01	-3.321640752e-04	3.265314680e-11
-1.140000000e-02	1.340080765e-01	-3.308033548e-04	9.880423855e-12
-1.150000000e-02	1.340080795e-01	-3.294426341e-04	2.393355467e-11
-1.160000000e-02	1.340080825e-01	-3.280819132e-04	1.382524913e-11
-1.170000000e-02	1.340080855e-01	-3.267211920e-04	7.625453275e-12
-1.180000000e-02	1.340080885e-01	-3.253604707e-04	4.929130442e-12
-1.190000000e-02	1.340080914e-01	-3.239997491e-04	9.528963753e-12
-1.200000000e-02	1.340080942e-01	-3.226390272e-04	1.209496684e-11
-1.210000000e-02	1.340080970e-01	-3.212783052e-04	1.483667157e-11
-1.220000000e-02	1.340080998e-01	-3.199175830e-04	7.323300917e-12
-1.230000000e-02	1.340081026e-01	-3.185568605e-04	8.266168833e-12
-1.240000000e-02	1.340081052e-01	-3.171961378e-04	7.275289351e-12
-1.250000000e-02	1.340081079e-01	-3.158354149e-04	9.574050233e-12
-1.260000000e-02	1.340081105e-01	-3.144746918e-04	2.009318425e-11
-1.270000000e-02	1.340081131e-01	-3.131139685e-04	9.982907881e-12
-1.280000000e-02	1.340081156e-01	-3.117532450e-04	1.118164871e-11
-1.290000000e-02	1.340081181e-01	-3.103925213e-04	1.847022099e-11
-1.300000000e-02	1.340081205e-01	-3.090317974e-04	1.031733712e-11
-1.310000000e-02	1.340081229e-01	-3.076710733e-04	2.698113634e-11
-1.320000000e-02	1.340081253e-01	-3.063103490e-04	1.093957040e-11
-1.330000000e-02	1.340081276e-01	-3.049496245e-04	1.373197498e-11
-1.340000000e-02	1.340081299e-01	-3.035888999e-04	8.193678432e-12
-1.350000000e-02	1.340081321e-01	-3.022281750e-04	2.116410075e-11
-1.360000000e-02	1.340081343e-01	-3.008674499e-04	1.367570995e-11
-1.370000000e-02	1.340081365e-01	-2.995067247e-04	1.549205507e-11
-1.380000000e-02	1.340081386e-01	-2.981459993e-04	1.314450881e-11
-1.390000000e-02	1.340081407e-01	-2.967852737e-04	6.748450440e-12
-1.400000000e-02	1.340081427e-01	-2.954245479e-04	8.474481693e-11
-1.410000000e-02	1.340081447e-01	-2.940638219e-04	2.390683084e-11
-1.420000000e-02	1.340081467e-01	-2.927030958e-04	1.169931454e-11
-1.430000000e-02	1.340081486e-01	-2.913423695e-04	5.820350183e-12
-1.440000000e-02	1.340081504e-01	-2.899816430e-04	9.678338457e-12
-1.450000000e-02	1.340081523e-01	-2.886209164e-04	7.588103037e-12
-1.460000000e-02	1.340081540e-01	-2.872601896e-04	1.038985374e-11
-1.470000000e-02	1.340081558e-01	-2.858994626e-04	1.090096319e-11
-1.480000000e-02	1.340081575e-01	-2.845387354e-04	8.251412796e-12
-1.490000000e-02	1.340081592e-01	-2.831780082e-04	2.515623368e-11
-1.500000000e-02	1.340081608e-01	-2.818172807e-04	1.116256076e-11
-1.510000000e-02	1.340081623e-01	-2.804565531e-04	9.608281055e-12
-1.520000000e-02	1.340081639e-01	-2.790958253e-04	1.265844598e-11
-1.530000000e-02	1.340081654e-01	-2.777350974e-04	8.950793413e-12
-1.540000000e-02	1.340081668e-01	-2.763743693e-04	1.440491826e-11
-1.550000000e-02	1.340081682e-01	-2.750136411e-04	2.056308138e-11
-1.560000000e-02	1.340081696e-01	-2.736529128e-04	1.656821608e-11
-1.570000000e-02	1.340081709e-01	-2.722921843e-04	1.415931528e-11
-1.580000000e-02	1.340081722e-01	-2.709314556e-04	1.202806369e-11
-1.590000000e-02	1.340081735e-01	-2.695707269e-04	9.484235154e-12
-1.600000000e-02	1.340081747e-01	-2.682099979e-04	1.231398702e-11
-1.610000000e-02	1.340081758e-01	-2.668492689e-04	1.263185471e-11
-1.620000000e-02	1.340081770e-01	-2.654885397e-04	2.080647228e-11
-1.630000000e-02	1.340081781e-01	-2.641278104e-04	1.022431515e-11
-1.640000000e-02	1.340081791e-01	-2.627670809e-04	1.405274365e-11
-1.650000000e-02	1.340081801e-01	-2.614063514e-04	7.166199622e-12
-1.660000000e-02	1.340081810e-01	-2.600456217e-04	1.916346055e-11
-1.670000000e-02	1.340081820e-01	-2.586848919e-04	1.153201481e-11
-1.680000000e-02	1.340081828e-01	-2.573241619e-04	1.504600427e-11
-1.690000000e-02	1.340081837e-01	-2.559634319e-04	1.419829537e-11
-1.700000000e-02	1.340081845e-01	-2.546027017e-04	8.401234213e-11
-1.710000000e-02	1.340081852e-01	-2.532419714e-04	9.012220129e-12
-1.720000000e-02	1.340081859e-01	-2.518812410e-04	2.593466624e-11
-1.730000000e-02	1.340081866e-01	-2.505205105e-04	1.183408732e-11
-1.740000000e-02	1.340081872e-01	-2.491597799e-04	1.309696335e-11
-1.750000000e-02	1.340081878e-01	-2.477990492e-04	1.048519343e-11
-1.760000000e-02	1.340081883e-01	-2.464383184e-04	1.707143416e-11
-1.770000000e-02	1.340081889e-01	-2.450775874e-04	1.890605415e-11
-1.780000000e-02	1.340081893e-01	-2.437168564e-04	8.716923047e-12
-1.790000000e-02	1.340081897e-01	-2.423561253e-04	5.705095509e-12
-1.800000000e-02	1.340081901e-01	-2.409953941e-04	1.497154778e-11
-1.810000000e-02	1.340081905e-01	-2.396346628e-04	1.305612287e-11
-1.820000000e-02	1.340081907e-01	-2.382739314e-04	7.868327973e-12
-1.830000000e-02	1.340081910e-01	-2.369131999e-04	1.264084825e-11
-1.840000000e-02	1.340081912e-01	-2.355524683e-04	9.019377084e-12
-1.850000000e-02	1.340081914e-01	-2.341917367e-04	5.875501887e-12
-1.860000000e-02	1.340081915e-01	-2.328310049e-04	3.915271049e-11
-1.870000000e-02	1.340081916e-01	-2.314702731e-04	1.407554202e-11
-1.880000000e-02	1.340081917e-01	-2.301095412e-04	8.193083360e-12
-1.890000000e-02	1.340081917e-01	-2.287488092e-04	1.834440698e-11
-1.900000000e-02	1.340081916e-01	-2.273880772e-04	1.588301071e-11
-1.910000000e-02	1.340081916e-01	-2.260273450e-04	1.728959383e-11
-1.920000000e-02	1.340081914e-01	-2.246666128e-04	4.043131567e-11
-1.930000000e-02	1.340081913e-01	-2.233058806e-04	2.694867761e-11
-1.940000000e-02	1.340081911e-01	-2.219451482e-04	7.141041437e-11
-1.950000000e-02	1.340081908e-01	-2.205844159e-04	9.075359592e-12
-1.960000000e-02	1.340081906e-01	-2.192236834e-04	1.081140903e-11
-1.970000000e-02	1.340081902e-01	-2.178629509e-04	7.264303265e-12
-1.980000000e-02	1.340081899e-01	-2.165022183e-04	1.147629507e-11
-1.990000000e-02	1.340081895e-01	-2.151414857e-04	1.115163455e-11
-2.000000000e-02	1.340081890e-01	-2.137807530e-04	1.907083484e-11
-2.010000000e-02	1.340081885e-01	-2.124200203e-04	2.038311378e-11
-2.020000000e-02	1.340081880e-01	-2.110592875e-04	2.525350293e-11
-2.030000000e-02	1.340081874e-01	-2.096985547e-04	2.655478835e-11
-2.040000000e-02	1.340081868e-01	-2.083378218e-04	1.713673736e-11
-2.050000000e-02	1.340081861e-01	-2.069770889e-04	2.611467075e-11
-2.060000000e-02	1.340081855e-01	-2.056163560e-04	1.347573190e-11
-2.070000000e-02	1.340081847e-01	-2.042556230e-04	1.211708588e-11
-2.080000000e-02	1.340081839e-01	-2.028948899e-04	1.408605334e-11
-2.090000000e-02	1.340081831e-01	-2.015341569e-04	1.233828998e-11
-2.100000000e-02	1.340081823e-01	-2.001734238e-04	1.674716582e-11
-2.110000000e-02	1.340081814e-01	-1.988126907e-04	1.299792147e-11
-2.120000000e-02	1.340081804e-01	-1.974519575e-04	4.855567537e-11
-2.130000000e-02	1.340081794e-01	-1.960912243e-04	9.354945787e-12
-2.140000000e-02	1.340081784e-01	-1.947304911e-04	4.794651786e-11
-2.150000000e-02	1.340081773e-01	-1.933697579e-04	8.010557342e-12
-2.160000000e-02	1.340081762e-01	-1.920090246e-04	1.074889546e-11
-2.170000000e-02	1.340081751e-01	-1.906482914e-04	5.848753977e-11
-2.180000000e-02	1.340081739e-01	-1.892875581e-04	1.707877316e-11
-2.190000000e-02	1.340081726e-01	-1.879268248e-04	7.541005564e-12
-2.200000000e-02	1.340081714e-01	-1.865660915e-04	1.146855153e-11
-2.210000000e-02	1.340081701e-01	-1.852053582e-04	1.879301987e-11
-2.220000000e-02	1.340081687e-01	-1.838446248e-04	5.903513637e-12
-2.230000000e-02	1.340081673e-01	-1.824838915e-04	8.840587071e-12
-2.240000000e-02	1.340081659e-01	-1.811231582e-04	1.658367169e-11
-2.250000000e-02	1.340081644e-01	-1.797624249e-04	9.098616852e-12
-2.260000000e-02	1.340081629e-01	-1.784016915e-04	4.776430357e-12
-2.270000000e-02	1.340081613e-01	-1.770409582e-04	2.606909449e-11
-2.280000000e-02	1.340081597e-01	-1.756802249e-04	2.709570400e-11
-2.290000000e-02	1.340081580e-01	-1.743194916e-04	1.279510830e-11
-2.300000000e-02	1.340081564e-01	-1.729587582e-04	1.348804817e-11
-2.310000000e-02	1.340081546e-01	-1.715980249e-04	1.609689115e-11
-2.320000000e-02	1.340081529e-01	-1.702372917e-04	3.036168472e-11
-2.330000000e-02	1.340081510e-01	-1.688765584e-04	2.250635710e-11
-2.340000000e-02	1.340081492e-01	-1.675158251e-04	6.816918419e-12
-2.350000000e-02	1.340081473e-01	-1.661550919e-04	9.537548281e-12
-2.360000000e-02	1.340081454e-01	-1.647943587e-04	2.100619445e-11
-2.370000000e-02	1.340081434e-01	-1.634336255e-04	1.136768511e-11
-2.380000000e-02	1.340081414e-01	-1.620728924e-04	7.599573191e-12
-2.390000000e-02	1.340081393e-01	-1.607121592e-04	2.788044869e-11
-2.400000000e-02	1.340081372e-01	-1.593514261e-04	7.851271782e-12
-2.410000000e-02	1.340081351e-01	-1.579906931e-04	5.198717471e-12
-2.420000000e-02	1.340081329e-01	-1.566299600e-04	1.597009755e-11
-2.430000000e-02	1.340081306e-01	-1.552692270e-04	1.045217969e-11
-2.440000000e-02	1.340081284e-01	-1.539084941e-04	1.854605733e-11
-2.450000000e-02	1.340081261e-01	-1.525477612e-04	5.953861613e-12
-2.460000000e-02	1.340081237e-01	-1.511870283e-04	3.068180210e-11
-2.470000000e-02	1.340081213e-01	-1.498262955e-04	9.299621125e-12
-2.480000000e-02	1.340081189e-01	-1.484655627e-04	1.183464591e-10
-2.490000000e-02	1.340081164e-01	-1.471048299e-04	1.208486016e-11
-2.500000000e-02	1.340081139e-01	-1.457440973e-04	3.241069176e-11
-2.510000000e-02	1.340081114e-01	-1.443833646e-04	9.909935443e-12
-2.520000000e-02	1.340081088e-01	-1.430226320e-04	8.162347343e-12
-2.530000000e-02	1.340081061e-01	-1.416618995e-04	7.489937258e-12
-2.540000000e-02	1.340081034e-01	-1.403011671e-04	1.383705301e-11
-2.550000000e-02	1.340081007e-01	-1.389404347e-04	1.389728321e-11
-2.560000000e-02	1.340080980e-01	-1.375797023e-04	8.121478063e-12
-2.570000000e-02	1.340080952e-01	-1.362189701e-04	1.149823861e-11
-2.580000000e-02	1.340080923e-01	-1.348582379e-04	7.268088591e-12
-2.590000000e-02	1.340080894e-01	-1.334975057e-04	1.159048557e-11
-2.600000000e-02	1.340080865e-01	-1.321367737e-04	6.311675042e-12
-2.610000000e-02	1.340080835e-01	-1.307760417e-04	8.105864449e-12
-2.620000000e-02	1.340080805e-01	-1.294153098e-04	2.462072842e-11
-2.630000000e-02	1.340080775e-01	-1.280545780e-04	9.621145059e-12
-2.640000000e-02	1.340080744e-01	-1.266938462e-04	1.420244792e-11
-2.650000000e-02	1.340080712e-01	-1.253331145e-04	7.449844163e-12
-2.660000000e-02	1.340080681e-01	-1.239723830e-04	1.062469183e-11
-2.670000000e-02	1.340080648e-01	-1.226116515e-04	2.991900674e-11
-2.680000000e-02	1.340080616e-01	-1.212509200e-04	1.046344212e-11
-2.690000000e-02	1.340080583e-01	-1.198901887e-04	6.253559740e-12
-2.700000000e-02	1.340080549e-01	-1.185294575e-04	1.656862352e-11
-2.710000000e-02	1.340080516e-01	-1.171687264e-04	1.023500732e-11
-2.720000000e-02	1.340080481e-01	-1.158079953e-04	1.162259228e-11
-2.730000000e-02	1.340080447e-01	-1.144472644e-04	1.191954095e-11
-2.740000000e-02	1.340080412e-01	-1.130865336e-04	9.525452317e-12
-2.750000000e-02	1.340080376e-01	-1.117258028e-04	1.404806661e-11
-2.760000000e-02	1.340080340e-01	-1.103650722e-04	1.756233476e-11
-2.770000000e-02	1.340080304e-01	-1.090043417e-04	1.168889534e-11
-2.780000000e-02	1.340080267e-01	-1.076436113e-04	1.245121261e-11
-2.790000000e-02	1.340080230e-01	-1.062828810e-04	3.775936108e-11
-2.800000000e-02	1.340080193e-01	-1.049221508e-04	8.740724577e-12
-2.810000000e-02	1.340080155e-01	-1.035614207e-04	8.078586313e-12
-2.820000000e-02	1.340080116e-01	-1.022006908e-04	9.279189488e-12
-2.830000000e-02	1.340080077e-01	-1.008399610e-04	9.967344383e-12
-2.840000000e-02	1.340080038e-01	-9.947923126e-05	1.539390271e-11
-2.850000000e-02	1.340079999e-01	-9.811850168e-05	1.002526319e-11
-2.860000000e-02	1.340079959e-01	-9.675777222e-05	8.909779583e-12
-2.870000000e-02	1.340079918e-01	-9.539704289e-05	1.506112972e-11
-2.880000000e-02	1.340079877e-01	-9.403631369e-05	1.604192484e-11
-2.890000000e-02	1.340079836e-01	-9.267558463e-05	1.095860526e-11
-2.900000000e-02	1.340079794e-01	-9.131485570e-05	1.054389156e-11
-2.910000000e-02	1.340079752e-01	-8.995412690e-05	9.237107587e-12
-2.920000000e-02	1.340079710e-01	-8.859339825e-05	3.409526078e-11
-2.930000000e-02	1.340079667e-01	-8.723266974e-05	1.651481911e-11
-2.940000000e-02	1.340079623e-01	-8.587194136e-05	7.693984732e-12
-2.950000000e-02	1.340079580e-01	-8.451121313e-05	3.233516658e-11
-2.960000000e-02	1.340079536e-01	-8.315048505e-05	2.301681794e-11
-2.970000000e-02	1.340079491e-01	-8.178975712e-05	9.220903632e-12
-2.980000000e-02	1.340079446e-01	-8.042902934e-05	4.436863704e-11
-2.990000000e-02	1.340079401e-01	-7.906830171e-05	1.036520706e-11
-3.000000000e-02	1.340079355e-01	-7.770757424e-05	1.459403818e-11
