# Im(epsi1)     Re(omega/c)      Im(omega/c)      Eq(det).Opt det CON kz, R=0.5 \mum, mu_c=0.3, Re(epsi1)=3.90solve_det_conkz_vs_kz.py
0.000000000e+00	1.340063825e-01	-4.830555791e-04	9.310523452e-12
-1.000000000e-04	1.340063902e-01	-4.816948138e-04	1.215119695e-11
-2.000000000e-04	1.340063979e-01	-4.803340481e-04	7.723607128e-12
-3.000000000e-04	1.340064055e-01	-4.789732819e-04	2.406327643e-11
-4.000000000e-04	1.340064130e-01	-4.776125153e-04	4.501951148e-12
-5.000000000e-04	1.340064206e-01	-4.762517481e-04	2.055619794e-11
-6.000000000e-04	1.340064280e-01	-4.748909806e-04	7.157844265e-12
-7.000000000e-04	1.340064355e-01	-4.735302126e-04	7.989074944e-12
-8.000000000e-04	1.340064429e-01	-4.721694441e-04	1.534183863e-11
-9.000000000e-04	1.340064502e-01	-4.708086752e-04	1.249564187e-11
-1.000000000e-03	1.340064576e-01	-4.694479058e-04	9.401015687e-12
-1.100000000e-03	1.340064648e-01	-4.680871360e-04	1.723101433e-11
-1.200000000e-03	1.340064721e-01	-4.667263658e-04	1.760198401e-11
-1.300000000e-03	1.340064793e-01	-4.653655951e-04	1.549539727e-11
-1.400000000e-03	1.340064864e-01	-4.640048240e-04	8.813443521e-12
-1.500000000e-03	1.340064935e-01	-4.626440525e-04	7.746489139e-12
-1.600000000e-03	1.340065006e-01	-4.612832805e-04	1.105771515e-11
-1.700000000e-03	1.340065076e-01	-4.599225081e-04	7.565751747e-12
-1.800000000e-03	1.340065146e-01	-4.585617352e-04	5.155884919e-11
-1.900000000e-03	1.340065216e-01	-4.572009619e-04	1.411273423e-11
-2.000000000e-03	1.340065285e-01	-4.558401882e-04	1.410018448e-11
-2.100000000e-03	1.340065353e-01	-4.544794141e-04	1.365085897e-11
-2.200000000e-03	1.340065421e-01	-4.531186396e-04	2.496952993e-11
-2.300000000e-03	1.340065489e-01	-4.517578646e-04	1.424359831e-11
-2.400000000e-03	1.340065557e-01	-4.503970893e-04	1.483047561e-11
-2.500000000e-03	1.340065624e-01	-4.490363135e-04	9.743427867e-12
-2.600000000e-03	1.340065690e-01	-4.476755373e-04	8.171764563e-12
-2.700000000e-03	1.340065756e-01	-4.463147607e-04	8.850227617e-12
-2.800000000e-03	1.340065822e-01	-4.449539837e-04	2.435035231e-11
-2.900000000e-03	1.340065887e-01	-4.435932062e-04	3.304554536e-11
-3.000000000e-03	1.340065952e-01	-4.422324284e-04	1.249231578e-11
-3.100000000e-03	1.340066017e-01	-4.408716502e-04	2.416747094e-11
-3.200000000e-03	1.340066081e-01	-4.395108715e-04	2.411975718e-11
-3.300000000e-03	1.340066145e-01	-4.381500925e-04	9.863485876e-12
-3.400000000e-03	1.340066208e-01	-4.367893131e-04	1.718611692e-11
-3.500000000e-03	1.340066271e-01	-4.354285333e-04	1.181857806e-11
-3.600000000e-03	1.340066333e-01	-4.340677531e-04	2.254189335e-11
-3.700000000e-03	1.340066395e-01	-4.327069725e-04	1.048530307e-11
-3.800000000e-03	1.340066457e-01	-4.313461915e-04	1.045934596e-11
-3.900000000e-03	1.340066518e-01	-4.299854101e-04	2.232009126e-11
-4.000000000e-03	1.340066579e-01	-4.286246284e-04	1.844050444e-11
-4.100000000e-03	1.340066639e-01	-4.272638463e-04	2.443681345e-11
-4.200000000e-03	1.340066699e-01	-4.259030638e-04	2.350051928e-11
-4.300000000e-03	1.340066758e-01	-4.245422809e-04	8.644846287e-12
-4.400000000e-03	1.340066818e-01	-4.231814976e-04	1.198915548e-11
-4.500000000e-03	1.340066876e-01	-4.218207140e-04	1.479387921e-11
-4.600000000e-03	1.340066935e-01	-4.204599300e-04	1.537430979e-11
-4.700000000e-03	1.340066992e-01	-4.190991456e-04	1.602923214e-11
-4.800000000e-03	1.340067050e-01	-4.177383609e-04	1.776857173e-11
-4.900000000e-03	1.340067107e-01	-4.163775758e-04	1.315268185e-11
-5.000000000e-03	1.340067164e-01	-4.150167903e-04	6.998189590e-12
-5.100000000e-03	1.340067220e-01	-4.136560045e-04	2.235937105e-11
-5.200000000e-03	1.340067276e-01	-4.122952183e-04	1.571004126e-11
-5.300000000e-03	1.340067331e-01	-4.109344318e-04	1.508294827e-11
-5.400000000e-03	1.340067386e-01	-4.095736447e-04	5.992632740e-10
-5.500000000e-03	1.340067441e-01	-4.082128576e-04	2.962453178e-11
-5.600000000e-03	1.340067495e-01	-4.068520701e-04	6.655503835e-12
-5.700000000e-03	1.340067549e-01	-4.054912821e-04	2.170827613e-11
-5.800000000e-03	1.340067602e-01	-4.041304938e-04	1.746572984e-11
-5.900000000e-03	1.340067655e-01	-4.027697052e-04	1.636708548e-11
-6.000000000e-03	1.340067707e-01	-4.014089162e-04	1.331636445e-11
-6.100000000e-03	1.340067759e-01	-4.000481269e-04	2.131198540e-11
-6.200000000e-03	1.340067811e-01	-3.986873373e-04	1.441716998e-11
-6.300000000e-03	1.340067862e-01	-3.973265473e-04	1.000679749e-11
-6.400000000e-03	1.340067913e-01	-3.959657570e-04	9.507155638e-12
-6.500000000e-03	1.340067964e-01	-3.946049664e-04	4.283813244e-12
-6.600000000e-03	1.340068014e-01	-3.932441754e-04	1.094938737e-11
-6.700000000e-03	1.340068063e-01	-3.918833841e-04	9.755817161e-12
-6.800000000e-03	1.340068113e-01	-3.905225925e-04	9.398599367e-12
-6.900000000e-03	1.340068161e-01	-3.891618005e-04	6.953318206e-12
-7.000000000e-03	1.340068210e-01	-3.878010083e-04	1.095620465e-11
-7.100000000e-03	1.340068258e-01	-3.864402157e-04	9.895650498e-12
-7.200000000e-03	1.340068305e-01	-3.850794228e-04	1.777625093e-11
-7.300000000e-03	1.340068352e-01	-3.837186296e-04	2.359907763e-11
-7.400000000e-03	1.340068399e-01	-3.823578361e-04	1.034885567e-11
-7.500000000e-03	1.340068445e-01	-3.809970422e-04	8.240165716e-12
-7.600000000e-03	1.340068491e-01	-3.796362481e-04	2.115696823e-11
-7.700000000e-03	1.340068537e-01	-3.782754537e-04	6.614642316e-12
-7.800000000e-03	1.340068582e-01	-3.769146589e-04	1.557862767e-11
-7.900000000e-03	1.340068626e-01	-3.755538639e-04	1.577095499e-11
-8.000000000e-03	1.340068671e-01	-3.741930685e-04	8.968519460e-12
-8.100000000e-03	1.340068715e-01	-3.728322729e-04	3.279189750e-11
-8.200000000e-03	1.340068758e-01	-3.714714769e-04	1.967113454e-11
-8.300000000e-03	1.340068801e-01	-3.701106807e-04	2.178927416e-11
-8.400000000e-03	1.340068844e-01	-3.687498842e-04	1.468523473e-11
-8.500000000e-03	1.340068886e-01	-3.673890874e-04	1.165036014e-11
-8.600000000e-03	1.340068927e-01	-3.660282902e-04	7.802529904e-12
-8.700000000e-03	1.340068969e-01	-3.646674929e-04	1.600178695e-11
-8.800000000e-03	1.340069010e-01	-3.633066952e-04	4.098753389e-11
-8.900000000e-03	1.340069050e-01	-3.619458972e-04	1.682529313e-11
-9.000000000e-03	1.340069090e-01	-3.605850990e-04	7.870167656e-12
-9.100000000e-03	1.340069130e-01	-3.592243005e-04	1.518238817e-11
-9.200000000e-03	1.340069169e-01	-3.578635017e-04	1.843185110e-11
-9.300000000e-03	1.340069208e-01	-3.565027027e-04	9.867913822e-12
-9.400000000e-03	1.340069247e-01	-3.551419034e-04	9.996210896e-12
-9.500000000e-03	1.340069285e-01	-3.537811038e-04	1.353195665e-11
-9.600000000e-03	1.340069322e-01	-3.524203039e-04	2.243659834e-11
-9.700000000e-03	1.340069360e-01	-3.510595038e-04	1.032533258e-11
-9.800000000e-03	1.340069396e-01	-3.496987034e-04	1.673507845e-11
-9.900000000e-03	1.340069433e-01	-3.483379028e-04	7.573202418e-12
-1.000000000e-02	1.340069469e-01	-3.469771019e-04	1.916368058e-11
-1.010000000e-02	1.340069504e-01	-3.456163007e-04	2.489237163e-11
-1.020000000e-02	1.340069539e-01	-3.442554993e-04	1.089814855e-11
-1.030000000e-02	1.340069574e-01	-3.428946977e-04	4.090192975e-11
-1.040000000e-02	1.340069608e-01	-3.415338958e-04	1.200437186e-11
-1.050000000e-02	1.340069642e-01	-3.401730936e-04	1.301615827e-11
-1.060000000e-02	1.340069676e-01	-3.388122912e-04	1.520539878e-11
-1.070000000e-02	1.340069709e-01	-3.374514886e-04	1.148248960e-11
-1.080000000e-02	1.340069742e-01	-3.360906857e-04	4.060975889e-11
-1.090000000e-02	1.340069774e-01	-3.347298826e-04	3.369088485e-11
-1.100000000e-02	1.340069806e-01	-3.333690792e-04	6.816164399e-12
-1.110000000e-02	1.340069837e-01	-3.320082756e-04	7.341938526e-12
-1.120000000e-02	1.340069868e-01	-3.306474718e-04	1.169281869e-11
-1.130000000e-02	1.340069899e-01	-3.292866677e-04	1.917598004e-11
-1.140000000e-02	1.340069929e-01	-3.279258634e-04	2.323484721e-11
-1.150000000e-02	1.340069959e-01	-3.265650589e-04	1.137525107e-11
-1.160000000e-02	1.340069988e-01	-3.252042542e-04	7.434541036e-12
-1.170000000e-02	1.340070017e-01	-3.238434492e-04	1.066938814e-11
-1.180000000e-02	1.340070046e-01	-3.224826441e-04	1.960494594e-11
-1.190000000e-02	1.340070074e-01	-3.211218387e-04	1.693636945e-11
-1.200000000e-02	1.340070101e-01	-3.197610330e-04	2.065054550e-11
-1.210000000e-02	1.340070129e-01	-3.184002272e-04	2.013748113e-11
-1.220000000e-02	1.340070156e-01	-3.170394212e-04	1.361056221e-11
-1.230000000e-02	1.340070182e-01	-3.156786149e-04	2.538580199e-11
-1.240000000e-02	1.340070208e-01	-3.143178085e-04	1.024315344e-11
-1.250000000e-02	1.340070234e-01	-3.129570018e-04	1.840598157e-11
-1.260000000e-02	1.340070259e-01	-3.115961950e-04	2.827016022e-11
-1.270000000e-02	1.340070284e-01	-3.102353879e-04	2.476702116e-11
-1.280000000e-02	1.340070308e-01	-3.088745806e-04	5.807432610e-11
-1.290000000e-02	1.340070332e-01	-3.075137732e-04	1.330612632e-11
-1.300000000e-02	1.340070356e-01	-3.061529655e-04	9.255233329e-12
-1.310000000e-02	1.340070379e-01	-3.047921577e-04	5.040160706e-12
-1.320000000e-02	1.340070402e-01	-3.034313496e-04	7.225059035e-12
-1.330000000e-02	1.340070424e-01	-3.020705414e-04	1.343103358e-11
-1.340000000e-02	1.340070446e-01	-3.007097330e-04	1.117587076e-11
-1.350000000e-02	1.340070467e-01	-2.993489244e-04	2.094764419e-11
-1.360000000e-02	1.340070488e-01	-2.979881156e-04	2.109913571e-11
-1.370000000e-02	1.340070509e-01	-2.966273067e-04	1.257469161e-11
-1.380000000e-02	1.340070529e-01	-2.952664975e-04	1.290010755e-11
-1.390000000e-02	1.340070549e-01	-2.939056882e-04	1.137731553e-11
-1.400000000e-02	1.340070569e-01	-2.925448787e-04	1.100173144e-11
-1.410000000e-02	1.340070588e-01	-2.911840691e-04	1.005894926e-11
-1.420000000e-02	1.340070606e-01	-2.898232592e-04	8.447988926e-12
-1.430000000e-02	1.340070625e-01	-2.884624492e-04	2.252248958e-11
-1.440000000e-02	1.340070642e-01	-2.871016391e-04	2.119305486e-11
-1.450000000e-02	1.340070660e-01	-2.857408287e-04	9.057643102e-12
-1.460000000e-02	1.340070677e-01	-2.843800182e-04	1.001194994e-11
-1.470000000e-02	1.340070693e-01	-2.830192076e-04	9.990950316e-12
-1.480000000e-02	1.340070709e-01	-2.816583968e-04	1.941965733e-11
-1.490000000e-02	1.340070725e-01	-2.802975858e-04	2.828167844e-11
-1.500000000e-02	1.340070740e-01	-2.789367747e-04	1.885216350e-11
-1.510000000e-02	1.340070755e-01	-2.775759634e-04	2.681258573e-11
-1.520000000e-02	1.340070770e-01	-2.762151520e-04	1.231501868e-11
-1.530000000e-02	1.340070784e-01	-2.748543405e-04	3.216482605e-11
-1.540000000e-02	1.340070797e-01	-2.734935288e-04	1.225992561e-11
-1.550000000e-02	1.340070811e-01	-2.721327169e-04	1.122535288e-11
-1.560000000e-02	1.340070823e-01	-2.707719049e-04	1.720857381e-11
-1.570000000e-02	1.340070836e-01	-2.694110928e-04	1.008631225e-11
-1.580000000e-02	1.340070848e-01	-2.680502805e-04	1.691895758e-11
-1.590000000e-02	1.340070859e-01	-2.666894681e-04	1.829630342e-11
-1.600000000e-02	1.340070871e-01	-2.653286556e-04	1.748695341e-11
-1.610000000e-02	1.340070881e-01	-2.639678429e-04	7.632344547e-12
-1.620000000e-02	1.340070892e-01	-2.626070301e-04	1.148585728e-11
-1.630000000e-02	1.340070902e-01	-2.612462172e-04	1.164634162e-11
-1.640000000e-02	1.340070911e-01	-2.598854042e-04	2.694472375e-11
-1.650000000e-02	1.340070920e-01	-2.585245910e-04	6.356180595e-12
-1.660000000e-02	1.340070929e-01	-2.571637777e-04	1.705550714e-11
-1.670000000e-02	1.340070937e-01	-2.558029643e-04	8.039765670e-12
-1.680000000e-02	1.340070945e-01	-2.544421508e-04	1.853214112e-11
-1.690000000e-02	1.340070953e-01	-2.530813372e-04	9.246901116e-12
-1.700000000e-02	1.340070960e-01	-2.517205234e-04	2.876429403e-11
-1.710000000e-02	1.340070966e-01	-2.503597096e-04	1.391550166e-11
-1.720000000e-02	1.340070972e-01	-2.489988956e-04	9.930944899e-12
-1.730000000e-02	1.340070978e-01	-2.476380816e-04	1.232388358e-11
-1.740000000e-02	1.340070984e-01	-2.462772674e-04	1.308766082e-11
-1.750000000e-02	1.340070989e-01	-2.449164531e-04	2.640334317e-11
-1.760000000e-02	1.340070993e-01	-2.435556388e-04	2.239147204e-11
-1.770000000e-02	1.340070997e-01	-2.421948243e-04	1.137066012e-11
-1.780000000e-02	1.340071001e-01	-2.408340098e-04	1.238760953e-11
-1.790000000e-02	1.340071004e-01	-2.394731951e-04	2.027318495e-11
-1.800000000e-02	1.340071007e-01	-2.381123804e-04	2.180582158e-11
-1.810000000e-02	1.340071010e-01	-2.367515655e-04	1.065924269e-11
-1.820000000e-02	1.340071012e-01	-2.353907506e-04	1.393546869e-11
-1.830000000e-02	1.340071013e-01	-2.340299356e-04	1.057004801e-11
-1.840000000e-02	1.340071015e-01	-2.326691205e-04	1.003197064e-11
-1.850000000e-02	1.340071016e-01	-2.313083054e-04	9.608689633e-12
-1.860000000e-02	1.340071016e-01	-2.299474901e-04	1.453335913e-11
-1.870000000e-02	1.340071016e-01	-2.285866748e-04	7.068651613e-12
-1.880000000e-02	1.340071016e-01	-2.272258594e-04	3.651974995e-11
-1.890000000e-02	1.340071015e-01	-2.258650439e-04	1.465173776e-10
-1.900000000e-02	1.340071014e-01	-2.245042284e-04	8.254266815e-12
-1.910000000e-02	1.340071012e-01	-2.231434128e-04	7.607052392e-12
-1.920000000e-02	1.340071010e-01	-2.217825972e-04	1.388839316e-11
-1.930000000e-02	1.340071007e-01	-2.204217814e-04	1.910699280e-11
-1.940000000e-02	1.340071004e-01	-2.190609657e-04	3.660468474e-11
-1.950000000e-02	1.340071001e-01	-2.177001498e-04	9.059327312e-12
-1.960000000e-02	1.340070997e-01	-2.163393339e-04	1.031136690e-11
-1.970000000e-02	1.340070993e-01	-2.149785179e-04	1.048467456e-11
-1.980000000e-02	1.340070989e-01	-2.136177019e-04	1.217263613e-11
-1.990000000e-02	1.340070984e-01	-2.122568859e-04	1.781055957e-11
-2.000000000e-02	1.340070978e-01	-2.108960697e-04	1.394003000e-11
-2.010000000e-02	1.340070973e-01	-2.095352536e-04	2.337538866e-11
-2.020000000e-02	1.340070967e-01	-2.081744374e-04	8.656156020e-12
-2.030000000e-02	1.340070960e-01	-2.068136211e-04	4.489967834e-11
-2.040000000e-02	1.340070953e-01	-2.054528048e-04	5.089830070e-12
-2.050000000e-02	1.340070945e-01	-2.040919885e-04	1.374620068e-11
-2.060000000e-02	1.340070938e-01	-2.027311722e-04	1.095739629e-11
-2.070000000e-02	1.340070929e-01	-2.013703557e-04	1.444967242e-11
-2.080000000e-02	1.340070921e-01	-2.000095393e-04	3.068541824e-11
-2.090000000e-02	1.340070912e-01	-1.986487229e-04	1.402416127e-11
-2.100000000e-02	1.340070902e-01	-1.972879064e-04	1.110872753e-11
-2.110000000e-02	1.340070892e-01	-1.959270899e-04	3.258174140e-11
-2.120000000e-02	1.340070882e-01	-1.945662734e-04	2.207404548e-10
-2.130000000e-02	1.340070871e-01	-1.932054568e-04	1.025888805e-11
-2.140000000e-02	1.340070860e-01	-1.918446402e-04	1.402979771e-11
-2.150000000e-02	1.340070848e-01	-1.904838236e-04	9.578992354e-12
-2.160000000e-02	1.340070836e-01	-1.891230070e-04	2.040408056e-11
-2.170000000e-02	1.340070824e-01	-1.877621904e-04	1.659502004e-11
-2.180000000e-02	1.340070811e-01	-1.864013737e-04	1.312214706e-11
-2.190000000e-02	1.340070798e-01	-1.850405571e-04	3.036800187e-11
-2.200000000e-02	1.340070784e-01	-1.836797404e-04	1.621256643e-11
-2.210000000e-02	1.340070770e-01	-1.823189238e-04	2.075981394e-11
-2.220000000e-02	1.340070756e-01	-1.809581071e-04	3.124490065e-11
-2.230000000e-02	1.340070741e-01	-1.795972904e-04	6.912883762e-11
-2.240000000e-02	1.340070726e-01	-1.782364738e-04	1.603383758e-11
-2.250000000e-02	1.340070710e-01	-1.768756571e-04	9.261439245e-12
-2.260000000e-02	1.340070694e-01	-1.755148405e-04	1.337498289e-11
-2.270000000e-02	1.340070677e-01	-1.741540238e-04	1.148821267e-11
-2.280000000e-02	1.340070660e-01	-1.727932072e-04	1.883941615e-11
-2.290000000e-02	1.340070643e-01	-1.714323906e-04	4.416606693e-11
-2.300000000e-02	1.340070625e-01	-1.700715740e-04	1.963346978e-11
-2.310000000e-02	1.340070607e-01	-1.687107574e-04	1.453700890e-11
-2.320000000e-02	1.340070589e-01	-1.673499408e-04	1.292190092e-11
-2.330000000e-02	1.340070570e-01	-1.659891242e-04	1.190529867e-11
-2.340000000e-02	1.340070550e-01	-1.646283077e-04	1.025129014e-11
-2.350000000e-02	1.340070530e-01	-1.632674912e-04	1.281710405e-11
-2.360000000e-02	1.340070510e-01	-1.619066747e-04	1.766947496e-11
-2.370000000e-02	1.340070489e-01	-1.605458583e-04	1.026921283e-11
-2.380000000e-02	1.340070468e-01	-1.591850419e-04	2.718030294e-11
-2.390000000e-02	1.340070447e-01	-1.578242255e-04	5.675084085e-11
-2.400000000e-02	1.340070425e-01	-1.564634091e-04	1.346847088e-11
-2.410000000e-02	1.340070403e-01	-1.551025928e-04	1.203451157e-11
-2.420000000e-02	1.340070380e-01	-1.537417765e-04	3.828658980e-11
-2.430000000e-02	1.340070357e-01	-1.523809603e-04	4.413589900e-11
-2.440000000e-02	1.340070333e-01	-1.510201441e-04	6.131173868e-12
-2.450000000e-02	1.340070309e-01	-1.496593279e-04	1.741917286e-11
-2.460000000e-02	1.340070285e-01	-1.482985118e-04	1.377403646e-11
-2.470000000e-02	1.340070260e-01	-1.469376958e-04	1.327624597e-11
-2.480000000e-02	1.340070235e-01	-1.455768798e-04	8.416885509e-12
-2.490000000e-02	1.340070209e-01	-1.442160638e-04	1.276456156e-11
-2.500000000e-02	1.340070183e-01	-1.428552479e-04	6.785440199e-12
-2.510000000e-02	1.340070157e-01	-1.414944321e-04	2.729346265e-11
-2.520000000e-02	1.340070130e-01	-1.401336163e-04	1.539181491e-11
-2.530000000e-02	1.340070103e-01	-1.387728006e-04	9.155911548e-12
-2.540000000e-02	1.340070075e-01	-1.374119849e-04	1.282328675e-11
-2.550000000e-02	1.340070047e-01	-1.360511694e-04	1.852025393e-11
-2.560000000e-02	1.340070018e-01	-1.346903538e-04	1.036925902e-11
-2.570000000e-02	1.340069989e-01	-1.333295384e-04	1.136544045e-11
-2.580000000e-02	1.340069960e-01	-1.319687230e-04	1.135431087e-11
-2.590000000e-02	1.340069930e-01	-1.306079077e-04	1.144485459e-11
-2.600000000e-02	1.340069900e-01	-1.292470925e-04	1.400822803e-11
-2.610000000e-02	1.340069870e-01	-1.278862773e-04	1.460386756e-11
-2.620000000e-02	1.340069839e-01	-1.265254623e-04	3.665302077e-11
-2.630000000e-02	1.340069807e-01	-1.251646473e-04	1.624700345e-11
-2.640000000e-02	1.340069775e-01	-1.238038324e-04	8.377066256e-12
-2.650000000e-02	1.340069743e-01	-1.224430176e-04	1.773686324e-11
-2.660000000e-02	1.340069710e-01	-1.210822029e-04	1.765740424e-11
-2.670000000e-02	1.340069677e-01	-1.197213882e-04	1.194009627e-11
-2.680000000e-02	1.340069644e-01	-1.183605737e-04	8.704484836e-12
-2.690000000e-02	1.340069610e-01	-1.169997593e-04	1.016920143e-11
-2.700000000e-02	1.340069576e-01	-1.156389449e-04	1.260901883e-11
-2.710000000e-02	1.340069541e-01	-1.142781307e-04	1.360011190e-11
-2.720000000e-02	1.340069506e-01	-1.129173165e-04	1.729747749e-11
-2.730000000e-02	1.340069470e-01	-1.115565025e-04	1.068072921e-10
-2.740000000e-02	1.340069434e-01	-1.101956886e-04	1.104726735e-11
-2.750000000e-02	1.340069398e-01	-1.088348747e-04	6.211917870e-12
-2.760000000e-02	1.340069361e-01	-1.074740610e-04	1.443577053e-11
-2.770000000e-02	1.340069324e-01	-1.061132474e-04	2.440270059e-11
-2.780000000e-02	1.340069286e-01	-1.047524339e-04	1.426683356e-11
-2.790000000e-02	1.340069248e-01	-1.033916205e-04	2.327448882e-11
-2.800000000e-02	1.340069210e-01	-1.020308073e-04	7.159720790e-12
-2.810000000e-02	1.340069171e-01	-1.006699942e-04	9.964089097e-12
-2.820000000e-02	1.340069132e-01	-9.930918114e-05	3.507356490e-11
-2.830000000e-02	1.340069092e-01	-9.794836826e-05	3.464755652e-11
-2.840000000e-02	1.340069052e-01	-9.658755549e-05	1.084944068e-11
-2.850000000e-02	1.340069012e-01	-9.522674286e-05	1.161422549e-11
-2.860000000e-02	1.340068971e-01	-9.386593036e-05	1.213010447e-11
-2.870000000e-02	1.340068929e-01	-9.250511798e-05	1.380914963e-11
-2.880000000e-02	1.340068888e-01	-9.114430574e-05	1.386924926e-11
-2.890000000e-02	1.340068845e-01	-8.978349364e-05	3.817035421e-11
-2.900000000e-02	1.340068803e-01	-8.842268169e-05	1.635721578e-11
-2.910000000e-02	1.340068760e-01	-8.706186987e-05	7.742390963e-12
-2.920000000e-02	1.340068716e-01	-8.570105819e-05	8.651400350e-12
-2.930000000e-02	1.340068673e-01	-8.434024667e-05	4.115310250e-11
-2.940000000e-02	1.340068628e-01	-8.297943529e-05	1.973460957e-11
-2.950000000e-02	1.340068584e-01	-8.161862405e-05	6.254777316e-11
-2.960000000e-02	1.340068539e-01	-8.025781296e-05	1.462074328e-11
-2.970000000e-02	1.340068493e-01	-7.889700204e-05	8.520013910e-12
-2.980000000e-02	1.340068447e-01	-7.753619127e-05	5.634393612e-12
-2.990000000e-02	1.340068401e-01	-7.617538066e-05	9.981395159e-12
-3.000000000e-02	1.340068354e-01	-7.481457020e-05	1.055295287e-11
