# Im(epsi1)     Re(omega/c)      Im(omega/c)      Eq(det).Opt det CON kz, R=0.5 \mum, mu_c=0.3, Re(epsi1)=3.90solve_det_conkz_vs_kz.py
0.000000000e+00	1.340097575e-01	-4.932522247e-04	7.167210704e-12
-1.000000000e-04	1.340097655e-01	-4.918917622e-04	1.419786653e-11
-2.000000000e-04	1.340097734e-01	-4.905312993e-04	2.053262781e-11
-3.000000000e-04	1.340097813e-01	-4.891708359e-04	7.094624046e-12
-4.000000000e-04	1.340097892e-01	-4.878103720e-04	1.517192205e-11
-5.000000000e-04	1.340097970e-01	-4.864499076e-04	7.735849426e-12
-6.000000000e-04	1.340098048e-01	-4.850894428e-04	1.266458743e-11
-7.000000000e-04	1.340098126e-01	-4.837289775e-04	1.061655740e-11
-8.000000000e-04	1.340098203e-01	-4.823685117e-04	2.166097981e-11
-9.000000000e-04	1.340098280e-01	-4.810080454e-04	5.304182864e-11
-1.000000000e-03	1.340098356e-01	-4.796475787e-04	9.666100818e-12
-1.100000000e-03	1.340098432e-01	-4.782871116e-04	2.789840853e-11
-1.200000000e-03	1.340098507e-01	-4.769266440e-04	4.645631717e-11
-1.300000000e-03	1.340098582e-01	-4.755661759e-04	1.392757821e-11
-1.400000000e-03	1.340098657e-01	-4.742057074e-04	7.670584717e-12
-1.500000000e-03	1.340098731e-01	-4.728452384e-04	1.781786947e-11
-1.600000000e-03	1.340098805e-01	-4.714847690e-04	1.342394878e-11
-1.700000000e-03	1.340098878e-01	-4.701242991e-04	2.424530967e-11
-1.800000000e-03	1.340098951e-01	-4.687638288e-04	2.583016352e-11
-1.900000000e-03	1.340099024e-01	-4.674033581e-04	9.647675356e-12
-2.000000000e-03	1.340099096e-01	-4.660428869e-04	1.334983335e-11
-2.100000000e-03	1.340099168e-01	-4.646824152e-04	1.927730616e-11
-2.200000000e-03	1.340099239e-01	-4.633219432e-04	1.404567078e-11
-2.300000000e-03	1.340099310e-01	-4.619614707e-04	1.133219041e-11
-2.400000000e-03	1.340099381e-01	-4.606009977e-04	1.043455907e-11
-2.500000000e-03	1.340099451e-01	-4.592405243e-04	4.699228718e-11
-2.600000000e-03	1.340099520e-01	-4.578800506e-04	2.104439247e-11
-2.700000000e-03	1.340099590e-01	-4.565195763e-04	5.978589358e-12
-2.800000000e-03	1.340099659e-01	-4.551591017e-04	1.099922149e-11
-2.900000000e-03	1.340099727e-01	-4.537986266e-04	2.061050537e-11
-3.000000000e-03	1.340099795e-01	-4.524381512e-04	8.374767427e-12
-3.100000000e-03	1.340099863e-01	-4.510776753e-04	2.538012220e-11
-3.200000000e-03	1.340099930e-01	-4.497171989e-04	1.235076692e-11
-3.300000000e-03	1.340099997e-01	-4.483567222e-04	1.047901686e-11
-3.400000000e-03	1.340100063e-01	-4.469962451e-04	1.128941136e-11
-3.500000000e-03	1.340100129e-01	-4.456357675e-04	1.815387006e-11
-3.600000000e-03	1.340100195e-01	-4.442752896e-04	5.657755373e-12
-3.700000000e-03	1.340100260e-01	-4.429148112e-04	3.145560445e-11
-3.800000000e-03	1.340100324e-01	-4.415543324e-04	2.901739448e-11
-3.900000000e-03	1.340100389e-01	-4.401938533e-04	7.398002905e-12
-4.000000000e-03	1.340100453e-01	-4.388333737e-04	1.595862718e-11
-4.100000000e-03	1.340100516e-01	-4.374728937e-04	1.121980129e-11
-4.200000000e-03	1.340100579e-01	-4.361124134e-04	7.268961614e-12
-4.300000000e-03	1.340100642e-01	-4.347519326e-04	1.535386303e-11
-4.400000000e-03	1.340100704e-01	-4.333914515e-04	1.009556827e-11
-4.500000000e-03	1.340100766e-01	-4.320309700e-04	2.751908638e-11
-4.600000000e-03	1.340100827e-01	-4.306704881e-04	8.866595302e-12
-4.700000000e-03	1.340100888e-01	-4.293100058e-04	1.227285246e-11
-4.800000000e-03	1.340100949e-01	-4.279495231e-04	8.976119864e-12
-4.900000000e-03	1.340101009e-01	-4.265890400e-04	9.334136975e-12
-5.000000000e-03	1.340101069e-01	-4.252285566e-04	1.065049349e-11
-5.100000000e-03	1.340101128e-01	-4.238680728e-04	8.771214670e-12
-5.200000000e-03	1.340101187e-01	-4.225075886e-04	8.529267648e-12
-5.300000000e-03	1.340101246e-01	-4.211471040e-04	1.367763352e-11
-5.400000000e-03	1.340101304e-01	-4.197866191e-04	7.483584116e-12
-5.500000000e-03	1.340101361e-01	-4.184261338e-04	2.017376139e-11
-5.600000000e-03	1.340101419e-01	-4.170656482e-04	2.116009798e-11
-5.700000000e-03	1.340101476e-01	-4.157051622e-04	8.671632584e-12
-5.800000000e-03	1.340101532e-01	-4.143446758e-04	7.215583508e-12
-5.900000000e-03	1.340101588e-01	-4.129841890e-04	1.359892229e-11
-6.000000000e-03	1.340101644e-01	-4.116237019e-04	1.480421823e-11
-6.100000000e-03	1.340101699e-01	-4.102632145e-04	7.969814870e-12
-6.200000000e-03	1.340101754e-01	-4.089027267e-04	2.495553697e-11
-6.300000000e-03	1.340101808e-01	-4.075422385e-04	2.256326025e-11
-6.400000000e-03	1.340101862e-01	-4.061817500e-04	1.695872860e-11
-6.500000000e-03	1.340101916e-01	-4.048212612e-04	7.464179931e-12
-6.600000000e-03	1.340101969e-01	-4.034607720e-04	2.025026250e-11
-6.700000000e-03	1.340102022e-01	-4.021002824e-04	9.948483150e-12
-6.800000000e-03	1.340102074e-01	-4.007397925e-04	6.000762366e-12
-6.900000000e-03	1.340102126e-01	-3.993793023e-04	1.880109184e-11
-7.000000000e-03	1.340102177e-01	-3.980188118e-04	1.381426668e-11
-7.100000000e-03	1.340102228e-01	-3.966583209e-04	1.103395975e-11
-7.200000000e-03	1.340102279e-01	-3.952978297e-04	1.412724961e-11
-7.300000000e-03	1.340102329e-01	-3.939373381e-04	9.266170364e-12
-7.400000000e-03	1.340102379e-01	-3.925768462e-04	1.223982343e-11
-7.500000000e-03	1.340102429e-01	-3.912163541e-04	1.193613425e-11
-7.600000000e-03	1.340102478e-01	-3.898558615e-04	2.045206456e-11
-7.700000000e-03	1.340102526e-01	-3.884953687e-04	1.750861793e-11
-7.800000000e-03	1.340102574e-01	-3.871348755e-04	1.420270900e-11
-7.900000000e-03	1.340102622e-01	-3.857743820e-04	1.384911647e-11
-8.000000000e-03	1.340102670e-01	-3.844138882e-04	7.557861794e-12
-8.100000000e-03	1.340102717e-01	-3.830533941e-04	5.615186366e-12
-8.200000000e-03	1.340102763e-01	-3.816928997e-04	2.256682033e-11
-8.300000000e-03	1.340102809e-01	-3.803324050e-04	3.121341049e-11
-8.400000000e-03	1.340102855e-01	-3.789719099e-04	1.726478328e-11
-8.500000000e-03	1.340102900e-01	-3.776114146e-04	8.677593367e-12
-8.600000000e-03	1.340102945e-01	-3.762509189e-04	4.274867714e-11
-8.700000000e-03	1.340102990e-01	-3.748904230e-04	7.139574435e-12
-8.800000000e-03	1.340103034e-01	-3.735299267e-04	7.418310545e-12
-8.900000000e-03	1.340103077e-01	-3.721694302e-04	8.996117745e-12
-9.000000000e-03	1.340103121e-01	-3.708089334e-04	2.131986540e-11
-9.100000000e-03	1.340103163e-01	-3.694484362e-04	1.042731336e-11
-9.200000000e-03	1.340103206e-01	-3.680879388e-04	4.116701555e-12
-9.300000000e-03	1.340103248e-01	-3.667274411e-04	1.159938332e-11
-9.400000000e-03	1.340103289e-01	-3.653669431e-04	1.173464391e-11
-9.500000000e-03	1.340103331e-01	-3.640064448e-04	1.308997048e-11
-9.600000000e-03	1.340103371e-01	-3.626459463e-04	1.512452642e-11
-9.700000000e-03	1.340103412e-01	-3.612854474e-04	3.026311940e-11
-9.800000000e-03	1.340103452e-01	-3.599249483e-04	1.050195230e-11
-9.900000000e-03	1.340103491e-01	-3.585644489e-04	1.254577955e-11
-1.000000000e-02	1.340103530e-01	-3.572039493e-04	1.136811847e-11
-1.010000000e-02	1.340103569e-01	-3.558434494e-04	4.943667367e-11
-1.020000000e-02	1.340103607e-01	-3.544829491e-04	9.533603749e-12
-1.030000000e-02	1.340103645e-01	-3.531224487e-04	2.361384714e-11
-1.040000000e-02	1.340103682e-01	-3.517619479e-04	1.568741286e-11
-1.050000000e-02	1.340103719e-01	-3.504014469e-04	1.140742462e-11
-1.060000000e-02	1.340103756e-01	-3.490409457e-04	8.320742784e-12
-1.070000000e-02	1.340103792e-01	-3.476804442e-04	1.767100564e-11
-1.080000000e-02	1.340103828e-01	-3.463199424e-04	6.203573427e-11
-1.090000000e-02	1.340103864e-01	-3.449594403e-04	1.060542914e-11
-1.100000000e-02	1.340103898e-01	-3.435989381e-04	7.962252501e-12
-1.110000000e-02	1.340103933e-01	-3.422384355e-04	1.007919860e-11
-1.120000000e-02	1.340103967e-01	-3.408779327e-04	1.518934663e-10
-1.130000000e-02	1.340104001e-01	-3.395174297e-04	1.754321900e-11
-1.140000000e-02	1.340104034e-01	-3.381569264e-04	1.155750581e-11
-1.150000000e-02	1.340104067e-01	-3.367964229e-04	6.041009750e-12
-1.160000000e-02	1.340104100e-01	-3.354359192e-04	8.505246016e-12
-1.170000000e-02	1.340104132e-01	-3.340754152e-04	1.337488314e-11
-1.180000000e-02	1.340104163e-01	-3.327149109e-04	9.276934895e-12
-1.190000000e-02	1.340104195e-01	-3.313544065e-04	1.045322288e-11
-1.200000000e-02	1.340104225e-01	-3.299939018e-04	1.557411354e-11
-1.210000000e-02	1.340104256e-01	-3.286333969e-04	8.318783238e-12
-1.220000000e-02	1.340104286e-01	-3.272728917e-04	2.212755167e-11
-1.230000000e-02	1.340104316e-01	-3.259123863e-04	1.152399194e-11
-1.240000000e-02	1.340104345e-01	-3.245518807e-04	1.381146968e-11
-1.250000000e-02	1.340104373e-01	-3.231913749e-04	1.086754235e-11
-1.260000000e-02	1.340104402e-01	-3.218308689e-04	5.052671611e-12
-1.270000000e-02	1.340104430e-01	-3.204703626e-04	1.732534475e-11
-1.280000000e-02	1.340104457e-01	-3.191098561e-04	1.497600873e-11
-1.290000000e-02	1.340104484e-01	-3.177493494e-04	1.756234051e-11
-1.300000000e-02	1.340104511e-01	-3.163888425e-04	1.240728966e-11
-1.310000000e-02	1.340104537e-01	-3.150283354e-04	2.094397216e-11
-1.320000000e-02	1.340104563e-01	-3.136678281e-04	1.125174573e-11
-1.330000000e-02	1.340104589e-01	-3.123073206e-04	3.620593630e-11
-1.340000000e-02	1.340104614e-01	-3.109468129e-04	6.776822731e-12
-1.350000000e-02	1.340104638e-01	-3.095863050e-04	1.894725876e-11
-1.360000000e-02	1.340104663e-01	-3.082257968e-04	8.765695084e-12
-1.370000000e-02	1.340104687e-01	-3.068652885e-04	2.269814456e-11
-1.380000000e-02	1.340104710e-01	-3.055047800e-04	1.522646165e-11
-1.390000000e-02	1.340104733e-01	-3.041442713e-04	1.766002825e-11
-1.400000000e-02	1.340104755e-01	-3.027837624e-04	1.405713038e-11
-1.410000000e-02	1.340104778e-01	-3.014232533e-04	2.105041582e-11
-1.420000000e-02	1.340104799e-01	-3.000627441e-04	7.532341988e-12
-1.430000000e-02	1.340104821e-01	-2.987022346e-04	1.084837603e-11
-1.440000000e-02	1.340104842e-01	-2.973417250e-04	1.510744420e-11
-1.450000000e-02	1.340104862e-01	-2.959812152e-04	8.763639050e-12
-1.460000000e-02	1.340104882e-01	-2.946207052e-04	2.011934138e-11
-1.470000000e-02	1.340104902e-01	-2.932601950e-04	1.546835021e-11
-1.480000000e-02	1.340104921e-01	-2.918996847e-04	1.196693823e-11
-1.490000000e-02	1.340104940e-01	-2.905391742e-04	6.979510642e-12
-1.500000000e-02	1.340104959e-01	-2.891786635e-04	1.579384214e-11
-1.510000000e-02	1.340104977e-01	-2.878181526e-04	1.508454236e-11
-1.520000000e-02	1.340104994e-01	-2.864576416e-04	2.157402759e-11
-1.530000000e-02	1.340105011e-01	-2.850971305e-04	9.921025701e-12
-1.540000000e-02	1.340105028e-01	-2.837366191e-04	1.273608250e-11
-1.550000000e-02	1.340105045e-01	-2.823761076e-04	2.783331014e-11
-1.560000000e-02	1.340105061e-01	-2.810155960e-04	1.226932145e-11
-1.570000000e-02	1.340105076e-01	-2.796550842e-04	5.942713668e-12
-1.580000000e-02	1.340105091e-01	-2.782945722e-04	5.892563751e-12
-1.590000000e-02	1.340105106e-01	-2.769340601e-04	8.266324902e-12
-1.600000000e-02	1.340105120e-01	-2.755735479e-04	3.301798213e-11
-1.610000000e-02	1.340105134e-01	-2.742130355e-04	1.472009678e-11
-1.620000000e-02	1.340105148e-01	-2.728525229e-04	4.309412173e-12
-1.630000000e-02	1.340105161e-01	-2.714920102e-04	2.030580562e-11
-1.640000000e-02	1.340105173e-01	-2.701314974e-04	1.747194810e-11
-1.650000000e-02	1.340105186e-01	-2.687709844e-04	7.095395739e-12
-1.660000000e-02	1.340105197e-01	-2.674104713e-04	1.611941146e-11
-1.670000000e-02	1.340105209e-01	-2.660499581e-04	1.577641991e-11
-1.680000000e-02	1.340105220e-01	-2.646894447e-04	1.079279972e-11
-1.690000000e-02	1.340105230e-01	-2.633289312e-04	1.842470324e-11
-1.700000000e-02	1.340105241e-01	-2.619684176e-04	1.128979950e-11
-1.710000000e-02	1.340105250e-01	-2.606079039e-04	6.832873143e-12
-1.720000000e-02	1.340105260e-01	-2.592473900e-04	9.063615844e-12
-1.730000000e-02	1.340105269e-01	-2.578868760e-04	2.310264069e-11
-1.740000000e-02	1.340105277e-01	-2.565263619e-04	1.220562470e-11
-1.750000000e-02	1.340105285e-01	-2.551658477e-04	3.028252768e-11
-1.760000000e-02	1.340105293e-01	-2.538053333e-04	8.772765549e-12
-1.770000000e-02	1.340105300e-01	-2.524448189e-04	1.048191172e-11
-1.780000000e-02	1.340105307e-01	-2.510843043e-04	3.088639552e-11
-1.790000000e-02	1.340105314e-01	-2.497237896e-04	7.328517951e-12
-1.800000000e-02	1.340105320e-01	-2.483632748e-04	8.258581989e-12
-1.810000000e-02	1.340105325e-01	-2.470027599e-04	1.705900950e-11
-1.820000000e-02	1.340105331e-01	-2.456422450e-04	1.013472118e-11
-1.830000000e-02	1.340105335e-01	-2.442817299e-04	1.448195369e-11
-1.840000000e-02	1.340105340e-01	-2.429212147e-04	2.152394492e-11
-1.850000000e-02	1.340105344e-01	-2.415606994e-04	7.202620516e-12
-1.860000000e-02	1.340105347e-01	-2.402001840e-04	1.736700674e-11
-1.870000000e-02	1.340105350e-01	-2.388396685e-04	3.144258909e-11
-1.880000000e-02	1.340105353e-01	-2.374791530e-04	1.958177034e-11
-1.890000000e-02	1.340105356e-01	-2.361186373e-04	4.353822086e-11
-1.900000000e-02	1.340105357e-01	-2.347581216e-04	8.580982720e-12
-1.910000000e-02	1.340105359e-01	-2.333976058e-04	1.336768927e-11
-1.920000000e-02	1.340105360e-01	-2.320370899e-04	8.566681159e-12
-1.930000000e-02	1.340105361e-01	-2.306765739e-04	2.446090456e-11
-1.940000000e-02	1.340105361e-01	-2.293160578e-04	4.795171330e-11
-1.950000000e-02	1.340105361e-01	-2.279555417e-04	2.063788597e-11
-1.960000000e-02	1.340105360e-01	-2.265950255e-04	1.077811831e-11
-1.970000000e-02	1.340105359e-01	-2.252345092e-04	1.228925812e-11
-1.980000000e-02	1.340105358e-01	-2.238739929e-04	1.027519163e-11
-1.990000000e-02	1.340105356e-01	-2.225134765e-04	1.923064702e-11
-2.000000000e-02	1.340105354e-01	-2.211529600e-04	1.518388176e-11
-2.010000000e-02	1.340105351e-01	-2.197924435e-04	1.362571549e-11
-2.020000000e-02	1.340105348e-01	-2.184319269e-04	9.660984092e-12
-2.030000000e-02	1.340105345e-01	-2.170714102e-04	1.128509044e-11
-2.040000000e-02	1.340105341e-01	-2.157108935e-04	1.892094360e-11
-2.050000000e-02	1.340105337e-01	-2.143503767e-04	1.214650999e-10
-2.060000000e-02	1.340105332e-01	-2.129898599e-04	1.037568122e-11
-2.070000000e-02	1.340105327e-01	-2.116293430e-04	6.341503156e-12
-2.080000000e-02	1.340105321e-01	-2.102688261e-04	1.354920796e-11
-2.090000000e-02	1.340105315e-01	-2.089083091e-04	3.118409056e-11
-2.100000000e-02	1.340105309e-01	-2.075477921e-04	1.549133332e-11
-2.110000000e-02	1.340105302e-01	-2.061872751e-04	1.786544498e-11
-2.120000000e-02	1.340105295e-01	-2.048267580e-04	1.364940781e-11
-2.130000000e-02	1.340105287e-01	-2.034662408e-04	2.002589963e-11
-2.140000000e-02	1.340105279e-01	-2.021057237e-04	7.316433517e-12
-2.150000000e-02	1.340105271e-01	-2.007452065e-04	1.461125297e-11
-2.160000000e-02	1.340105262e-01	-1.993846893e-04	1.189917387e-11
-2.170000000e-02	1.340105253e-01	-1.980241720e-04	1.211797576e-11
-2.180000000e-02	1.340105243e-01	-1.966636547e-04	3.763938112e-11
-2.190000000e-02	1.340105233e-01	-1.953031374e-04	1.648977819e-11
-2.200000000e-02	1.340105223e-01	-1.939426201e-04	2.302871591e-11
-2.210000000e-02	1.340105212e-01	-1.925821027e-04	3.195425320e-11
-2.220000000e-02	1.340105201e-01	-1.912215853e-04	7.286396773e-12
-2.230000000e-02	1.340105189e-01	-1.898610679e-04	1.356681859e-11
-2.240000000e-02	1.340105177e-01	-1.885005505e-04	3.993587181e-11
-2.250000000e-02	1.340105164e-01	-1.871400331e-04	1.792502212e-11
-2.260000000e-02	1.340105151e-01	-1.857795157e-04	2.529898116e-11
-2.270000000e-02	1.340105138e-01	-1.844189982e-04	1.235343302e-11
-2.280000000e-02	1.340105124e-01	-1.830584808e-04	4.789869079e-12
-2.290000000e-02	1.340105110e-01	-1.816979633e-04	1.089522937e-11
-2.300000000e-02	1.340105095e-01	-1.803374459e-04	5.634398019e-12
-2.310000000e-02	1.340105080e-01	-1.789769284e-04	9.134701817e-12
-2.320000000e-02	1.340105065e-01	-1.776164110e-04	1.670088790e-11
-2.330000000e-02	1.340105049e-01	-1.762558935e-04	2.151188800e-11
-2.340000000e-02	1.340105033e-01	-1.748953761e-04	1.042782437e-11
-2.350000000e-02	1.340105016e-01	-1.735348587e-04	1.403336458e-11
-2.360000000e-02	1.340104999e-01	-1.721743412e-04	1.907229645e-11
-2.370000000e-02	1.340104981e-01	-1.708138238e-04	5.714852618e-11
-2.380000000e-02	1.340104963e-01	-1.694533064e-04	1.295820361e-11
-2.390000000e-02	1.340104945e-01	-1.680927891e-04	1.163080967e-11
-2.400000000e-02	1.340104926e-01	-1.667322717e-04	9.636217026e-12
-2.410000000e-02	1.340104907e-01	-1.653717544e-04	1.804294314e-11
-2.420000000e-02	1.340104888e-01	-1.640112370e-04	1.837944188e-11
-2.430000000e-02	1.340104868e-01	-1.626507198e-04	1.097287605e-11
-2.440000000e-02	1.340104847e-01	-1.612902025e-04	7.878859999e-12
-2.450000000e-02	1.340104826e-01	-1.599296853e-04	2.188151909e-11
-2.460000000e-02	1.340104805e-01	-1.585691680e-04	6.966914908e-12
-2.470000000e-02	1.340104784e-01	-1.572086509e-04	5.609893297e-12
-2.480000000e-02	1.340104762e-01	-1.558481337e-04	7.275910938e-12
-2.490000000e-02	1.340104739e-01	-1.544876166e-04	4.517124278e-12
-2.500000000e-02	1.340104716e-01	-1.531270996e-04	9.250881657e-12
-2.510000000e-02	1.340104693e-01	-1.517665826e-04	2.213361293e-11
-2.520000000e-02	1.340104669e-01	-1.504060656e-04	7.716825039e-12
-2.530000000e-02	1.340104645e-01	-1.490455487e-04	1.360242800e-11
-2.540000000e-02	1.340104621e-01	-1.476850318e-04	2.046469012e-11
-2.550000000e-02	1.340104596e-01	-1.463245150e-04	9.783323543e-12
-2.560000000e-02	1.340104570e-01	-1.449639982e-04	1.904124178e-11
-2.570000000e-02	1.340104544e-01	-1.436034815e-04	2.267493531e-11
-2.580000000e-02	1.340104518e-01	-1.422429648e-04	1.239108217e-11
-2.590000000e-02	1.340104492e-01	-1.408824482e-04	3.729954038e-11
-2.600000000e-02	1.340104465e-01	-1.395219316e-04	2.155288030e-11
-2.610000000e-02	1.340104437e-01	-1.381614151e-04	9.429385177e-12
-2.620000000e-02	1.340104409e-01	-1.368008987e-04	8.379499397e-12
-2.630000000e-02	1.340104381e-01	-1.354403823e-04	1.225302664e-11
-2.640000000e-02	1.340104353e-01	-1.340798661e-04	2.721578837e-11
-2.650000000e-02	1.340104323e-01	-1.327193498e-04	1.043764648e-11
-2.660000000e-02	1.340104294e-01	-1.313588337e-04	7.679014105e-12
-2.670000000e-02	1.340104264e-01	-1.299983176e-04	1.268092553e-11
-2.680000000e-02	1.340104234e-01	-1.286378016e-04	6.994955935e-12
-2.690000000e-02	1.340104203e-01	-1.272772857e-04	6.903328631e-12
-2.700000000e-02	1.340104172e-01	-1.259167699e-04	3.520935196e-11
-2.710000000e-02	1.340104140e-01	-1.245562541e-04	1.238957150e-11
-2.720000000e-02	1.340104108e-01	-1.231957385e-04	8.560586881e-12
-2.730000000e-02	1.340104076e-01	-1.218352229e-04	3.163698055e-11
-2.740000000e-02	1.340104043e-01	-1.204747074e-04	1.707173903e-11
-2.750000000e-02	1.340104010e-01	-1.191141920e-04	1.427636074e-11
-2.760000000e-02	1.340103976e-01	-1.177536767e-04	2.856669520e-11
-2.770000000e-02	1.340103942e-01	-1.163931615e-04	8.147833479e-12
-2.780000000e-02	1.340103908e-01	-1.150326464e-04	1.001775464e-11
-2.790000000e-02	1.340103873e-01	-1.136721314e-04	2.180468034e-11
-2.800000000e-02	1.340103838e-01	-1.123116165e-04	2.764050572e-11
-2.810000000e-02	1.340103802e-01	-1.109511017e-04	5.862482301e-12
-2.820000000e-02	1.340103766e-01	-1.095905870e-04	1.606189452e-11
-2.830000000e-02	1.340103729e-01	-1.082300724e-04	3.030405562e-11
-2.840000000e-02	1.340103693e-01	-1.068695579e-04	9.656138894e-12
-2.850000000e-02	1.340103655e-01	-1.055090436e-04	2.180184175e-11
-2.860000000e-02	1.340103617e-01	-1.041485293e-04	1.533443045e-11
-2.870000000e-02	1.340103579e-01	-1.027880152e-04	5.223378591e-11
-2.880000000e-02	1.340103541e-01	-1.014275012e-04	1.799770862e-11
-2.890000000e-02	1.340103502e-01	-1.000669873e-04	1.181144750e-11
-2.900000000e-02	1.340103462e-01	-9.870647351e-05	1.447213062e-11
-2.910000000e-02	1.340103422e-01	-9.734595987e-05	7.519985462e-12
-2.920000000e-02	1.340103382e-01	-9.598544634e-05	3.088647482e-11
-2.930000000e-02	1.340103342e-01	-9.462493296e-05	1.404880697e-11
-2.940000000e-02	1.340103301e-01	-9.326441971e-05	9.904693006e-12
-2.950000000e-02	1.340103259e-01	-9.190390658e-05	2.738948247e-10
-2.960000000e-02	1.340103217e-01	-9.054339360e-05	3.734906404e-11
-2.970000000e-02	1.340103175e-01	-8.918288074e-05	2.131158273e-11
-2.980000000e-02	1.340103132e-01	-8.782236803e-05	2.598036918e-11
-2.990000000e-02	1.340103089e-01	-8.646185546e-05	1.866912669e-11
-3.000000000e-02	1.340103045e-01	-8.510134303e-05	1.159631479e-11
