# Im(epsi1)     Re(omega/c)      Im(omega/c)      Eq(det).Opt det CON kz, R=0.5 \mum, mu_c=0.3, Re(epsi1)=3.90solve_det_conkz_vs_kz.py
0.000000000e+00	1.339678091e-01	-5.610238650e-04	1.684863228e-11
-1.000000000e-04	1.339678189e-01	-5.596634609e-04	3.154667393e-12
-2.000000000e-04	1.339678288e-01	-5.583030561e-04	2.519492090e-11
-3.000000000e-04	1.339678385e-01	-5.569426508e-04	6.605223470e-12
-4.000000000e-04	1.339678483e-01	-5.555822449e-04	4.840946052e-11
-5.000000000e-04	1.339678580e-01	-5.542218383e-04	2.203575769e-11
-6.000000000e-04	1.339678676e-01	-5.528614312e-04	1.873533222e-11
-7.000000000e-04	1.339678772e-01	-5.515010235e-04	2.657867984e-11
-8.000000000e-04	1.339678868e-01	-5.501406151e-04	1.499751097e-11
-9.000000000e-04	1.339678964e-01	-5.487802062e-04	8.224793120e-12
-1.000000000e-03	1.339679058e-01	-5.474197967e-04	1.874912035e-11
-1.100000000e-03	1.339679153e-01	-5.460593866e-04	7.179332831e-12
-1.200000000e-03	1.339679247e-01	-5.446989760e-04	1.200505843e-11
-1.300000000e-03	1.339679341e-01	-5.433385647e-04	7.502158121e-12
-1.400000000e-03	1.339679434e-01	-5.419781529e-04	8.362642859e-12
-1.500000000e-03	1.339679527e-01	-5.406177405e-04	2.591692127e-11
-1.600000000e-03	1.339679619e-01	-5.392573275e-04	9.638046315e-12
-1.700000000e-03	1.339679712e-01	-5.378969139e-04	1.253522318e-11
-1.800000000e-03	1.339679803e-01	-5.365364998e-04	1.232830530e-11
-1.900000000e-03	1.339679894e-01	-5.351760851e-04	3.291148501e-11
-2.000000000e-03	1.339679985e-01	-5.338156698e-04	3.071768307e-11
-2.100000000e-03	1.339680076e-01	-5.324552540e-04	5.229127362e-11
-2.200000000e-03	1.339680166e-01	-5.310948376e-04	5.718941956e-12
-2.300000000e-03	1.339680255e-01	-5.297344206e-04	9.423783180e-12
-2.400000000e-03	1.339680344e-01	-5.283740031e-04	1.292712779e-11
-2.500000000e-03	1.339680433e-01	-5.270135850e-04	4.375176525e-11
-2.600000000e-03	1.339680522e-01	-5.256531664e-04	1.905002507e-11
-2.700000000e-03	1.339680610e-01	-5.242927472e-04	3.924052175e-12
-2.800000000e-03	1.339680697e-01	-5.229323275e-04	2.475247912e-12
-2.900000000e-03	1.339680784e-01	-5.215719072e-04	5.523848461e-11
-3.000000000e-03	1.339680871e-01	-5.202114864e-04	9.483003435e-12
-3.100000000e-03	1.339680957e-01	-5.188510650e-04	2.034758152e-11
-3.200000000e-03	1.339681043e-01	-5.174906431e-04	1.976996064e-10
-3.300000000e-03	1.339681129e-01	-5.161302207e-04	4.769240244e-12
-3.400000000e-03	1.339681214e-01	-5.147697977e-04	7.234009859e-12
-3.500000000e-03	1.339681299e-01	-5.134093742e-04	1.206681646e-11
-3.600000000e-03	1.339681383e-01	-5.120489501e-04	1.425807053e-11
-3.700000000e-03	1.339681467e-01	-5.106885255e-04	2.305856972e-11
-3.800000000e-03	1.339681550e-01	-5.093281004e-04	5.007485060e-11
-3.900000000e-03	1.339681633e-01	-5.079676748e-04	3.557281608e-11
-4.000000000e-03	1.339681716e-01	-5.066072486e-04	1.655318831e-11
-4.100000000e-03	1.339681798e-01	-5.052468219e-04	7.332490699e-12
-4.200000000e-03	1.339681880e-01	-5.038863947e-04	1.273652711e-10
-4.300000000e-03	1.339681961e-01	-5.025259670e-04	7.221102422e-12
-4.400000000e-03	1.339682042e-01	-5.011655387e-04	3.028894467e-11
-4.500000000e-03	1.339682123e-01	-4.998051100e-04	1.832559338e-11
-4.600000000e-03	1.339682203e-01	-4.984446807e-04	2.492282883e-11
-4.700000000e-03	1.339682283e-01	-4.970842509e-04	2.549653120e-11
-4.800000000e-03	1.339682362e-01	-4.957238206e-04	2.181803322e-11
-4.900000000e-03	1.339682441e-01	-4.943633898e-04	1.029520283e-11
-5.000000000e-03	1.339682520e-01	-4.930029585e-04	8.217188618e-12
-5.100000000e-03	1.339682598e-01	-4.916425267e-04	6.259020323e-12
-5.200000000e-03	1.339682676e-01	-4.902820944e-04	1.779143694e-11
-5.300000000e-03	1.339682753e-01	-4.889216616e-04	1.560944307e-11
-5.400000000e-03	1.339682830e-01	-4.875612283e-04	4.619038435e-12
-5.500000000e-03	1.339682906e-01	-4.862007945e-04	1.097095447e-11
-5.600000000e-03	1.339682982e-01	-4.848403603e-04	2.870156417e-12
-5.700000000e-03	1.339683058e-01	-4.834799255e-04	4.148795050e-11
-5.800000000e-03	1.339683133e-01	-4.821194903e-04	2.863451641e-11
-5.900000000e-03	1.339683208e-01	-4.807590545e-04	9.894010014e-11
-6.000000000e-03	1.339683283e-01	-4.793986183e-04	1.323252226e-11
-6.100000000e-03	1.339683357e-01	-4.780381816e-04	9.109494877e-12
-6.200000000e-03	1.339683430e-01	-4.766777444e-04	4.184126362e-11
-6.300000000e-03	1.339683504e-01	-4.753173068e-04	3.041128707e-12
-6.400000000e-03	1.339683576e-01	-4.739568686e-04	2.128256162e-11
-6.500000000e-03	1.339683649e-01	-4.725964301e-04	4.107306698e-12
-6.600000000e-03	1.339683721e-01	-4.712359910e-04	6.588882199e-11
-6.700000000e-03	1.339683792e-01	-4.698755514e-04	1.491114099e-11
-6.800000000e-03	1.339683863e-01	-4.685151114e-04	1.934003658e-11
-6.900000000e-03	1.339683934e-01	-4.671546710e-04	2.227601469e-11
-7.000000000e-03	1.339684005e-01	-4.657942301e-04	4.870664552e-12
-7.100000000e-03	1.339684075e-01	-4.644337887e-04	2.301657684e-11
-7.200000000e-03	1.339684144e-01	-4.630733468e-04	2.047338191e-11
-7.300000000e-03	1.339684213e-01	-4.617129045e-04	5.776697619e-11
-7.400000000e-03	1.339684282e-01	-4.603524618e-04	1.916739238e-11
-7.500000000e-03	1.339684350e-01	-4.589920186e-04	8.379896455e-12
-7.600000000e-03	1.339684418e-01	-4.576315750e-04	1.259415613e-11
-7.700000000e-03	1.339684486e-01	-4.562711309e-04	1.525570262e-11
-7.800000000e-03	1.339684553e-01	-4.549106863e-04	6.617947835e-11
-7.900000000e-03	1.339684619e-01	-4.535502413e-04	3.331644449e-11
-8.000000000e-03	1.339684686e-01	-4.521897959e-04	1.243446201e-11
-8.100000000e-03	1.339684751e-01	-4.508293501e-04	1.742582900e-11
-8.200000000e-03	1.339684817e-01	-4.494689038e-04	2.252766248e-11
-8.300000000e-03	1.339684882e-01	-4.481084571e-04	1.293452238e-11
-8.400000000e-03	1.339684947e-01	-4.467480099e-04	2.077951207e-12
-8.500000000e-03	1.339685011e-01	-4.453875623e-04	2.205875099e-11
-8.600000000e-03	1.339685075e-01	-4.440271143e-04	2.646106503e-12
-8.700000000e-03	1.339685138e-01	-4.426666659e-04	4.155331368e-11
-8.800000000e-03	1.339685201e-01	-4.413062170e-04	1.290872840e-11
-8.900000000e-03	1.339685263e-01	-4.399457677e-04	2.593940560e-11
-9.000000000e-03	1.339685326e-01	-4.385853180e-04	1.710427853e-11
-9.100000000e-03	1.339685387e-01	-4.372248679e-04	2.236684339e-11
-9.200000000e-03	1.339685449e-01	-4.358644174e-04	1.254758384e-11
-9.300000000e-03	1.339685510e-01	-4.345039664e-04	8.281995288e-12
-9.400000000e-03	1.339685570e-01	-4.331435151e-04	1.533351777e-11
-9.500000000e-03	1.339685630e-01	-4.317830633e-04	3.293868146e-11
-9.600000000e-03	1.339685690e-01	-4.304226112e-04	1.467416348e-11
-9.700000000e-03	1.339685749e-01	-4.290621586e-04	1.342453638e-11
-9.800000000e-03	1.339685808e-01	-4.277017056e-04	5.484502476e-12
-9.900000000e-03	1.339685867e-01	-4.263412522e-04	2.786551285e-11
-1.000000000e-02	1.339685925e-01	-4.249807985e-04	1.467222660e-11
-1.010000000e-02	1.339685982e-01	-4.236203443e-04	4.031262308e-12
-1.020000000e-02	1.339686040e-01	-4.222598897e-04	2.250692599e-11
-1.030000000e-02	1.339686096e-01	-4.208994348e-04	5.263734574e-12
-1.040000000e-02	1.339686153e-01	-4.195389795e-04	1.382865755e-11
-1.050000000e-02	1.339686209e-01	-4.181785237e-04	2.568207291e-11
-1.060000000e-02	1.339686265e-01	-4.168180676e-04	4.387785853e-11
-1.070000000e-02	1.339686320e-01	-4.154576111e-04	1.759393489e-11
-1.080000000e-02	1.339686375e-01	-4.140971543e-04	1.835074416e-11
-1.090000000e-02	1.339686429e-01	-4.127366970e-04	1.011629855e-10
-1.100000000e-02	1.339686483e-01	-4.113762394e-04	1.220608985e-10
-1.110000000e-02	1.339686536e-01	-4.100157814e-04	8.038366522e-12
-1.120000000e-02	1.339686590e-01	-4.086553230e-04	4.116328369e-11
-1.130000000e-02	1.339686642e-01	-4.072948643e-04	1.842550313e-11
-1.140000000e-02	1.339686695e-01	-4.059344052e-04	1.857400410e-11
-1.150000000e-02	1.339686747e-01	-4.045739457e-04	1.543848273e-11
-1.160000000e-02	1.339686798e-01	-4.032134859e-04	8.242850444e-12
-1.170000000e-02	1.339686849e-01	-4.018530257e-04	5.884603602e-12
-1.180000000e-02	1.339686900e-01	-4.004925651e-04	1.076268238e-11
-1.190000000e-02	1.339686950e-01	-3.991321042e-04	2.918119826e-11
-1.200000000e-02	1.339687000e-01	-3.977716429e-04	6.698459231e-12
-1.210000000e-02	1.339687050e-01	-3.964111813e-04	1.298229131e-11
-1.220000000e-02	1.339687099e-01	-3.950507193e-04	1.039167551e-11
-1.230000000e-02	1.339687147e-01	-3.936902570e-04	1.844815464e-11
-1.240000000e-02	1.339687195e-01	-3.923297943e-04	2.895569326e-11
-1.250000000e-02	1.339687243e-01	-3.909693313e-04	4.237633564e-12
-1.260000000e-02	1.339687291e-01	-3.896088680e-04	3.461325404e-12
-1.270000000e-02	1.339687338e-01	-3.882484043e-04	1.256914104e-11
-1.280000000e-02	1.339687384e-01	-3.868879402e-04	9.315261280e-12
-1.290000000e-02	1.339687430e-01	-3.855274759e-04	1.238641205e-11
-1.300000000e-02	1.339687476e-01	-3.841670112e-04	1.966878102e-11
-1.310000000e-02	1.339687522e-01	-3.828065461e-04	3.927955027e-11
-1.320000000e-02	1.339687567e-01	-3.814460808e-04	3.772932739e-11
-1.330000000e-02	1.339687611e-01	-3.800856151e-04	1.124789607e-11
-1.340000000e-02	1.339687655e-01	-3.787251490e-04	1.632202078e-11
-1.350000000e-02	1.339687699e-01	-3.773646827e-04	1.185278440e-11
-1.360000000e-02	1.339687742e-01	-3.760042161e-04	9.466920287e-12
-1.370000000e-02	1.339687785e-01	-3.746437491e-04	7.977009660e-12
-1.380000000e-02	1.339687828e-01	-3.732832818e-04	5.594117339e-12
-1.390000000e-02	1.339687870e-01	-3.719228142e-04	1.198393105e-11
-1.400000000e-02	1.339687912e-01	-3.705623462e-04	1.259978174e-11
-1.410000000e-02	1.339687953e-01	-3.692018780e-04	1.332327395e-11
-1.420000000e-02	1.339687994e-01	-3.678414095e-04	2.265431579e-11
-1.430000000e-02	1.339688034e-01	-3.664809406e-04	6.208175475e-11
-1.440000000e-02	1.339688074e-01	-3.651204715e-04	2.657312956e-11
-1.450000000e-02	1.339688114e-01	-3.637600020e-04	1.452097132e-11
-1.460000000e-02	1.339688153e-01	-3.623995323e-04	3.563433352e-11
-1.470000000e-02	1.339688192e-01	-3.610390622e-04	3.252141164e-11
-1.480000000e-02	1.339688230e-01	-3.596785919e-04	1.769043987e-11
-1.490000000e-02	1.339688268e-01	-3.583181212e-04	5.962762800e-11
-1.500000000e-02	1.339688306e-01	-3.569576503e-04	3.491276327e-11
-1.510000000e-02	1.339688343e-01	-3.555971791e-04	1.326691640e-12
-1.520000000e-02	1.339688380e-01	-3.542367076e-04	1.861752765e-11
-1.530000000e-02	1.339688416e-01	-3.528762358e-04	2.267306237e-11
-1.540000000e-02	1.339688452e-01	-3.515157637e-04	1.573294746e-11
-1.550000000e-02	1.339688488e-01	-3.501552914e-04	4.592734044e-11
-1.560000000e-02	1.339688523e-01	-3.487948187e-04	3.936342867e-11
-1.570000000e-02	1.339688557e-01	-3.474343458e-04	1.178036244e-11
-1.580000000e-02	1.339688592e-01	-3.460738726e-04	7.439258267e-11
-1.590000000e-02	1.339688626e-01	-3.447133992e-04	1.793264431e-11
-1.600000000e-02	1.339688659e-01	-3.433529255e-04	1.176202203e-11
-1.610000000e-02	1.339688692e-01	-3.419924515e-04	2.461630163e-11
-1.620000000e-02	1.339688725e-01	-3.406319772e-04	2.534393823e-11
-1.630000000e-02	1.339688757e-01	-3.392715027e-04	1.278670668e-11
-1.640000000e-02	1.339688789e-01	-3.379110279e-04	3.741764354e-11
-1.650000000e-02	1.339688820e-01	-3.365505529e-04	1.030820132e-11
-1.660000000e-02	1.339688852e-01	-3.351900776e-04	1.818473387e-11
-1.670000000e-02	1.339688882e-01	-3.338296020e-04	2.486111921e-11
-1.680000000e-02	1.339688912e-01	-3.324691262e-04	5.029294896e-11
-1.690000000e-02	1.339688942e-01	-3.311086501e-04	1.488691758e-11
-1.700000000e-02	1.339688972e-01	-3.297481738e-04	7.436312101e-12
-1.710000000e-02	1.339689001e-01	-3.283876973e-04	5.231386978e-11
-1.720000000e-02	1.339689029e-01	-3.270272205e-04	1.890348750e-11
-1.730000000e-02	1.339689057e-01	-3.256667434e-04	6.200656504e-12
-1.740000000e-02	1.339689085e-01	-3.243062662e-04	1.232085156e-11
-1.750000000e-02	1.339689112e-01	-3.229457886e-04	9.258911004e-12
-1.760000000e-02	1.339689139e-01	-3.215853109e-04	8.706832112e-12
-1.770000000e-02	1.339689166e-01	-3.202248329e-04	1.485076321e-11
-1.780000000e-02	1.339689192e-01	-3.188643547e-04	1.187774055e-11
-1.790000000e-02	1.339689218e-01	-3.175038762e-04	9.610403258e-11
-1.800000000e-02	1.339689243e-01	-3.161433976e-04	7.822760358e-12
-1.810000000e-02	1.339689268e-01	-3.147829186e-04	1.453403098e-11
-1.820000000e-02	1.339689292e-01	-3.134224395e-04	7.159642375e-12
-1.830000000e-02	1.339689316e-01	-3.120619602e-04	1.231528761e-11
-1.840000000e-02	1.339689340e-01	-3.107014806e-04	2.405406713e-11
-1.850000000e-02	1.339689363e-01	-3.093410008e-04	3.780240410e-11
-1.860000000e-02	1.339689386e-01	-3.079805208e-04	2.518904442e-11
-1.870000000e-02	1.339689409e-01	-3.066200406e-04	4.914663573e-11
-1.880000000e-02	1.339689431e-01	-3.052595602e-04	8.410239258e-12
-1.890000000e-02	1.339689452e-01	-3.038990796e-04	3.003771627e-11
-1.900000000e-02	1.339689473e-01	-3.025385987e-04	4.058806005e-11
-1.910000000e-02	1.339689494e-01	-3.011781177e-04	1.045586396e-11
-1.920000000e-02	1.339689515e-01	-2.998176365e-04	9.534712362e-12
-1.930000000e-02	1.339689535e-01	-2.984571550e-04	1.411692671e-11
-1.940000000e-02	1.339689554e-01	-2.970966734e-04	1.285560312e-11
-1.950000000e-02	1.339689573e-01	-2.957361915e-04	5.316974958e-12
-1.960000000e-02	1.339689592e-01	-2.943757095e-04	2.803222808e-11
-1.970000000e-02	1.339689610e-01	-2.930152273e-04	2.698347431e-11
-1.980000000e-02	1.339689628e-01	-2.916547449e-04	1.032730273e-11
-1.990000000e-02	1.339689646e-01	-2.902942623e-04	9.152878970e-12
-2.000000000e-02	1.339689663e-01	-2.889337795e-04	1.534700810e-11
-2.010000000e-02	1.339689680e-01	-2.875732965e-04	1.366088377e-11
-2.020000000e-02	1.339689696e-01	-2.862128134e-04	5.662797299e-12
-2.030000000e-02	1.339689712e-01	-2.848523301e-04	8.948516809e-12
-2.040000000e-02	1.339689727e-01	-2.834918466e-04	8.055289598e-12
-2.050000000e-02	1.339689742e-01	-2.821313629e-04	1.529282796e-11
-2.060000000e-02	1.339689757e-01	-2.807708791e-04	1.030042744e-11
-2.070000000e-02	1.339689771e-01	-2.794103950e-04	7.170511618e-12
-2.080000000e-02	1.339689785e-01	-2.780499109e-04	1.618185819e-11
-2.090000000e-02	1.339689799e-01	-2.766894265e-04	1.312729115e-11
-2.100000000e-02	1.339689812e-01	-2.753289420e-04	3.890778847e-12
-2.110000000e-02	1.339689824e-01	-2.739684573e-04	1.404905676e-11
-2.120000000e-02	1.339689836e-01	-2.726079725e-04	3.520147682e-12
-2.130000000e-02	1.339689848e-01	-2.712474875e-04	2.036739419e-11
-2.140000000e-02	1.339689859e-01	-2.698870024e-04	1.514528076e-11
-2.150000000e-02	1.339689870e-01	-2.685265171e-04	1.466657734e-11
-2.160000000e-02	1.339689881e-01	-2.671660316e-04	1.150460070e-11
-2.170000000e-02	1.339689891e-01	-2.658055460e-04	1.128963584e-11
-2.180000000e-02	1.339689901e-01	-2.644450603e-04	1.173503181e-11
-2.190000000e-02	1.339689910e-01	-2.630845744e-04	8.029751489e-12
-2.200000000e-02	1.339689919e-01	-2.617240883e-04	3.209232745e-11
-2.210000000e-02	1.339689928e-01	-2.603636022e-04	1.719777008e-11
-2.220000000e-02	1.339689936e-01	-2.590031158e-04	8.100918995e-12
-2.230000000e-02	1.339689943e-01	-2.576426294e-04	1.224042262e-11
-2.240000000e-02	1.339689951e-01	-2.562821428e-04	4.558991596e-11
-2.250000000e-02	1.339689958e-01	-2.549216561e-04	2.821369651e-11
-2.260000000e-02	1.339689964e-01	-2.535611693e-04	1.917280108e-11
-2.270000000e-02	1.339689970e-01	-2.522006823e-04	5.333998968e-12
-2.280000000e-02	1.339689976e-01	-2.508401952e-04	1.359329247e-11
-2.290000000e-02	1.339689981e-01	-2.494797080e-04	1.501697002e-11
-2.300000000e-02	1.339689986e-01	-2.481192206e-04	8.306546150e-12
-2.310000000e-02	1.339689990e-01	-2.467587332e-04	1.141711445e-11
-2.320000000e-02	1.339689994e-01	-2.453982456e-04	9.672852858e-12
-2.330000000e-02	1.339689998e-01	-2.440377579e-04	1.766017220e-11
-2.340000000e-02	1.339690001e-01	-2.426772701e-04	1.164854365e-11
-2.350000000e-02	1.339690004e-01	-2.413167822e-04	6.136232407e-12
-2.360000000e-02	1.339690006e-01	-2.399562941e-04	8.722013793e-12
-2.370000000e-02	1.339690008e-01	-2.385958060e-04	2.177510276e-11
-2.380000000e-02	1.339690010e-01	-2.372353178e-04	1.635057791e-11
-2.390000000e-02	1.339690011e-01	-2.358748294e-04	1.333748527e-11
-2.400000000e-02	1.339690011e-01	-2.345143410e-04	1.741571837e-11
-2.410000000e-02	1.339690012e-01	-2.331538525e-04	5.670429067e-12
-2.420000000e-02	1.339690012e-01	-2.317933638e-04	1.110078715e-11
-2.430000000e-02	1.339690011e-01	-2.304328751e-04	1.070984495e-11
-2.440000000e-02	1.339690010e-01	-2.290723863e-04	1.017143230e-11
-2.450000000e-02	1.339690009e-01	-2.277118974e-04	5.166988352e-12
-2.460000000e-02	1.339690007e-01	-2.263514084e-04	1.122899146e-11
-2.470000000e-02	1.339690005e-01	-2.249909193e-04	5.305649705e-11
-2.480000000e-02	1.339690002e-01	-2.236304302e-04	2.235903780e-11
-2.490000000e-02	1.339690000e-01	-2.222699409e-04	6.145944212e-12
-2.500000000e-02	1.339689996e-01	-2.209094516e-04	5.197131633e-12
-2.510000000e-02	1.339689992e-01	-2.195489622e-04	1.683627538e-11
-2.520000000e-02	1.339689988e-01	-2.181884727e-04	1.138950745e-11
-2.530000000e-02	1.339689984e-01	-2.168279832e-04	7.668731682e-12
-2.540000000e-02	1.339689979e-01	-2.154674936e-04	4.085099163e-11
-2.550000000e-02	1.339689973e-01	-2.141070039e-04	1.923168710e-11
-2.560000000e-02	1.339689967e-01	-2.127465141e-04	1.058014380e-11
-2.570000000e-02	1.339689961e-01	-2.113860243e-04	6.614246582e-12
-2.580000000e-02	1.339689954e-01	-2.100255345e-04	1.808439283e-11
-2.590000000e-02	1.339689947e-01	-2.086650445e-04	1.645587686e-11
-2.600000000e-02	1.339689940e-01	-2.073045545e-04	7.414318885e-12
-2.610000000e-02	1.339689932e-01	-2.059440645e-04	5.902484002e-12
-2.620000000e-02	1.339689924e-01	-2.045835744e-04	3.028864487e-11
-2.630000000e-02	1.339689915e-01	-2.032230842e-04	1.611464525e-11
-2.640000000e-02	1.339689906e-01	-2.018625940e-04	1.401542639e-11
-2.650000000e-02	1.339689896e-01	-2.005021038e-04	3.685342671e-12
-2.660000000e-02	1.339689887e-01	-1.991416135e-04	3.492354590e-11
-2.670000000e-02	1.339689876e-01	-1.977811232e-04	2.764658196e-11
-2.680000000e-02	1.339689865e-01	-1.964206328e-04	1.532279723e-11
-2.690000000e-02	1.339689854e-01	-1.950601424e-04	2.843968879e-11
-2.700000000e-02	1.339689843e-01	-1.936996519e-04	5.938451528e-12
-2.710000000e-02	1.339689831e-01	-1.923391614e-04	1.103208745e-11
-2.720000000e-02	1.339689818e-01	-1.909786709e-04	1.471608332e-11
-2.730000000e-02	1.339689806e-01	-1.896181804e-04	6.272207681e-12
-2.740000000e-02	1.339689792e-01	-1.882576898e-04	8.596601442e-12
-2.750000000e-02	1.339689779e-01	-1.868971992e-04	2.389798919e-11
-2.760000000e-02	1.339689765e-01	-1.855367086e-04	4.005597333e-11
-2.770000000e-02	1.339689750e-01	-1.841762179e-04	9.286536550e-12
-2.780000000e-02	1.339689735e-01	-1.828157273e-04	8.821377400e-12
-2.790000000e-02	1.339689720e-01	-1.814552366e-04	1.141816778e-11
-2.800000000e-02	1.339689705e-01	-1.800947459e-04	2.220850792e-11
-2.810000000e-02	1.339689688e-01	-1.787342552e-04	1.815255981e-11
-2.820000000e-02	1.339689672e-01	-1.773737645e-04	4.325977364e-11
-2.830000000e-02	1.339689655e-01	-1.760132737e-04	2.875408950e-11
-2.840000000e-02	1.339689638e-01	-1.746527830e-04	7.073920354e-12
-2.850000000e-02	1.339689620e-01	-1.732922923e-04	1.171980349e-11
-2.860000000e-02	1.339689602e-01	-1.719318015e-04	5.908271304e-12
-2.870000000e-02	1.339689583e-01	-1.705713108e-04	9.099604695e-12
-2.880000000e-02	1.339689565e-01	-1.692108201e-04	2.868400422e-11
-2.890000000e-02	1.339689545e-01	-1.678503293e-04	6.362072324e-12
-2.900000000e-02	1.339689525e-01	-1.664898386e-04	1.061619565e-11
-2.910000000e-02	1.339689505e-01	-1.651293479e-04	2.057834438e-11
-2.920000000e-02	1.339689485e-01	-1.637688572e-04	3.360677712e-12
-2.930000000e-02	1.339689464e-01	-1.624083665e-04	2.384694851e-11
-2.940000000e-02	1.339689442e-01	-1.610478758e-04	7.159589076e-12
-2.950000000e-02	1.339689421e-01	-1.596873851e-04	7.849435196e-12
-2.960000000e-02	1.339689398e-01	-1.583268945e-04	8.991347105e-12
-2.970000000e-02	1.339689376e-01	-1.569664038e-04	5.989371332e-12
-2.980000000e-02	1.339689353e-01	-1.556059132e-04	1.609738939e-11
-2.990000000e-02	1.339689329e-01	-1.542454227e-04	1.135881207e-11
-3.000000000e-02	1.339689305e-01	-1.528849321e-04	2.520299401e-11
