# Im(epsi1)     Re(omega/c)      Im(omega/c)      Eq(det).Opt det CON kz, R=0.5 \mum, mu_c=0.3, Re(epsi1)=3.90solve_det_conkz_vs_kz.py
0.000000000e+00	1.340055648e-01	-4.810181506e-04	5.961572322e-12
-1.000000000e-04	1.340055724e-01	-4.796573259e-04	8.970036662e-12
-2.000000000e-04	1.340055800e-01	-4.782965007e-04	1.812075031e-11
-3.000000000e-04	1.340055875e-01	-4.769356751e-04	6.561741836e-12
-4.000000000e-04	1.340055950e-01	-4.755748490e-04	1.127845664e-11
-5.000000000e-04	1.340056025e-01	-4.742140224e-04	9.976261600e-12
-6.000000000e-04	1.340056099e-01	-4.728531954e-04	7.456526526e-11
-7.000000000e-04	1.340056173e-01	-4.714923680e-04	1.134147799e-11
-8.000000000e-04	1.340056246e-01	-4.701315401e-04	1.623280034e-11
-9.000000000e-04	1.340056319e-01	-4.687707118e-04	1.496984364e-11
-1.000000000e-03	1.340056392e-01	-4.674098830e-04	2.484229880e-11
-1.100000000e-03	1.340056464e-01	-4.660490538e-04	3.435747761e-11
-1.200000000e-03	1.340056536e-01	-4.646882241e-04	9.970382957e-12
-1.300000000e-03	1.340056607e-01	-4.633273940e-04	1.444177820e-11
-1.400000000e-03	1.340056678e-01	-4.619665635e-04	9.941375605e-12
-1.500000000e-03	1.340056748e-01	-4.606057326e-04	8.837901468e-12
-1.600000000e-03	1.340056818e-01	-4.592449012e-04	1.078522802e-11
-1.700000000e-03	1.340056888e-01	-4.578840694e-04	7.055329041e-12
-1.800000000e-03	1.340056957e-01	-4.565232371e-04	8.099297821e-12
-1.900000000e-03	1.340057026e-01	-4.551624045e-04	1.505022128e-11
-2.000000000e-03	1.340057095e-01	-4.538015714e-04	1.745137766e-11
-2.100000000e-03	1.340057163e-01	-4.524407379e-04	1.557789526e-11
-2.200000000e-03	1.340057230e-01	-4.510799040e-04	2.090530122e-11
-2.300000000e-03	1.340057297e-01	-4.497190696e-04	2.517503044e-11
-2.400000000e-03	1.340057364e-01	-4.483582349e-04	2.043829504e-11
-2.500000000e-03	1.340057430e-01	-4.469973998e-04	6.942328309e-11
-2.600000000e-03	1.340057496e-01	-4.456365642e-04	7.359581603e-11
-2.700000000e-03	1.340057562e-01	-4.442757282e-04	2.363681172e-11
-2.800000000e-03	1.340057627e-01	-4.429148918e-04	1.158106845e-11
-2.900000000e-03	1.340057692e-01	-4.415540550e-04	1.145362749e-11
-3.000000000e-03	1.340057756e-01	-4.401932179e-04	9.872758747e-12
-3.100000000e-03	1.340057820e-01	-4.388323803e-04	1.571878461e-11
-3.200000000e-03	1.340057883e-01	-4.374715423e-04	3.013710248e-11
-3.300000000e-03	1.340057946e-01	-4.361107039e-04	1.440389900e-11
-3.400000000e-03	1.340058009e-01	-4.347498652e-04	5.372591438e-11
-3.500000000e-03	1.340058071e-01	-4.333890260e-04	2.899077200e-11
-3.600000000e-03	1.340058133e-01	-4.320281865e-04	1.387444866e-11
-3.700000000e-03	1.340058194e-01	-4.306673466e-04	2.335867700e-11
-3.800000000e-03	1.340058255e-01	-4.293065063e-04	1.718253385e-11
-3.900000000e-03	1.340058316e-01	-4.279456656e-04	3.206467254e-11
-4.000000000e-03	1.340058376e-01	-4.265848245e-04	1.144203418e-11
-4.100000000e-03	1.340058436e-01	-4.252239830e-04	1.907676162e-11
-4.200000000e-03	1.340058495e-01	-4.238631412e-04	1.829193110e-11
-4.300000000e-03	1.340058554e-01	-4.225022990e-04	9.092418566e-12
-4.400000000e-03	1.340058613e-01	-4.211414564e-04	7.505578718e-12
-4.500000000e-03	1.340058671e-01	-4.197806135e-04	1.584518070e-11
-4.600000000e-03	1.340058728e-01	-4.184197702e-04	2.330735236e-11
-4.700000000e-03	1.340058786e-01	-4.170589265e-04	1.153040714e-11
-4.800000000e-03	1.340058842e-01	-4.156980825e-04	2.085362521e-11
-4.900000000e-03	1.340058899e-01	-4.143372381e-04	1.388885574e-11
-5.000000000e-03	1.340058955e-01	-4.129763933e-04	8.451244767e-12
-5.100000000e-03	1.340059010e-01	-4.116155482e-04	2.254950387e-11
-5.200000000e-03	1.340059066e-01	-4.102547028e-04	1.611804316e-11
-5.300000000e-03	1.340059120e-01	-4.088938570e-04	2.222214647e-11
-5.400000000e-03	1.340059175e-01	-4.075330108e-04	9.820989758e-12
-5.500000000e-03	1.340059229e-01	-4.061721643e-04	1.071655858e-11
-5.600000000e-03	1.340059282e-01	-4.048113174e-04	1.109393973e-11
-5.700000000e-03	1.340059335e-01	-4.034504702e-04	2.938522623e-11
-5.800000000e-03	1.340059388e-01	-4.020896226e-04	2.738834994e-11
-5.900000000e-03	1.340059440e-01	-4.007287748e-04	1.015551057e-11
-6.000000000e-03	1.340059492e-01	-3.993679265e-04	1.951232717e-11
-6.100000000e-03	1.340059544e-01	-3.980070780e-04	1.073854103e-11
-6.200000000e-03	1.340059595e-01	-3.966462291e-04	1.644892942e-11
-6.300000000e-03	1.340059645e-01	-3.952853799e-04	1.956892348e-11
-6.400000000e-03	1.340059696e-01	-3.939245303e-04	1.564702776e-11
-6.500000000e-03	1.340059746e-01	-3.925636804e-04	1.938932953e-11
-6.600000000e-03	1.340059795e-01	-3.912028302e-04	6.659427645e-12
-6.700000000e-03	1.340059844e-01	-3.898419797e-04	1.365172600e-11
-6.800000000e-03	1.340059893e-01	-3.884811288e-04	8.391601524e-12
-6.900000000e-03	1.340059941e-01	-3.871202776e-04	1.869956406e-11
-7.000000000e-03	1.340059988e-01	-3.857594262e-04	1.018699859e-11
-7.100000000e-03	1.340060036e-01	-3.843985743e-04	1.754313030e-11
-7.200000000e-03	1.340060083e-01	-3.830377222e-04	2.982057020e-11
-7.300000000e-03	1.340060129e-01	-3.816768698e-04	7.386847370e-12
-7.400000000e-03	1.340060175e-01	-3.803160171e-04	1.412233214e-11
-7.500000000e-03	1.340060221e-01	-3.789551640e-04	9.250281162e-12
-7.600000000e-03	1.340060266e-01	-3.775943107e-04	1.303019270e-11
-7.700000000e-03	1.340060311e-01	-3.762334570e-04	2.282550408e-11
-7.800000000e-03	1.340060356e-01	-3.748726031e-04	1.275824299e-11
-7.900000000e-03	1.340060400e-01	-3.735117488e-04	1.307778571e-11
-8.000000000e-03	1.340060443e-01	-3.721508943e-04	1.394069772e-11
-8.100000000e-03	1.340060486e-01	-3.707900394e-04	1.209935469e-11
-8.200000000e-03	1.340060529e-01	-3.694291843e-04	9.600858507e-12
-8.300000000e-03	1.340060572e-01	-3.680683289e-04	1.462042884e-11
-8.400000000e-03	1.340060614e-01	-3.667074732e-04	2.107932343e-11
-8.500000000e-03	1.340060655e-01	-3.653466172e-04	8.623365355e-12
-8.600000000e-03	1.340060696e-01	-3.639857609e-04	8.089435036e-12
-8.700000000e-03	1.340060737e-01	-3.626249043e-04	8.716496468e-12
-8.800000000e-03	1.340060777e-01	-3.612640475e-04	1.783114498e-11
-8.900000000e-03	1.340060817e-01	-3.599031904e-04	1.756726542e-11
-9.000000000e-03	1.340060857e-01	-3.585423330e-04	1.495071704e-11
-9.100000000e-03	1.340060896e-01	-3.571814753e-04	1.024437278e-11
-9.200000000e-03	1.340060934e-01	-3.558206174e-04	8.689639845e-12
-9.300000000e-03	1.340060973e-01	-3.544597592e-04	1.130061356e-11
-9.400000000e-03	1.340061010e-01	-3.530989007e-04	1.723737987e-11
-9.500000000e-03	1.340061048e-01	-3.517380420e-04	1.675920572e-11
-9.600000000e-03	1.340061085e-01	-3.503771830e-04	2.970225616e-11
-9.700000000e-03	1.340061121e-01	-3.490163237e-04	1.273577486e-11
-9.800000000e-03	1.340061158e-01	-3.476554642e-04	1.274760014e-11
-9.900000000e-03	1.340061193e-01	-3.462946044e-04	7.664580332e-12
-1.000000000e-02	1.340061229e-01	-3.449337444e-04	7.651159981e-12
-1.010000000e-02	1.340061264e-01	-3.435728841e-04	1.909498985e-11
-1.020000000e-02	1.340061298e-01	-3.422120236e-04	4.210517554e-11
-1.030000000e-02	1.340061332e-01	-3.408511628e-04	9.971883182e-12
-1.040000000e-02	1.340061366e-01	-3.394903018e-04	2.146101379e-11
-1.050000000e-02	1.340061399e-01	-3.381294405e-04	1.162239820e-11
-1.060000000e-02	1.340061432e-01	-3.367685790e-04	1.151943024e-10
-1.070000000e-02	1.340061465e-01	-3.354077172e-04	1.410767524e-11
-1.080000000e-02	1.340061497e-01	-3.340468552e-04	1.884846251e-11
-1.090000000e-02	1.340061528e-01	-3.326859930e-04	7.004314035e-12
-1.100000000e-02	1.340061559e-01	-3.313251305e-04	4.466191648e-11
-1.110000000e-02	1.340061590e-01	-3.299642678e-04	7.633332587e-12
-1.120000000e-02	1.340061621e-01	-3.286034049e-04	3.552509316e-11
-1.130000000e-02	1.340061651e-01	-3.272425418e-04	1.323367085e-11
-1.140000000e-02	1.340061680e-01	-3.258816784e-04	5.472330151e-12
-1.150000000e-02	1.340061709e-01	-3.245208148e-04	8.616280277e-12
-1.160000000e-02	1.340061738e-01	-3.231599510e-04	1.683969054e-11
-1.170000000e-02	1.340061766e-01	-3.217990870e-04	2.029101589e-11
-1.180000000e-02	1.340061794e-01	-3.204382227e-04	2.031878437e-11
-1.190000000e-02	1.340061822e-01	-3.190773582e-04	1.220759371e-11
-1.200000000e-02	1.340061849e-01	-3.177164936e-04	1.814277726e-11
-1.210000000e-02	1.340061875e-01	-3.163556287e-04	8.102756150e-12
-1.220000000e-02	1.340061902e-01	-3.149947636e-04	8.671690876e-12
-1.230000000e-02	1.340061928e-01	-3.136338983e-04	2.503491196e-11
-1.240000000e-02	1.340061953e-01	-3.122730327e-04	1.434658072e-11
-1.250000000e-02	1.340061978e-01	-3.109121670e-04	1.414281948e-11
-1.260000000e-02	1.340062003e-01	-3.095513011e-04	8.734536508e-12
-1.270000000e-02	1.340062027e-01	-3.081904350e-04	5.677769851e-11
-1.280000000e-02	1.340062051e-01	-3.068295687e-04	6.260780577e-11
-1.290000000e-02	1.340062074e-01	-3.054687022e-04	2.328202322e-11
-1.300000000e-02	1.340062097e-01	-3.041078355e-04	1.395049978e-11
-1.310000000e-02	1.340062119e-01	-3.027469686e-04	9.329389293e-12
-1.320000000e-02	1.340062142e-01	-3.013861016e-04	2.023653732e-11
-1.330000000e-02	1.340062163e-01	-3.000252343e-04	7.463461245e-11
-1.340000000e-02	1.340062185e-01	-2.986643669e-04	3.021328429e-11
-1.350000000e-02	1.340062205e-01	-2.973034993e-04	2.458736422e-11
-1.360000000e-02	1.340062226e-01	-2.959426315e-04	9.413990168e-12
-1.370000000e-02	1.340062246e-01	-2.945817635e-04	7.778375491e-12
-1.380000000e-02	1.340062266e-01	-2.932208953e-04	2.427980571e-11
-1.390000000e-02	1.340062285e-01	-2.918600270e-04	2.635665820e-11
-1.400000000e-02	1.340062304e-01	-2.904991585e-04	1.327239093e-11
-1.410000000e-02	1.340062322e-01	-2.891382899e-04	1.363878361e-11
-1.420000000e-02	1.340062340e-01	-2.877774210e-04	1.097316198e-11
-1.430000000e-02	1.340062358e-01	-2.864165520e-04	6.140312133e-12
-1.440000000e-02	1.340062375e-01	-2.850556829e-04	7.643594743e-12
-1.450000000e-02	1.340062391e-01	-2.836948135e-04	1.005323750e-11
-1.460000000e-02	1.340062408e-01	-2.823339441e-04	8.183034449e-12
-1.470000000e-02	1.340062424e-01	-2.809730744e-04	7.849721455e-12
-1.480000000e-02	1.340062439e-01	-2.796122047e-04	1.188475494e-11
-1.490000000e-02	1.340062454e-01	-2.782513347e-04	1.587089555e-11
-1.500000000e-02	1.340062469e-01	-2.768904646e-04	8.149063932e-12
-1.510000000e-02	1.340062483e-01	-2.755295944e-04	1.147475510e-11
-1.520000000e-02	1.340062497e-01	-2.741687240e-04	1.827541893e-11
-1.530000000e-02	1.340062510e-01	-2.728078535e-04	5.437563339e-12
-1.540000000e-02	1.340062524e-01	-2.714469828e-04	9.797642574e-12
-1.550000000e-02	1.340062536e-01	-2.700861120e-04	1.290541514e-11
-1.560000000e-02	1.340062548e-01	-2.687252411e-04	2.572085374e-11
-1.570000000e-02	1.340062560e-01	-2.673643700e-04	1.263056034e-11
-1.580000000e-02	1.340062571e-01	-2.660034988e-04	3.359346635e-11
-1.590000000e-02	1.340062582e-01	-2.646426274e-04	1.350175678e-11
-1.600000000e-02	1.340062593e-01	-2.632817559e-04	1.261534556e-11
-1.610000000e-02	1.340062603e-01	-2.619208843e-04	1.474056068e-11
-1.620000000e-02	1.340062613e-01	-2.605600126e-04	3.630904493e-11
-1.630000000e-02	1.340062622e-01	-2.591991408e-04	3.708063186e-11
-1.640000000e-02	1.340062631e-01	-2.578382688e-04	1.490647843e-11
-1.650000000e-02	1.340062639e-01	-2.564773967e-04	1.508741528e-11
-1.660000000e-02	1.340062648e-01	-2.551165245e-04	1.215550732e-11
-1.670000000e-02	1.340062655e-01	-2.537556522e-04	1.857997419e-11
-1.680000000e-02	1.340062662e-01	-2.523947798e-04	7.980745794e-12
-1.690000000e-02	1.340062669e-01	-2.510339072e-04	1.268041794e-11
-1.700000000e-02	1.340062676e-01	-2.496730346e-04	1.119751366e-11
-1.710000000e-02	1.340062682e-01	-2.483121618e-04	9.627892125e-11
-1.720000000e-02	1.340062687e-01	-2.469512889e-04	1.898708291e-11
-1.730000000e-02	1.340062692e-01	-2.455904160e-04	6.890671168e-12
-1.740000000e-02	1.340062697e-01	-2.442295429e-04	9.605033197e-12
-1.750000000e-02	1.340062702e-01	-2.428686698e-04	1.458294555e-11
-1.760000000e-02	1.340062705e-01	-2.415077965e-04	4.174714938e-12
-1.770000000e-02	1.340062709e-01	-2.401469231e-04	2.450445724e-11
-1.780000000e-02	1.340062712e-01	-2.387860497e-04	1.668693666e-11
-1.790000000e-02	1.340062715e-01	-2.374251762e-04	1.008929326e-11
-1.800000000e-02	1.340062717e-01	-2.360643026e-04	1.077127979e-11
-1.810000000e-02	1.340062719e-01	-2.347034288e-04	1.029174150e-10
-1.820000000e-02	1.340062720e-01	-2.333425551e-04	1.087872297e-11
-1.830000000e-02	1.340062721e-01	-2.319816812e-04	1.553639434e-11
-1.840000000e-02	1.340062722e-01	-2.306208073e-04	1.434953269e-11
-1.850000000e-02	1.340062722e-01	-2.292599332e-04	3.296072647e-11
-1.860000000e-02	1.340062722e-01	-2.278990591e-04	1.006375314e-11
-1.870000000e-02	1.340062721e-01	-2.265381850e-04	8.716368191e-12
-1.880000000e-02	1.340062720e-01	-2.251773107e-04	1.627856620e-11
-1.890000000e-02	1.340062719e-01	-2.238164364e-04	1.539877436e-11
-1.900000000e-02	1.340062717e-01	-2.224555620e-04	3.039430422e-11
-1.910000000e-02	1.340062715e-01	-2.210946876e-04	3.408554325e-11
-1.920000000e-02	1.340062712e-01	-2.197338131e-04	1.075847118e-11
-1.930000000e-02	1.340062709e-01	-2.183729385e-04	4.480138152e-11
-1.940000000e-02	1.340062705e-01	-2.170120639e-04	4.652749922e-11
-1.950000000e-02	1.340062702e-01	-2.156511892e-04	6.603320970e-12
-1.960000000e-02	1.340062697e-01	-2.142903145e-04	1.842611280e-11
-1.970000000e-02	1.340062692e-01	-2.129294397e-04	8.873619722e-12
-1.980000000e-02	1.340062687e-01	-2.115685649e-04	1.117510465e-11
-1.990000000e-02	1.340062682e-01	-2.102076900e-04	6.103294415e-12
-2.000000000e-02	1.340062676e-01	-2.088468151e-04	9.648541604e-12
-2.010000000e-02	1.340062669e-01	-2.074859401e-04	2.061305147e-11
-2.020000000e-02	1.340062662e-01	-2.061250651e-04	1.347450689e-11
-2.030000000e-02	1.340062655e-01	-2.047641900e-04	1.467417912e-11
-2.040000000e-02	1.340062648e-01	-2.034033149e-04	9.628682743e-12
-2.050000000e-02	1.340062639e-01	-2.020424398e-04	9.045707826e-12
-2.060000000e-02	1.340062631e-01	-2.006815646e-04	2.866036465e-11
-2.070000000e-02	1.340062622e-01	-1.993206895e-04	1.033543193e-11
-2.080000000e-02	1.340062613e-01	-1.979598142e-04	5.275296483e-12
-2.090000000e-02	1.340062603e-01	-1.965989390e-04	1.828763519e-11
-2.100000000e-02	1.340062593e-01	-1.952380637e-04	2.012412696e-11
-2.110000000e-02	1.340062582e-01	-1.938771884e-04	1.537562865e-11
-2.120000000e-02	1.340062571e-01	-1.925163131e-04	7.645395221e-12
-2.130000000e-02	1.340062560e-01	-1.911554378e-04	5.048066200e-12
-2.140000000e-02	1.340062548e-01	-1.897945625e-04	7.528738844e-12
-2.150000000e-02	1.340062536e-01	-1.884336871e-04	2.090017598e-11
-2.160000000e-02	1.340062524e-01	-1.870728117e-04	1.509737184e-11
-2.170000000e-02	1.340062511e-01	-1.857119363e-04	4.441820923e-11
-2.180000000e-02	1.340062497e-01	-1.843510609e-04	1.113693760e-11
-2.190000000e-02	1.340062483e-01	-1.829901855e-04	4.744478862e-12
-2.200000000e-02	1.340062469e-01	-1.816293101e-04	1.507742075e-11
-2.210000000e-02	1.340062454e-01	-1.802684347e-04	9.505036809e-12
-2.220000000e-02	1.340062439e-01	-1.789075593e-04	4.556145025e-11
-2.230000000e-02	1.340062424e-01	-1.775466839e-04	9.939921807e-12
-2.240000000e-02	1.340062408e-01	-1.761858085e-04	8.138184021e-12
-2.250000000e-02	1.340062391e-01	-1.748249331e-04	2.053803394e-11
-2.260000000e-02	1.340062375e-01	-1.734640578e-04	1.296026629e-11
-2.270000000e-02	1.340062358e-01	-1.721031824e-04	2.061818698e-11
-2.280000000e-02	1.340062340e-01	-1.707423070e-04	1.593276061e-11
-2.290000000e-02	1.340062322e-01	-1.693814317e-04	3.020417698e-11
-2.300000000e-02	1.340062304e-01	-1.680205564e-04	2.277051879e-11
-2.310000000e-02	1.340062285e-01	-1.666596811e-04	1.741646698e-11
-2.320000000e-02	1.340062266e-01	-1.652988058e-04	1.716438113e-11
-2.330000000e-02	1.340062246e-01	-1.639379305e-04	1.995174794e-11
-2.340000000e-02	1.340062226e-01	-1.625770553e-04	7.086312677e-12
-2.350000000e-02	1.340062205e-01	-1.612161801e-04	1.367838195e-11
-2.360000000e-02	1.340062185e-01	-1.598553049e-04	4.401737577e-11
-2.370000000e-02	1.340062163e-01	-1.584944298e-04	1.285723510e-11
-2.380000000e-02	1.340062142e-01	-1.571335546e-04	2.891155564e-11
-2.390000000e-02	1.340062119e-01	-1.557726796e-04	3.770879449e-11
-2.400000000e-02	1.340062097e-01	-1.544118045e-04	1.327888025e-11
-2.410000000e-02	1.340062074e-01	-1.530509295e-04	1.299347443e-11
-2.420000000e-02	1.340062051e-01	-1.516900546e-04	7.410065628e-12
-2.430000000e-02	1.340062027e-01	-1.503291796e-04	1.234035179e-11
-2.440000000e-02	1.340062003e-01	-1.489683048e-04	2.328779306e-11
-2.450000000e-02	1.340061978e-01	-1.476074300e-04	7.369506959e-12
-2.460000000e-02	1.340061953e-01	-1.462465552e-04	9.569604837e-12
-2.470000000e-02	1.340061928e-01	-1.448856805e-04	6.140283843e-11
-2.480000000e-02	1.340061902e-01	-1.435248058e-04	1.768791480e-11
-2.490000000e-02	1.340061875e-01	-1.421639312e-04	1.103218710e-11
-2.500000000e-02	1.340061849e-01	-1.408030567e-04	1.227706458e-11
-2.510000000e-02	1.340061822e-01	-1.394421822e-04	1.846185339e-11
-2.520000000e-02	1.340061794e-01	-1.380813077e-04	1.762835628e-11
-2.530000000e-02	1.340061766e-01	-1.367204334e-04	2.298956719e-11
-2.540000000e-02	1.340061738e-01	-1.353595591e-04	1.455693020e-10
-2.550000000e-02	1.340061709e-01	-1.339986849e-04	1.336359714e-11
-2.560000000e-02	1.340061680e-01	-1.326378107e-04	1.330118168e-11
-2.570000000e-02	1.340061651e-01	-1.312769366e-04	2.646979777e-11
-2.580000000e-02	1.340061621e-01	-1.299160627e-04	1.027097026e-11
-2.590000000e-02	1.340061590e-01	-1.285551887e-04	1.419242002e-11
-2.600000000e-02	1.340061559e-01	-1.271943149e-04	1.870573707e-11
-2.610000000e-02	1.340061528e-01	-1.258334411e-04	1.080557021e-11
-2.620000000e-02	1.340061497e-01	-1.244725674e-04	1.764288279e-11
-2.630000000e-02	1.340061465e-01	-1.231116938e-04	8.605631389e-12
-2.640000000e-02	1.340061432e-01	-1.217508203e-04	7.287821765e-12
-2.650000000e-02	1.340061399e-01	-1.203899469e-04	1.302581697e-11
-2.660000000e-02	1.340061366e-01	-1.190290736e-04	8.363775014e-12
-2.670000000e-02	1.340061332e-01	-1.176682004e-04	1.147506099e-11
-2.680000000e-02	1.340061298e-01	-1.163073272e-04	1.460256765e-11
-2.690000000e-02	1.340061264e-01	-1.149464542e-04	9.107142540e-12
-2.700000000e-02	1.340061229e-01	-1.135855813e-04	1.085082765e-11
-2.710000000e-02	1.340061193e-01	-1.122247084e-04	9.037246926e-12
-2.720000000e-02	1.340061158e-01	-1.108638357e-04	2.910192342e-11
-2.730000000e-02	1.340061121e-01	-1.095029631e-04	1.390323694e-11
-2.740000000e-02	1.340061085e-01	-1.081420906e-04	1.422839855e-11
-2.750000000e-02	1.340061048e-01	-1.067812182e-04	6.701588287e-12
-2.760000000e-02	1.340061010e-01	-1.054203459e-04	1.006551115e-11
-2.770000000e-02	1.340060973e-01	-1.040594737e-04	7.889229536e-12
-2.780000000e-02	1.340060934e-01	-1.026986017e-04	2.210651498e-11
-2.790000000e-02	1.340060896e-01	-1.013377298e-04	1.366627093e-11
-2.800000000e-02	1.340060857e-01	-9.997685794e-05	8.718775291e-12
-2.810000000e-02	1.340060817e-01	-9.861598625e-05	1.654778089e-11
-2.820000000e-02	1.340060777e-01	-9.725511469e-05	2.157725158e-11
-2.830000000e-02	1.340060737e-01	-9.589424325e-05	1.344731348e-11
-2.840000000e-02	1.340060696e-01	-9.453337195e-05	1.158428072e-11
-2.850000000e-02	1.340060655e-01	-9.317250077e-05	1.271400746e-11
-2.860000000e-02	1.340060613e-01	-9.181162974e-05	2.047236740e-11
-2.870000000e-02	1.340060572e-01	-9.045075883e-05	5.769019325e-12
-2.880000000e-02	1.340060529e-01	-8.908988805e-05	5.427924728e-11
-2.890000000e-02	1.340060486e-01	-8.772901743e-05	7.447813862e-12
-2.900000000e-02	1.340060443e-01	-8.636814696e-05	2.007451845e-11
-2.910000000e-02	1.340060400e-01	-8.500727661e-05	1.132871534e-11
-2.920000000e-02	1.340060356e-01	-8.364640643e-05	4.112708516e-11
-2.930000000e-02	1.340060311e-01	-8.228553637e-05	7.210203199e-12
-2.940000000e-02	1.340060266e-01	-8.092466646e-05	7.160473904e-11
-2.950000000e-02	1.340060221e-01	-7.956379674e-05	8.062384627e-12
-2.960000000e-02	1.340060175e-01	-7.820292716e-05	2.180907252e-11
-2.970000000e-02	1.340060129e-01	-7.684205772e-05	1.827390496e-11
-2.980000000e-02	1.340060083e-01	-7.548118846e-05	2.785929367e-11
-2.990000000e-02	1.340060036e-01	-7.412031935e-05	1.120174820e-11
-3.000000000e-02	1.340059988e-01	-7.275945040e-05	1.186229520e-11
