# Im(epsi1)     Re(omega/c)      Im(omega/c)      Eq(det).Opt det CON kz, R=0.5 \mum, mu_c=0.3, Re(epsi1)=3.90solve_det_conkz_vs_kz.py
0.000000000e+00	1.340073355e-01	-4.855887262e-04	8.589997831e-12
-1.000000000e-04	1.340073433e-01	-4.842280354e-04	6.096786678e-12
-2.000000000e-04	1.340073510e-01	-4.828673441e-04	1.138814767e-11
-3.000000000e-04	1.340073587e-01	-4.815066524e-04	7.803099830e-12
-4.000000000e-04	1.340073664e-01	-4.801459601e-04	1.940804382e-11
-5.000000000e-04	1.340073740e-01	-4.787852675e-04	1.621898096e-11
-6.000000000e-04	1.340073815e-01	-4.774245743e-04	1.041211921e-11
-7.000000000e-04	1.340073890e-01	-4.760638807e-04	8.341450166e-12
-8.000000000e-04	1.340073965e-01	-4.747031867e-04	2.035155515e-11
-9.000000000e-04	1.340074040e-01	-4.733424922e-04	2.919435858e-11
-1.000000000e-03	1.340074114e-01	-4.719817972e-04	7.380734956e-12
-1.100000000e-03	1.340074187e-01	-4.706211019e-04	1.561315059e-11
-1.200000000e-03	1.340074260e-01	-4.692604060e-04	3.085805005e-11
-1.300000000e-03	1.340074333e-01	-4.678997097e-04	1.041954798e-11
-1.400000000e-03	1.340074405e-01	-4.665390130e-04	1.747685603e-11
-1.500000000e-03	1.340074477e-01	-4.651783158e-04	3.003328278e-11
-1.600000000e-03	1.340074549e-01	-4.638176182e-04	2.584890646e-11
-1.700000000e-03	1.340074620e-01	-4.624569202e-04	2.260468678e-11
-1.800000000e-03	1.340074690e-01	-4.610962217e-04	1.696041271e-11
-1.900000000e-03	1.340074761e-01	-4.597355229e-04	1.138409688e-11
-2.000000000e-03	1.340074830e-01	-4.583748235e-04	1.182188081e-11
-2.100000000e-03	1.340074900e-01	-4.570141238e-04	1.697984987e-11
-2.200000000e-03	1.340074969e-01	-4.556534236e-04	1.197798830e-11
-2.300000000e-03	1.340075037e-01	-4.542927230e-04	1.952898166e-11
-2.400000000e-03	1.340075105e-01	-4.529320220e-04	9.039591327e-12
-2.500000000e-03	1.340075173e-01	-4.515713206e-04	8.829881667e-12
-2.600000000e-03	1.340075241e-01	-4.502106187e-04	1.911600436e-11
-2.700000000e-03	1.340075307e-01	-4.488499164e-04	1.530013457e-11
-2.800000000e-03	1.340075374e-01	-4.474892138e-04	7.192473444e-12
-2.900000000e-03	1.340075440e-01	-4.461285107e-04	1.297907948e-11
-3.000000000e-03	1.340075506e-01	-4.447678072e-04	1.147394458e-11
-3.100000000e-03	1.340075571e-01	-4.434071033e-04	2.504993809e-11
-3.200000000e-03	1.340075636e-01	-4.420463990e-04	1.574486781e-11
-3.300000000e-03	1.340075700e-01	-4.406856943e-04	1.349938317e-11
-3.400000000e-03	1.340075764e-01	-4.393249892e-04	4.003360680e-12
-3.500000000e-03	1.340075828e-01	-4.379642837e-04	1.004046270e-11
-3.600000000e-03	1.340075891e-01	-4.366035778e-04	3.493878424e-11
-3.700000000e-03	1.340075954e-01	-4.352428715e-04	3.721547033e-11
-3.800000000e-03	1.340076016e-01	-4.338821648e-04	1.459933100e-11
-3.900000000e-03	1.340076078e-01	-4.325214577e-04	1.886980940e-11
-4.000000000e-03	1.340076140e-01	-4.311607503e-04	1.009048138e-11
-4.100000000e-03	1.340076201e-01	-4.298000424e-04	9.656884986e-12
-4.200000000e-03	1.340076262e-01	-4.284393342e-04	7.985839305e-12
-4.300000000e-03	1.340076322e-01	-4.270786256e-04	1.529752022e-11
-4.400000000e-03	1.340076382e-01	-4.257179166e-04	1.833879929e-11
-4.500000000e-03	1.340076441e-01	-4.243572073e-04	2.180196418e-11
-4.600000000e-03	1.340076500e-01	-4.229964975e-04	1.612254027e-11
-4.700000000e-03	1.340076559e-01	-4.216357874e-04	1.221764291e-11
-4.800000000e-03	1.340076617e-01	-4.202750770e-04	1.983893805e-11
-4.900000000e-03	1.340076675e-01	-4.189143661e-04	1.335291780e-11
-5.000000000e-03	1.340076733e-01	-4.175536549e-04	1.280400182e-11
-5.100000000e-03	1.340076790e-01	-4.161929433e-04	9.260504476e-12
-5.200000000e-03	1.340076846e-01	-4.148322314e-04	1.120958949e-11
-5.300000000e-03	1.340076902e-01	-4.134715191e-04	1.267394417e-11
-5.400000000e-03	1.340076958e-01	-4.121108065e-04	9.198927584e-12
-5.500000000e-03	1.340077014e-01	-4.107500935e-04	8.578612051e-12
-5.600000000e-03	1.340077068e-01	-4.093893801e-04	1.082189392e-10
-5.700000000e-03	1.340077123e-01	-4.080286664e-04	2.311409562e-11
-5.800000000e-03	1.340077177e-01	-4.066679523e-04	3.302292982e-11
-5.900000000e-03	1.340077231e-01	-4.053072379e-04	9.002611044e-12
-6.000000000e-03	1.340077284e-01	-4.039465232e-04	2.156645820e-11
-6.100000000e-03	1.340077337e-01	-4.025858081e-04	2.342337128e-11
-6.200000000e-03	1.340077389e-01	-4.012250926e-04	8.790989676e-12
-6.300000000e-03	1.340077441e-01	-3.998643769e-04	6.059599015e-12
-6.400000000e-03	1.340077493e-01	-3.985036607e-04	1.162443064e-11
-6.500000000e-03	1.340077544e-01	-3.971429443e-04	1.078450865e-11
-6.600000000e-03	1.340077595e-01	-3.957822275e-04	9.100998654e-12
-6.700000000e-03	1.340077646e-01	-3.944215104e-04	6.916998933e-12
-6.800000000e-03	1.340077695e-01	-3.930607930e-04	1.128722480e-11
-6.900000000e-03	1.340077745e-01	-3.917000752e-04	2.095962390e-11
-7.000000000e-03	1.340077794e-01	-3.903393571e-04	1.525861520e-11
-7.100000000e-03	1.340077843e-01	-3.889786387e-04	8.322453795e-12
-7.200000000e-03	1.340077891e-01	-3.876179200e-04	1.902881457e-11
-7.300000000e-03	1.340077939e-01	-3.862572009e-04	2.117391518e-11
-7.400000000e-03	1.340077987e-01	-3.848964816e-04	6.022913719e-12
-7.500000000e-03	1.340078034e-01	-3.835357619e-04	3.086646581e-11
-7.600000000e-03	1.340078080e-01	-3.821750419e-04	1.640113016e-11
-7.700000000e-03	1.340078127e-01	-3.808143216e-04	1.134479380e-11
-7.800000000e-03	1.340078173e-01	-3.794536010e-04	8.853091086e-12
-7.900000000e-03	1.340078218e-01	-3.780928801e-04	9.758424682e-12
-8.000000000e-03	1.340078263e-01	-3.767321589e-04	7.281817014e-12
-8.100000000e-03	1.340078308e-01	-3.753714374e-04	7.022713360e-12
-8.200000000e-03	1.340078352e-01	-3.740107155e-04	1.083745968e-11
-8.300000000e-03	1.340078396e-01	-3.726499934e-04	1.349643405e-11
-8.400000000e-03	1.340078439e-01	-3.712892710e-04	8.823564466e-12
-8.500000000e-03	1.340078482e-01	-3.699285483e-04	1.304975241e-11
-8.600000000e-03	1.340078524e-01	-3.685678253e-04	1.199776682e-11
-8.700000000e-03	1.340078567e-01	-3.672071021e-04	4.803536596e-11
-8.800000000e-03	1.340078608e-01	-3.658463785e-04	9.590856255e-12
-8.900000000e-03	1.340078650e-01	-3.644856547e-04	2.318886179e-11
-9.000000000e-03	1.340078690e-01	-3.631249305e-04	1.434499373e-11
-9.100000000e-03	1.340078731e-01	-3.617642061e-04	1.570463064e-11
-9.200000000e-03	1.340078771e-01	-3.604034814e-04	3.067619445e-11
-9.300000000e-03	1.340078811e-01	-3.590427565e-04	2.195405061e-11
-9.400000000e-03	1.340078850e-01	-3.576820312e-04	2.347758026e-11
-9.500000000e-03	1.340078889e-01	-3.563213057e-04	2.497690808e-11
-9.600000000e-03	1.340078927e-01	-3.549605799e-04	1.120045414e-11
-9.700000000e-03	1.340078965e-01	-3.535998539e-04	1.060301020e-11
-9.800000000e-03	1.340079003e-01	-3.522391275e-04	1.462206749e-11
-9.900000000e-03	1.340079040e-01	-3.508784010e-04	4.100448829e-12
-1.000000000e-02	1.340079077e-01	-3.495176741e-04	1.662567464e-11
-1.010000000e-02	1.340079113e-01	-3.481569470e-04	8.874525799e-12
-1.020000000e-02	1.340079149e-01	-3.467962197e-04	1.721610984e-11
-1.030000000e-02	1.340079184e-01	-3.454354920e-04	5.202412206e-12
-1.040000000e-02	1.340079219e-01	-3.440747642e-04	9.251760513e-11
-1.050000000e-02	1.340079254e-01	-3.427140361e-04	1.663945604e-11
-1.060000000e-02	1.340079288e-01	-3.413533077e-04	2.185038002e-11
-1.070000000e-02	1.340079322e-01	-3.399925791e-04	4.094385296e-11
-1.080000000e-02	1.340079356e-01	-3.386318502e-04	1.284079310e-11
-1.090000000e-02	1.340079389e-01	-3.372711211e-04	7.364942741e-12
-1.100000000e-02	1.340079421e-01	-3.359103918e-04	1.398885011e-11
-1.110000000e-02	1.340079454e-01	-3.345496622e-04	2.223517965e-11
-1.120000000e-02	1.340079485e-01	-3.331889324e-04	1.005321786e-11
-1.130000000e-02	1.340079517e-01	-3.318282023e-04	1.286718957e-11
-1.140000000e-02	1.340079548e-01	-3.304674720e-04	1.746509966e-11
-1.150000000e-02	1.340079578e-01	-3.291067415e-04	1.118302612e-11
-1.160000000e-02	1.340079608e-01	-3.277460108e-04	1.545540100e-11
-1.170000000e-02	1.340079638e-01	-3.263852798e-04	8.458138469e-12
-1.180000000e-02	1.340079667e-01	-3.250245486e-04	2.206073054e-11
-1.190000000e-02	1.340079696e-01	-3.236638172e-04	1.066380619e-11
-1.200000000e-02	1.340079725e-01	-3.223030856e-04	6.161573069e-12
-1.210000000e-02	1.340079753e-01	-3.209423537e-04	6.959296874e-12
-1.220000000e-02	1.340079781e-01	-3.195816217e-04	9.596681419e-12
-1.230000000e-02	1.340079808e-01	-3.182208894e-04	5.375813210e-12
-1.240000000e-02	1.340079835e-01	-3.168601569e-04	1.132148475e-11
-1.250000000e-02	1.340079861e-01	-3.154994242e-04	7.709953676e-12
-1.260000000e-02	1.340079887e-01	-3.141386913e-04	1.557454851e-11
-1.270000000e-02	1.340079913e-01	-3.127779582e-04	2.068178738e-11
-1.280000000e-02	1.340079938e-01	-3.114172248e-04	3.201249067e-11
-1.290000000e-02	1.340079963e-01	-3.100564913e-04	3.268299998e-11
-1.300000000e-02	1.340079987e-01	-3.086957576e-04	7.203738793e-12
-1.310000000e-02	1.340080011e-01	-3.073350237e-04	9.299813579e-12
-1.320000000e-02	1.340080034e-01	-3.059742896e-04	2.087030836e-11
-1.330000000e-02	1.340080057e-01	-3.046135553e-04	1.553404729e-11
-1.340000000e-02	1.340080080e-01	-3.032528208e-04	1.447081817e-11
-1.350000000e-02	1.340080102e-01	-3.018920861e-04	1.205978875e-11
-1.360000000e-02	1.340080124e-01	-3.005313512e-04	1.256729378e-11
-1.370000000e-02	1.340080146e-01	-2.991706162e-04	7.315673288e-12
-1.380000000e-02	1.340080167e-01	-2.978098810e-04	1.872603277e-11
-1.390000000e-02	1.340080187e-01	-2.964491456e-04	1.260970656e-11
-1.400000000e-02	1.340080208e-01	-2.950884100e-04	2.814214317e-11
-1.410000000e-02	1.340080227e-01	-2.937276742e-04	2.077646410e-11
-1.420000000e-02	1.340080247e-01	-2.923669382e-04	1.778068966e-11
-1.430000000e-02	1.340080266e-01	-2.910062021e-04	1.596550471e-11
-1.440000000e-02	1.340080284e-01	-2.896454659e-04	2.076592608e-11
-1.450000000e-02	1.340080303e-01	-2.882847294e-04	1.013086038e-11
-1.460000000e-02	1.340080320e-01	-2.869239928e-04	3.495860945e-11
-1.470000000e-02	1.340080338e-01	-2.855632560e-04	9.944400532e-12
-1.480000000e-02	1.340080355e-01	-2.842025191e-04	1.552171126e-11
-1.490000000e-02	1.340080371e-01	-2.828417820e-04	7.942207411e-12
-1.500000000e-02	1.340080387e-01	-2.814810447e-04	3.394391755e-11
-1.510000000e-02	1.340080403e-01	-2.801203073e-04	7.746168121e-12
-1.520000000e-02	1.340080418e-01	-2.787595697e-04	1.149622827e-11
-1.530000000e-02	1.340080433e-01	-2.773988320e-04	8.474141740e-12
-1.540000000e-02	1.340080447e-01	-2.760380942e-04	1.997285812e-11
-1.550000000e-02	1.340080461e-01	-2.746773561e-04	1.258671530e-11
-1.560000000e-02	1.340080475e-01	-2.733166180e-04	3.058642483e-11
-1.570000000e-02	1.340080488e-01	-2.719558797e-04	1.894233324e-11
-1.580000000e-02	1.340080501e-01	-2.705951413e-04	2.655941831e-11
-1.590000000e-02	1.340080513e-01	-2.692344027e-04	2.965469316e-11
-1.600000000e-02	1.340080525e-01	-2.678736640e-04	1.307599407e-11
-1.610000000e-02	1.340080537e-01	-2.665129251e-04	6.343927694e-12
-1.620000000e-02	1.340080548e-01	-2.651521861e-04	9.922599222e-12
-1.630000000e-02	1.340080559e-01	-2.637914470e-04	2.743232553e-11
-1.640000000e-02	1.340080569e-01	-2.624307078e-04	5.601472096e-12
-1.650000000e-02	1.340080579e-01	-2.610699684e-04	1.420317227e-11
-1.660000000e-02	1.340080588e-01	-2.597092289e-04	1.997811064e-11
-1.670000000e-02	1.340080597e-01	-2.583484893e-04	1.045316265e-11
-1.680000000e-02	1.340080606e-01	-2.569877496e-04	4.030207160e-11
-1.690000000e-02	1.340080614e-01	-2.556270097e-04	1.101100089e-11
-1.700000000e-02	1.340080622e-01	-2.542662698e-04	8.873021845e-12
-1.710000000e-02	1.340080629e-01	-2.529055297e-04	1.651042815e-11
-1.720000000e-02	1.340080636e-01	-2.515447895e-04	4.130100348e-11
-1.730000000e-02	1.340080643e-01	-2.501840492e-04	1.077663150e-11
-1.740000000e-02	1.340080649e-01	-2.488233088e-04	7.848229991e-12
-1.750000000e-02	1.340080655e-01	-2.474625683e-04	6.929995371e-12
-1.760000000e-02	1.340080660e-01	-2.461018277e-04	6.963866415e-12
-1.770000000e-02	1.340080665e-01	-2.447410870e-04	8.911239349e-12
-1.780000000e-02	1.340080670e-01	-2.433803462e-04	1.145984364e-11
-1.790000000e-02	1.340080674e-01	-2.420196053e-04	8.232111842e-12
-1.800000000e-02	1.340080677e-01	-2.406588643e-04	1.184713345e-11
-1.810000000e-02	1.340080681e-01	-2.392981232e-04	2.059476863e-11
-1.820000000e-02	1.340080684e-01	-2.379373820e-04	3.646198702e-11
-1.830000000e-02	1.340080686e-01	-2.365766407e-04	6.449446735e-12
-1.840000000e-02	1.340080688e-01	-2.352158994e-04	1.959737746e-11
-1.850000000e-02	1.340080690e-01	-2.338551579e-04	1.834614142e-11
-1.860000000e-02	1.340080691e-01	-2.324944164e-04	6.721338654e-12
-1.870000000e-02	1.340080692e-01	-2.311336748e-04	3.724499358e-11
-1.880000000e-02	1.340080692e-01	-2.297729331e-04	1.135394608e-11
-1.890000000e-02	1.340080692e-01	-2.284121913e-04	2.125250477e-11
-1.900000000e-02	1.340080692e-01	-2.270514495e-04	4.771527810e-12
-1.910000000e-02	1.340080691e-01	-2.256907076e-04	1.733570330e-11
-1.920000000e-02	1.340080689e-01	-2.243299656e-04	1.143934577e-11
-1.930000000e-02	1.340080688e-01	-2.229692236e-04	8.533950792e-12
-1.940000000e-02	1.340080686e-01	-2.216084815e-04	1.046123549e-11
-1.950000000e-02	1.340080683e-01	-2.202477393e-04	5.940544029e-12
-1.960000000e-02	1.340080680e-01	-2.188869971e-04	6.626878411e-12
-1.970000000e-02	1.340080677e-01	-2.175262548e-04	9.259769620e-12
-1.980000000e-02	1.340080673e-01	-2.161655124e-04	1.265832628e-11
-1.990000000e-02	1.340080669e-01	-2.148047700e-04	5.648234007e-12
-2.000000000e-02	1.340080664e-01	-2.134440276e-04	5.306218004e-11
-2.010000000e-02	1.340080659e-01	-2.120832851e-04	1.800545517e-11
-2.020000000e-02	1.340080654e-01	-2.107225425e-04	2.733993469e-11
-2.030000000e-02	1.340080648e-01	-2.093617999e-04	1.423798978e-11
-2.040000000e-02	1.340080642e-01	-2.080010573e-04	2.043270037e-11
-2.050000000e-02	1.340080635e-01	-2.066403146e-04	2.702860947e-11
-2.060000000e-02	1.340080628e-01	-2.052795719e-04	5.649380210e-12
-2.070000000e-02	1.340080621e-01	-2.039188291e-04	5.738688189e-11
-2.080000000e-02	1.340080613e-01	-2.025580863e-04	9.200855144e-12
-2.090000000e-02	1.340080605e-01	-2.011973435e-04	1.134340860e-11
-2.100000000e-02	1.340080596e-01	-1.998366006e-04	2.645946145e-11
-2.110000000e-02	1.340080587e-01	-1.984758577e-04	2.174605452e-11
-2.120000000e-02	1.340080577e-01	-1.971151148e-04	1.722147840e-11
-2.130000000e-02	1.340080567e-01	-1.957543718e-04	3.127772957e-11
-2.140000000e-02	1.340080557e-01	-1.943936288e-04	8.341284541e-12
-2.150000000e-02	1.340080546e-01	-1.930328858e-04	7.514506668e-12
-2.160000000e-02	1.340080535e-01	-1.916721428e-04	1.539119150e-11
-2.170000000e-02	1.340080523e-01	-1.903113998e-04	1.794925207e-11
-2.180000000e-02	1.340080511e-01	-1.889506567e-04	2.279746196e-11
-2.190000000e-02	1.340080499e-01	-1.875899137e-04	6.584264974e-12
-2.200000000e-02	1.340080486e-01	-1.862291706e-04	5.458166867e-12
-2.210000000e-02	1.340080473e-01	-1.848684275e-04	8.498521107e-12
-2.220000000e-02	1.340080459e-01	-1.835076845e-04	2.380999365e-11
-2.230000000e-02	1.340080445e-01	-1.821469414e-04	1.411819342e-10
-2.240000000e-02	1.340080430e-01	-1.807861983e-04	1.087027505e-11
-2.250000000e-02	1.340080415e-01	-1.794254552e-04	7.903192849e-11
-2.260000000e-02	1.340080400e-01	-1.780647121e-04	2.108369029e-11
-2.270000000e-02	1.340080384e-01	-1.767039690e-04	2.451077905e-11
-2.280000000e-02	1.340080368e-01	-1.753432259e-04	1.211110739e-11
-2.290000000e-02	1.340080352e-01	-1.739824828e-04	1.639955362e-11
-2.300000000e-02	1.340080335e-01	-1.726217397e-04	3.065321430e-11
-2.310000000e-02	1.340080317e-01	-1.712609967e-04	9.670357615e-12
-2.320000000e-02	1.340080299e-01	-1.699002536e-04	1.392334103e-11
-2.330000000e-02	1.340080281e-01	-1.685395106e-04	1.050538454e-11
-2.340000000e-02	1.340080263e-01	-1.671787676e-04	1.231138318e-11
-2.350000000e-02	1.340080244e-01	-1.658180246e-04	1.198558337e-11
-2.360000000e-02	1.340080224e-01	-1.644572817e-04	7.055324433e-12
-2.370000000e-02	1.340080204e-01	-1.630965387e-04	1.721066791e-11
-2.380000000e-02	1.340080184e-01	-1.617357958e-04	8.190625144e-12
-2.390000000e-02	1.340080163e-01	-1.603750529e-04	1.752706543e-11
-2.400000000e-02	1.340080142e-01	-1.590143101e-04	1.220738096e-11
-2.410000000e-02	1.340080121e-01	-1.576535672e-04	3.322511183e-11
-2.420000000e-02	1.340080099e-01	-1.562928244e-04	1.804621029e-11
-2.430000000e-02	1.340080076e-01	-1.549320817e-04	2.140624944e-11
-2.440000000e-02	1.340080054e-01	-1.535713390e-04	1.650448881e-11
-2.450000000e-02	1.340080030e-01	-1.522105963e-04	2.097834483e-11
-2.460000000e-02	1.340080007e-01	-1.508498537e-04	1.490078437e-11
-2.470000000e-02	1.340079983e-01	-1.494891111e-04	6.927172563e-12
-2.480000000e-02	1.340079958e-01	-1.481283686e-04	2.534033662e-11
-2.490000000e-02	1.340079933e-01	-1.467676261e-04	1.832796768e-11
-2.500000000e-02	1.340079908e-01	-1.454068836e-04	6.841217636e-11
-2.510000000e-02	1.340079883e-01	-1.440461413e-04	1.239424986e-11
-2.520000000e-02	1.340079856e-01	-1.426853989e-04	8.697057940e-12
-2.530000000e-02	1.340079830e-01	-1.413246567e-04	1.530754169e-11
-2.540000000e-02	1.340079803e-01	-1.399639145e-04	2.036915588e-11
-2.550000000e-02	1.340079776e-01	-1.386031723e-04	4.564810375e-12
-2.560000000e-02	1.340079748e-01	-1.372424302e-04	1.215674097e-11
-2.570000000e-02	1.340079720e-01	-1.358816882e-04	2.968748986e-11
-2.580000000e-02	1.340079691e-01	-1.345209463e-04	1.186132886e-11
-2.590000000e-02	1.340079662e-01	-1.331602044e-04	1.319864697e-11
-2.600000000e-02	1.340079633e-01	-1.317994626e-04	9.948840034e-12
-2.610000000e-02	1.340079603e-01	-1.304387209e-04	1.848784588e-11
-2.620000000e-02	1.340079573e-01	-1.290779792e-04	1.037362194e-11
-2.630000000e-02	1.340079542e-01	-1.277172376e-04	1.068752338e-11
-2.640000000e-02	1.340079511e-01	-1.263564961e-04	2.334288635e-10
-2.650000000e-02	1.340079480e-01	-1.249957547e-04	2.056646568e-11
-2.660000000e-02	1.340079448e-01	-1.236350134e-04	1.055358829e-11
-2.670000000e-02	1.340079416e-01	-1.222742722e-04	2.187856096e-11
-2.680000000e-02	1.340079383e-01	-1.209135310e-04	1.670856511e-11
-2.690000000e-02	1.340079350e-01	-1.195527900e-04	1.836099879e-11
-2.700000000e-02	1.340079316e-01	-1.181920490e-04	1.980350285e-11
-2.710000000e-02	1.340079282e-01	-1.168313081e-04	9.438752113e-12
-2.720000000e-02	1.340079248e-01	-1.154705674e-04	1.439865386e-11
-2.730000000e-02	1.340079213e-01	-1.141098267e-04	3.183920978e-11
-2.740000000e-02	1.340079178e-01	-1.127490861e-04	1.032980940e-11
-2.750000000e-02	1.340079143e-01	-1.113883457e-04	1.561033587e-11
-2.760000000e-02	1.340079107e-01	-1.100276053e-04	1.197436357e-11
-2.770000000e-02	1.340079070e-01	-1.086668650e-04	1.083032787e-11
-2.780000000e-02	1.340079033e-01	-1.073061249e-04	1.822279725e-11
-2.790000000e-02	1.340078996e-01	-1.059453849e-04	7.435066853e-12
-2.800000000e-02	1.340078959e-01	-1.045846449e-04	1.027187311e-11
-2.810000000e-02	1.340078920e-01	-1.032239051e-04	1.427828683e-11
-2.820000000e-02	1.340078882e-01	-1.018631655e-04	3.080695048e-11
-2.830000000e-02	1.340078843e-01	-1.005024259e-04	6.862220833e-12
-2.840000000e-02	1.340078804e-01	-9.914168646e-05	1.543725293e-11
-2.850000000e-02	1.340078764e-01	-9.778094715e-05	8.068846010e-12
-2.860000000e-02	1.340078724e-01	-9.642020795e-05	1.309392632e-11
-2.870000000e-02	1.340078683e-01	-9.505946890e-05	1.184871019e-11
-2.880000000e-02	1.340078642e-01	-9.369872997e-05	8.223905566e-12
-2.890000000e-02	1.340078601e-01	-9.233799118e-05	1.518107196e-11
-2.900000000e-02	1.340078559e-01	-9.097725252e-05	6.135538050e-12
-2.910000000e-02	1.340078517e-01	-8.961651399e-05	1.677437007e-11
-2.920000000e-02	1.340078474e-01	-8.825577561e-05	1.539219697e-11
-2.930000000e-02	1.340078431e-01	-8.689503736e-05	2.307190762e-11
-2.940000000e-02	1.340078388e-01	-8.553429927e-05	1.118239805e-11
-2.950000000e-02	1.340078344e-01	-8.417356130e-05	4.996007990e-11
-2.960000000e-02	1.340078300e-01	-8.281282350e-05	1.437674269e-11
-2.970000000e-02	1.340078255e-01	-8.145208584e-05	1.688780945e-11
-2.980000000e-02	1.340078210e-01	-8.009134834e-05	1.130825571e-11
-2.990000000e-02	1.340078165e-01	-7.873061099e-05	7.152246190e-12
-3.000000000e-02	1.340078119e-01	-7.736987380e-05	8.825323596e-12
