# Im(epsi1)     Re(omega/c)      Im(omega/c)      Eq(det).Opt det CON kz, R=0.5 \mum, mu_c=0.3, Re(epsi1)=3.90solve_det_conkz_vs_kz.py
0.000000000e+00	1.339637334e-01	-5.625766053e-04	1.413323903e-11
-1.000000000e-04	1.339637432e-01	-5.612158973e-04	2.296597609e-12
-2.000000000e-04	1.339637531e-01	-5.598551886e-04	4.243745826e-12
-3.000000000e-04	1.339637628e-01	-5.584944793e-04	1.894231809e-11
-4.000000000e-04	1.339637726e-01	-5.571337694e-04	1.591801247e-11
-5.000000000e-04	1.339637823e-01	-5.557730589e-04	1.353221783e-11
-6.000000000e-04	1.339637919e-01	-5.544123477e-04	8.374683087e-12
-7.000000000e-04	1.339638016e-01	-5.530516360e-04	2.811289252e-12
-8.000000000e-04	1.339638111e-01	-5.516909237e-04	5.104652770e-12
-9.000000000e-04	1.339638207e-01	-5.503302107e-04	3.478658926e-12
-1.000000000e-03	1.339638302e-01	-5.489694972e-04	2.132946881e-11
-1.100000000e-03	1.339638396e-01	-5.476087830e-04	1.872196037e-11
-1.200000000e-03	1.339638491e-01	-5.462480683e-04	1.793013032e-11
-1.300000000e-03	1.339638584e-01	-5.448873530e-04	1.117413960e-11
-1.400000000e-03	1.339638678e-01	-5.435266371e-04	6.787948419e-12
-1.500000000e-03	1.339638771e-01	-5.421659205e-04	1.880630903e-11
-1.600000000e-03	1.339638863e-01	-5.408052035e-04	8.602677275e-12
-1.700000000e-03	1.339638955e-01	-5.394444858e-04	2.578888469e-11
-1.800000000e-03	1.339639047e-01	-5.380837675e-04	3.055023094e-11
-1.900000000e-03	1.339639138e-01	-5.367230487e-04	2.439900878e-11
-2.000000000e-03	1.339639229e-01	-5.353623293e-04	1.240996647e-11
-2.100000000e-03	1.339639320e-01	-5.340016093e-04	7.166355459e-12
-2.200000000e-03	1.339639410e-01	-5.326408887e-04	1.355610101e-11
-2.300000000e-03	1.339639499e-01	-5.312801675e-04	1.233664618e-11
-2.400000000e-03	1.339639589e-01	-5.299194458e-04	2.301947001e-11
-2.500000000e-03	1.339639677e-01	-5.285587235e-04	1.360828183e-11
-2.600000000e-03	1.339639766e-01	-5.271980007e-04	3.786955432e-11
-2.700000000e-03	1.339639854e-01	-5.258372773e-04	1.619950719e-11
-2.800000000e-03	1.339639942e-01	-5.244765533e-04	3.294344162e-11
-2.900000000e-03	1.339640029e-01	-5.231158288e-04	6.908378889e-12
-3.000000000e-03	1.339640116e-01	-5.217551037e-04	1.015144130e-11
-3.100000000e-03	1.339640202e-01	-5.203943780e-04	1.327243621e-11
-3.200000000e-03	1.339640288e-01	-5.190336519e-04	3.018540603e-11
-3.300000000e-03	1.339640374e-01	-5.176729251e-04	9.494333788e-12
-3.400000000e-03	1.339640459e-01	-5.163121978e-04	1.904223850e-11
-3.500000000e-03	1.339640543e-01	-5.149514700e-04	1.115395977e-11
-3.600000000e-03	1.339640628e-01	-5.135907416e-04	9.354092255e-12
-3.700000000e-03	1.339640712e-01	-5.122300127e-04	1.551477542e-11
-3.800000000e-03	1.339640795e-01	-5.108692832e-04	8.019922221e-12
-3.900000000e-03	1.339640878e-01	-5.095085532e-04	1.335231725e-11
-4.000000000e-03	1.339640961e-01	-5.081478226e-04	1.983464719e-11
-4.100000000e-03	1.339641043e-01	-5.067870916e-04	1.058327724e-11
-4.200000000e-03	1.339641125e-01	-5.054263600e-04	1.106828786e-11
-4.300000000e-03	1.339641207e-01	-5.040656278e-04	1.725533509e-11
-4.400000000e-03	1.339641288e-01	-5.027048952e-04	1.677457803e-11
-4.500000000e-03	1.339641369e-01	-5.013441620e-04	1.932228260e-11
-4.600000000e-03	1.339641449e-01	-4.999834283e-04	2.601936213e-11
-4.700000000e-03	1.339641529e-01	-4.986226940e-04	1.527371708e-11
-4.800000000e-03	1.339641608e-01	-4.972619593e-04	1.480777202e-11
-4.900000000e-03	1.339641687e-01	-4.959012240e-04	7.488908716e-12
-5.000000000e-03	1.339641766e-01	-4.945404882e-04	9.736597293e-12
-5.100000000e-03	1.339641844e-01	-4.931797519e-04	1.865188194e-11
-5.200000000e-03	1.339641922e-01	-4.918190151e-04	2.082290900e-11
-5.300000000e-03	1.339641999e-01	-4.904582778e-04	1.898144019e-11
-5.400000000e-03	1.339642076e-01	-4.890975400e-04	3.178140760e-12
-5.500000000e-03	1.339642153e-01	-4.877368017e-04	8.798041969e-12
-5.600000000e-03	1.339642229e-01	-4.863760629e-04	1.847712034e-11
-5.700000000e-03	1.339642305e-01	-4.850153236e-04	1.256610881e-11
-5.800000000e-03	1.339642380e-01	-4.836545837e-04	1.200385241e-11
-5.900000000e-03	1.339642455e-01	-4.822938434e-04	7.875515588e-12
-6.000000000e-03	1.339642529e-01	-4.809331026e-04	2.525412514e-11
-6.100000000e-03	1.339642604e-01	-4.795723613e-04	5.342871028e-11
-6.200000000e-03	1.339642677e-01	-4.782116195e-04	2.215652454e-11
-6.300000000e-03	1.339642751e-01	-4.768508773e-04	1.546397528e-11
-6.400000000e-03	1.339642824e-01	-4.754901345e-04	8.198589697e-12
-6.500000000e-03	1.339642896e-01	-4.741293913e-04	5.722650079e-11
-6.600000000e-03	1.339642968e-01	-4.727686476e-04	4.763786362e-12
-6.700000000e-03	1.339643040e-01	-4.714079034e-04	1.199975437e-11
-6.800000000e-03	1.339643111e-01	-4.700471587e-04	8.648116778e-11
-6.900000000e-03	1.339643182e-01	-4.686864135e-04	1.808637903e-11
-7.000000000e-03	1.339643252e-01	-4.673256679e-04	1.899780072e-11
-7.100000000e-03	1.339643322e-01	-4.659649218e-04	8.605282039e-12
-7.200000000e-03	1.339643392e-01	-4.646041753e-04	1.191008831e-11
-7.300000000e-03	1.339643461e-01	-4.632434283e-04	1.017922171e-11
-7.400000000e-03	1.339643530e-01	-4.618826808e-04	1.174147268e-11
-7.500000000e-03	1.339643598e-01	-4.605219329e-04	3.684370368e-12
-7.600000000e-03	1.339643666e-01	-4.591611845e-04	4.697421225e-12
-7.700000000e-03	1.339643734e-01	-4.578004356e-04	9.145550522e-12
-7.800000000e-03	1.339643801e-01	-4.564396863e-04	2.239539881e-11
-7.900000000e-03	1.339643868e-01	-4.550789365e-04	1.245114636e-11
-8.000000000e-03	1.339643934e-01	-4.537181863e-04	3.100704597e-12
-8.100000000e-03	1.339644000e-01	-4.523574357e-04	2.821532247e-12
-8.200000000e-03	1.339644066e-01	-4.509966846e-04	3.357429961e-12
-8.300000000e-03	1.339644131e-01	-4.496359330e-04	1.344123193e-11
-8.400000000e-03	1.339644196e-01	-4.482751810e-04	1.665039064e-11
-8.500000000e-03	1.339644260e-01	-4.469144286e-04	1.760694201e-11
-8.600000000e-03	1.339644324e-01	-4.455536757e-04	4.376550540e-12
-8.700000000e-03	1.339644387e-01	-4.441929224e-04	1.573920902e-11
-8.800000000e-03	1.339644450e-01	-4.428321687e-04	2.209237306e-11
-8.900000000e-03	1.339644513e-01	-4.414714145e-04	1.871328372e-11
-9.000000000e-03	1.339644575e-01	-4.401106599e-04	5.679251750e-12
-9.100000000e-03	1.339644637e-01	-4.387499049e-04	1.325267297e-11
-9.200000000e-03	1.339644699e-01	-4.373891494e-04	1.670571556e-11
-9.300000000e-03	1.339644760e-01	-4.360283936e-04	3.762239749e-11
-9.400000000e-03	1.339644820e-01	-4.346676373e-04	1.811805634e-11
-9.500000000e-03	1.339644881e-01	-4.333068806e-04	4.682988415e-12
-9.600000000e-03	1.339644940e-01	-4.319461235e-04	8.301599505e-12
-9.700000000e-03	1.339645000e-01	-4.305853659e-04	1.480065283e-11
-9.800000000e-03	1.339645059e-01	-4.292246080e-04	9.949911252e-12
-9.900000000e-03	1.339645117e-01	-4.278638496e-04	1.277873051e-11
-1.000000000e-02	1.339645176e-01	-4.265030909e-04	7.843909759e-12
-1.010000000e-02	1.339645233e-01	-4.251423317e-04	2.213352819e-11
-1.020000000e-02	1.339645291e-01	-4.237815721e-04	1.636206336e-11
-1.030000000e-02	1.339645348e-01	-4.224208122e-04	9.503991958e-12
-1.040000000e-02	1.339645404e-01	-4.210600518e-04	1.106272068e-11
-1.050000000e-02	1.339645460e-01	-4.196992910e-04	1.735409619e-11
-1.060000000e-02	1.339645516e-01	-4.183385299e-04	2.707168806e-11
-1.070000000e-02	1.339645571e-01	-4.169777683e-04	1.123719016e-11
-1.080000000e-02	1.339645626e-01	-4.156170064e-04	1.844732782e-11
-1.090000000e-02	1.339645681e-01	-4.142562440e-04	1.339812891e-11
-1.100000000e-02	1.339645735e-01	-4.128954813e-04	3.003650754e-11
-1.110000000e-02	1.339645789e-01	-4.115347182e-04	3.277237208e-11
-1.120000000e-02	1.339645842e-01	-4.101739547e-04	1.542127510e-11
-1.130000000e-02	1.339645895e-01	-4.088131909e-04	3.100469692e-12
-1.140000000e-02	1.339645947e-01	-4.074524266e-04	2.009106194e-11
-1.150000000e-02	1.339645999e-01	-4.060916620e-04	9.325099940e-12
-1.160000000e-02	1.339646051e-01	-4.047308970e-04	1.238008311e-11
-1.170000000e-02	1.339646102e-01	-4.033701317e-04	1.630479354e-11
-1.180000000e-02	1.339646153e-01	-4.020093660e-04	2.812446753e-11
-1.190000000e-02	1.339646203e-01	-4.006485999e-04	1.260858068e-11
-1.200000000e-02	1.339646253e-01	-3.992878334e-04	1.447021741e-11
-1.210000000e-02	1.339646303e-01	-3.979270666e-04	1.704379319e-12
-1.220000000e-02	1.339646352e-01	-3.965662994e-04	2.476869718e-11
-1.230000000e-02	1.339646401e-01	-3.952055319e-04	1.382646181e-11
-1.240000000e-02	1.339646449e-01	-3.938447640e-04	9.621748222e-11
-1.250000000e-02	1.339646497e-01	-3.924839957e-04	1.619908859e-11
-1.260000000e-02	1.339646545e-01	-3.911232271e-04	3.525731545e-12
-1.270000000e-02	1.339646592e-01	-3.897624582e-04	1.669942306e-11
-1.280000000e-02	1.339646639e-01	-3.884016889e-04	1.890734144e-11
-1.290000000e-02	1.339646685e-01	-3.870409193e-04	3.277734473e-11
-1.300000000e-02	1.339646731e-01	-3.856801493e-04	3.136119597e-11
-1.310000000e-02	1.339646776e-01	-3.843193790e-04	1.314545412e-11
-1.320000000e-02	1.339646821e-01	-3.829586083e-04	5.352859940e-12
-1.330000000e-02	1.339646866e-01	-3.815978373e-04	8.114467006e-12
-1.340000000e-02	1.339646910e-01	-3.802370660e-04	2.246048525e-11
-1.350000000e-02	1.339646954e-01	-3.788762943e-04	2.617834056e-11
-1.360000000e-02	1.339646998e-01	-3.775155223e-04	1.162947383e-11
-1.370000000e-02	1.339647041e-01	-3.761547500e-04	5.751498758e-12
-1.380000000e-02	1.339647083e-01	-3.747939773e-04	7.524471372e-12
-1.390000000e-02	1.339647126e-01	-3.734332044e-04	2.398851987e-11
-1.400000000e-02	1.339647167e-01	-3.720724311e-04	1.387425041e-11
-1.410000000e-02	1.339647209e-01	-3.707116575e-04	1.122846590e-11
-1.420000000e-02	1.339647250e-01	-3.693508835e-04	7.994900001e-12
-1.430000000e-02	1.339647290e-01	-3.679901093e-04	1.953514454e-11
-1.440000000e-02	1.339647331e-01	-3.666293347e-04	2.426059597e-11
-1.450000000e-02	1.339647370e-01	-3.652685599e-04	6.403949174e-12
-1.460000000e-02	1.339647410e-01	-3.639077847e-04	6.609251396e-11
-1.470000000e-02	1.339647449e-01	-3.625470092e-04	5.056459498e-12
-1.480000000e-02	1.339647487e-01	-3.611862334e-04	5.526349210e-12
-1.490000000e-02	1.339647525e-01	-3.598254573e-04	9.255942362e-12
-1.500000000e-02	1.339647563e-01	-3.584646809e-04	2.485684259e-11
-1.510000000e-02	1.339647601e-01	-3.571039042e-04	1.988721842e-11
-1.520000000e-02	1.339647637e-01	-3.557431273e-04	1.934784725e-11
-1.530000000e-02	1.339647674e-01	-3.543823500e-04	6.901065878e-12
-1.540000000e-02	1.339647710e-01	-3.530215724e-04	1.995684367e-11
-1.550000000e-02	1.339647746e-01	-3.516607945e-04	1.720581762e-11
-1.560000000e-02	1.339647781e-01	-3.503000164e-04	5.427941503e-10
-1.570000000e-02	1.339647816e-01	-3.489392380e-04	1.024858879e-11
-1.580000000e-02	1.339647850e-01	-3.475784593e-04	2.127870215e-11
-1.590000000e-02	1.339647884e-01	-3.462176803e-04	1.413704504e-11
-1.600000000e-02	1.339647918e-01	-3.448569010e-04	1.130693759e-11
-1.610000000e-02	1.339647951e-01	-3.434961214e-04	4.576605730e-11
-1.620000000e-02	1.339647984e-01	-3.421353416e-04	5.156420614e-12
-1.630000000e-02	1.339648017e-01	-3.407745615e-04	3.502592972e-12
-1.640000000e-02	1.339648049e-01	-3.394137811e-04	2.223736953e-11
-1.650000000e-02	1.339648080e-01	-3.380530005e-04	2.729151771e-12
-1.660000000e-02	1.339648111e-01	-3.366922196e-04	2.896985682e-11
-1.670000000e-02	1.339648142e-01	-3.353314384e-04	5.760798658e-12
-1.680000000e-02	1.339648173e-01	-3.339706570e-04	9.222386587e-12
-1.690000000e-02	1.339648202e-01	-3.326098753e-04	6.471911712e-11
-1.700000000e-02	1.339648232e-01	-3.312490934e-04	1.717955221e-11
-1.710000000e-02	1.339648261e-01	-3.298883112e-04	1.193954097e-11
-1.720000000e-02	1.339648290e-01	-3.285275288e-04	1.638727174e-11
-1.730000000e-02	1.339648318e-01	-3.271667460e-04	1.960014132e-11
-1.740000000e-02	1.339648346e-01	-3.258059631e-04	7.319314971e-12
-1.750000000e-02	1.339648374e-01	-3.244451799e-04	9.223237133e-12
-1.760000000e-02	1.339648401e-01	-3.230843965e-04	8.794033507e-12
-1.770000000e-02	1.339648427e-01	-3.217236128e-04	5.426435236e-12
-1.780000000e-02	1.339648454e-01	-3.203628289e-04	1.079473151e-11
-1.790000000e-02	1.339648480e-01	-3.190020447e-04	2.294781371e-11
-1.800000000e-02	1.339648505e-01	-3.176412603e-04	2.827396423e-11
-1.810000000e-02	1.339648530e-01	-3.162804757e-04	5.145326925e-12
-1.820000000e-02	1.339648555e-01	-3.149196908e-04	1.339466673e-11
-1.830000000e-02	1.339648579e-01	-3.135589057e-04	1.386988103e-11
-1.840000000e-02	1.339648603e-01	-3.121981204e-04	1.022058282e-11
-1.850000000e-02	1.339648626e-01	-3.108373349e-04	1.232194385e-11
-1.860000000e-02	1.339648649e-01	-3.094765491e-04	9.372619108e-12
-1.870000000e-02	1.339648672e-01	-3.081157631e-04	1.477640723e-11
-1.880000000e-02	1.339648694e-01	-3.067549769e-04	1.154314707e-11
-1.890000000e-02	1.339648716e-01	-3.053941905e-04	2.091593922e-11
-1.900000000e-02	1.339648737e-01	-3.040334038e-04	1.760674431e-11
-1.910000000e-02	1.339648758e-01	-3.026726170e-04	1.700586914e-11
-1.920000000e-02	1.339648779e-01	-3.013118299e-04	3.044028536e-11
-1.930000000e-02	1.339648799e-01	-2.999510427e-04	6.723393910e-11
-1.940000000e-02	1.339648819e-01	-2.985902552e-04	2.785297650e-11
-1.950000000e-02	1.339648838e-01	-2.972294675e-04	1.051384816e-11
-1.960000000e-02	1.339648857e-01	-2.958686796e-04	1.107031337e-11
-1.970000000e-02	1.339648876e-01	-2.945078916e-04	1.744883354e-11
-1.980000000e-02	1.339648894e-01	-2.931471033e-04	1.269180456e-11
-1.990000000e-02	1.339648911e-01	-2.917863148e-04	1.043430685e-11
-2.000000000e-02	1.339648929e-01	-2.904255261e-04	1.240528638e-11
-2.010000000e-02	1.339648945e-01	-2.890647373e-04	4.091314691e-12
-2.020000000e-02	1.339648962e-01	-2.877039483e-04	3.120095231e-12
-2.030000000e-02	1.339648978e-01	-2.863431590e-04	1.703795066e-11
-2.040000000e-02	1.339648994e-01	-2.849823696e-04	7.528979457e-12
-2.050000000e-02	1.339649009e-01	-2.836215800e-04	3.418265288e-11
-2.060000000e-02	1.339649024e-01	-2.822607902e-04	5.886112961e-12
-2.070000000e-02	1.339649038e-01	-2.809000003e-04	1.857298428e-11
-2.080000000e-02	1.339649052e-01	-2.795392102e-04	7.681307180e-12
-2.090000000e-02	1.339649066e-01	-2.781784199e-04	2.425363930e-11
-2.100000000e-02	1.339649079e-01	-2.768176294e-04	1.443208460e-11
-2.110000000e-02	1.339649092e-01	-2.754568387e-04	1.739275978e-11
-2.120000000e-02	1.339649104e-01	-2.740960479e-04	3.320053921e-12
-2.130000000e-02	1.339649116e-01	-2.727352569e-04	1.362404769e-11
-2.140000000e-02	1.339649128e-01	-2.713744658e-04	1.689885706e-11
-2.150000000e-02	1.339649139e-01	-2.700136745e-04	1.498439747e-11
-2.160000000e-02	1.339649150e-01	-2.686528830e-04	7.655892852e-11
-2.170000000e-02	1.339649160e-01	-2.672920914e-04	5.248194472e-11
-2.180000000e-02	1.339649170e-01	-2.659312997e-04	9.529644677e-12
-2.190000000e-02	1.339649179e-01	-2.645705077e-04	3.699436702e-12
-2.200000000e-02	1.339649189e-01	-2.632097157e-04	4.218675999e-12
-2.210000000e-02	1.339649197e-01	-2.618489234e-04	4.956840499e-12
-2.220000000e-02	1.339649206e-01	-2.604881311e-04	9.953439508e-12
-2.230000000e-02	1.339649213e-01	-2.591273386e-04	1.958014775e-11
-2.240000000e-02	1.339649221e-01	-2.577665459e-04	2.610232389e-11
-2.250000000e-02	1.339649228e-01	-2.564057531e-04	8.649492964e-12
-2.260000000e-02	1.339649235e-01	-2.550449602e-04	2.794268803e-11
-2.270000000e-02	1.339649241e-01	-2.536841671e-04	3.316438983e-11
-2.280000000e-02	1.339649247e-01	-2.523233739e-04	1.184186631e-11
-2.290000000e-02	1.339649252e-01	-2.509625806e-04	2.862709474e-11
-2.300000000e-02	1.339649257e-01	-2.496017872e-04	2.381186596e-11
-2.310000000e-02	1.339649262e-01	-2.482409936e-04	1.782372484e-11
-2.320000000e-02	1.339649266e-01	-2.468801999e-04	8.320346855e-12
-2.330000000e-02	1.339649270e-01	-2.455194060e-04	1.631458060e-11
-2.340000000e-02	1.339649273e-01	-2.441586121e-04	1.813273013e-11
-2.350000000e-02	1.339649276e-01	-2.427978180e-04	7.025175399e-12
-2.360000000e-02	1.339649279e-01	-2.414370238e-04	2.990352725e-12
-2.370000000e-02	1.339649281e-01	-2.400762295e-04	3.541440821e-11
-2.380000000e-02	1.339649283e-01	-2.387154351e-04	1.504767849e-11
-2.390000000e-02	1.339649284e-01	-2.373546406e-04	2.873284771e-11
-2.400000000e-02	1.339649285e-01	-2.359938460e-04	3.152387489e-11
-2.410000000e-02	1.339649285e-01	-2.346330513e-04	7.515063184e-12
-2.420000000e-02	1.339649285e-01	-2.332722564e-04	5.726298796e-11
-2.430000000e-02	1.339649285e-01	-2.319114615e-04	2.712746467e-11
-2.440000000e-02	1.339649285e-01	-2.305506665e-04	1.478676713e-11
-2.450000000e-02	1.339649283e-01	-2.291898713e-04	2.024858190e-11
-2.460000000e-02	1.339649282e-01	-2.278290761e-04	1.961061317e-11
-2.470000000e-02	1.339649280e-01	-2.264682808e-04	1.719991315e-11
-2.480000000e-02	1.339649278e-01	-2.251074854e-04	3.952913129e-12
-2.490000000e-02	1.339649275e-01	-2.237466899e-04	2.212893637e-11
-2.500000000e-02	1.339649272e-01	-2.223858943e-04	6.181420707e-12
-2.510000000e-02	1.339649268e-01	-2.210250987e-04	3.658100875e-12
-2.520000000e-02	1.339649264e-01	-2.196643029e-04	3.539813819e-11
-2.530000000e-02	1.339649260e-01	-2.183035071e-04	1.068202106e-11
-2.540000000e-02	1.339649255e-01	-2.169427112e-04	1.675397222e-11
-2.550000000e-02	1.339649250e-01	-2.155819152e-04	6.150053634e-12
-2.560000000e-02	1.339649244e-01	-2.142211192e-04	3.617837678e-11
-2.570000000e-02	1.339649238e-01	-2.128603230e-04	1.309958951e-11
-2.580000000e-02	1.339649232e-01	-2.114995269e-04	6.735352913e-12
-2.590000000e-02	1.339649225e-01	-2.101387306e-04	5.532450417e-12
-2.600000000e-02	1.339649218e-01	-2.087779343e-04	1.014443640e-11
-2.610000000e-02	1.339649210e-01	-2.074171379e-04	5.177819270e-12
-2.620000000e-02	1.339649202e-01	-2.060563415e-04	3.787229343e-11
-2.630000000e-02	1.339649193e-01	-2.046955450e-04	5.671949071e-12
-2.640000000e-02	1.339649185e-01	-2.033347484e-04	3.532921017e-11
-2.650000000e-02	1.339649175e-01	-2.019739518e-04	1.559190479e-12
-2.660000000e-02	1.339649166e-01	-2.006131551e-04	1.042354259e-11
-2.670000000e-02	1.339649155e-01	-1.992523584e-04	7.715362650e-12
-2.680000000e-02	1.339649145e-01	-1.978915617e-04	1.545737779e-11
-2.690000000e-02	1.339649134e-01	-1.965307649e-04	9.049125172e-12
-2.700000000e-02	1.339649123e-01	-1.951699680e-04	7.262603161e-12
-2.710000000e-02	1.339649111e-01	-1.938091711e-04	6.039654886e-12
-2.720000000e-02	1.339649099e-01	-1.924483742e-04	1.369213402e-11
-2.730000000e-02	1.339649086e-01	-1.910875772e-04	7.138244412e-12
-2.740000000e-02	1.339649073e-01	-1.897267802e-04	8.624234802e-12
-2.750000000e-02	1.339649060e-01	-1.883659832e-04	5.100046197e-12
-2.760000000e-02	1.339649046e-01	-1.870051862e-04	1.018479246e-11
-2.770000000e-02	1.339649032e-01	-1.856443891e-04	1.226065682e-11
-2.780000000e-02	1.339649017e-01	-1.842835920e-04	1.738195450e-11
-2.790000000e-02	1.339649002e-01	-1.829227948e-04	9.830823481e-12
-2.800000000e-02	1.339648987e-01	-1.815619977e-04	1.745579054e-12
-2.810000000e-02	1.339648971e-01	-1.802012005e-04	2.637283069e-11
-2.820000000e-02	1.339648955e-01	-1.788404033e-04	9.251829171e-12
-2.830000000e-02	1.339648938e-01	-1.774796061e-04	2.478500440e-11
-2.840000000e-02	1.339648921e-01	-1.761188089e-04	8.403708831e-12
-2.850000000e-02	1.339648904e-01	-1.747580116e-04	6.545858903e-12
-2.860000000e-02	1.339648886e-01	-1.733972144e-04	1.890829584e-11
-2.870000000e-02	1.339648867e-01	-1.720364171e-04	6.866139988e-12
-2.880000000e-02	1.339648849e-01	-1.706756199e-04	3.774246165e-11
-2.890000000e-02	1.339648830e-01	-1.693148226e-04	2.550074591e-11
-2.900000000e-02	1.339648810e-01	-1.679540254e-04	1.815309223e-11
-2.910000000e-02	1.339648790e-01	-1.665932281e-04	1.823906869e-11
-2.920000000e-02	1.339648770e-01	-1.652324309e-04	1.774263163e-11
-2.930000000e-02	1.339648749e-01	-1.638716336e-04	1.086713754e-12
-2.940000000e-02	1.339648728e-01	-1.625108364e-04	6.392745827e-12
-2.950000000e-02	1.339648706e-01	-1.611500392e-04	9.542173656e-12
-2.960000000e-02	1.339648684e-01	-1.597892419e-04	4.704413524e-12
-2.970000000e-02	1.339648662e-01	-1.584284448e-04	1.434171228e-11
-2.980000000e-02	1.339648639e-01	-1.570676476e-04	2.018327718e-11
-2.990000000e-02	1.339648616e-01	-1.557068504e-04	1.751649060e-11
-3.000000000e-02	1.339648593e-01	-1.543460533e-04	8.312955368e-12
