# Im(epsi1)     Re(omega/c)      Im(omega/c)      Eq(det).Opt det CON kz, R=0.5 \mum, mu_c=0.3, Re(epsi1)=3.90solve_det_conkz_vs_kz.py
0.000000000e+00	1.340055232e-01	-4.809173819e-04	1.114794660e-11
-1.000000000e-04	1.340055308e-01	-4.795565543e-04	1.607243350e-11
-2.000000000e-04	1.340055384e-01	-4.781957262e-04	9.726227756e-12
-3.000000000e-04	1.340055459e-01	-4.768348976e-04	9.862642534e-12
-4.000000000e-04	1.340055534e-01	-4.754740686e-04	2.379116695e-11
-5.000000000e-04	1.340055609e-01	-4.741132391e-04	9.265941381e-12
-6.000000000e-04	1.340055683e-01	-4.727524092e-04	2.324063281e-11
-7.000000000e-04	1.340055757e-01	-4.713915788e-04	5.442836647e-11
-8.000000000e-04	1.340055830e-01	-4.700307480e-04	8.022577228e-12
-9.000000000e-04	1.340055903e-01	-4.686699168e-04	2.079086463e-11
-1.000000000e-03	1.340055975e-01	-4.673090851e-04	8.634743642e-12
-1.100000000e-03	1.340056048e-01	-4.659482529e-04	1.959549785e-11
-1.200000000e-03	1.340056119e-01	-4.645874203e-04	1.633287295e-11
-1.300000000e-03	1.340056190e-01	-4.632265873e-04	7.316583054e-12
-1.400000000e-03	1.340056261e-01	-4.618657539e-04	1.055869117e-11
-1.500000000e-03	1.340056332e-01	-4.605049200e-04	1.125142682e-11
-1.600000000e-03	1.340056402e-01	-4.591440857e-04	1.749285880e-11
-1.700000000e-03	1.340056471e-01	-4.577832509e-04	1.968309529e-11
-1.800000000e-03	1.340056541e-01	-4.564224158e-04	1.684682941e-11
-1.900000000e-03	1.340056610e-01	-4.550615802e-04	1.354848174e-11
-2.000000000e-03	1.340056678e-01	-4.537007442e-04	8.167745079e-12
-2.100000000e-03	1.340056746e-01	-4.523399077e-04	1.210997508e-11
-2.200000000e-03	1.340056813e-01	-4.509790709e-04	2.788750379e-11
-2.300000000e-03	1.340056881e-01	-4.496182336e-04	1.597048773e-11
-2.400000000e-03	1.340056947e-01	-4.482573960e-04	1.112601415e-11
-2.500000000e-03	1.340057014e-01	-4.468965579e-04	9.812023725e-12
-2.600000000e-03	1.340057080e-01	-4.455357194e-04	8.561791348e-12
-2.700000000e-03	1.340057145e-01	-4.441748805e-04	1.350988429e-11
-2.800000000e-03	1.340057210e-01	-4.428140412e-04	9.878989748e-12
-2.900000000e-03	1.340057275e-01	-4.414532015e-04	6.946767001e-12
-3.000000000e-03	1.340057339e-01	-4.400923614e-04	6.465228662e-12
-3.100000000e-03	1.340057403e-01	-4.387315209e-04	9.691265292e-12
-3.200000000e-03	1.340057466e-01	-4.373706800e-04	1.057805814e-11
-3.300000000e-03	1.340057529e-01	-4.360098387e-04	1.429558258e-11
-3.400000000e-03	1.340057592e-01	-4.346489970e-04	1.047008292e-11
-3.500000000e-03	1.340057654e-01	-4.332881549e-04	1.489666755e-11
-3.600000000e-03	1.340057716e-01	-4.319273124e-04	2.614946118e-11
-3.700000000e-03	1.340057777e-01	-4.305664696e-04	8.993415449e-12
-3.800000000e-03	1.340057838e-01	-4.292056264e-04	1.381725840e-11
-3.900000000e-03	1.340057899e-01	-4.278447827e-04	7.179126026e-12
-4.000000000e-03	1.340057959e-01	-4.264839387e-04	1.550221412e-11
-4.100000000e-03	1.340058019e-01	-4.251230944e-04	1.995703155e-11
-4.200000000e-03	1.340058078e-01	-4.237622496e-04	2.098737792e-11
-4.300000000e-03	1.340058137e-01	-4.224014045e-04	6.204460167e-11
-4.400000000e-03	1.340058195e-01	-4.210405590e-04	1.061998578e-11
-4.500000000e-03	1.340058253e-01	-4.196797132e-04	1.053974453e-11
-4.600000000e-03	1.340058311e-01	-4.183188669e-04	1.081947668e-11
-4.700000000e-03	1.340058368e-01	-4.169580203e-04	1.413118278e-11
-4.800000000e-03	1.340058425e-01	-4.155971734e-04	1.520332216e-11
-4.900000000e-03	1.340058481e-01	-4.142363261e-04	6.195968521e-12
-5.000000000e-03	1.340058537e-01	-4.128754784e-04	1.546055882e-11
-5.100000000e-03	1.340058593e-01	-4.115146304e-04	1.524192196e-11
-5.200000000e-03	1.340058648e-01	-4.101537820e-04	2.066842983e-11
-5.300000000e-03	1.340058703e-01	-4.087929332e-04	7.315225145e-12
-5.400000000e-03	1.340058757e-01	-4.074320841e-04	1.477446274e-11
-5.500000000e-03	1.340058811e-01	-4.060712347e-04	1.218372644e-11
-5.600000000e-03	1.340058865e-01	-4.047103849e-04	1.828066503e-11
-5.700000000e-03	1.340058918e-01	-4.033495348e-04	2.391675465e-11
-5.800000000e-03	1.340058970e-01	-4.019886843e-04	2.050756598e-11
-5.900000000e-03	1.340059023e-01	-4.006278335e-04	9.153200131e-12
-6.000000000e-03	1.340059074e-01	-3.992669824e-04	1.385373555e-11
-6.100000000e-03	1.340059126e-01	-3.979061309e-04	2.257054103e-11
-6.200000000e-03	1.340059177e-01	-3.965452791e-04	1.956178920e-11
-6.300000000e-03	1.340059228e-01	-3.951844269e-04	1.424942528e-11
-6.400000000e-03	1.340059278e-01	-3.938235744e-04	7.418307325e-12
-6.500000000e-03	1.340059328e-01	-3.924627216e-04	1.041129458e-11
-6.600000000e-03	1.340059377e-01	-3.911018685e-04	1.420481248e-11
-6.700000000e-03	1.340059426e-01	-3.897410151e-04	8.526089517e-12
-6.800000000e-03	1.340059474e-01	-3.883801613e-04	1.156280387e-11
-6.900000000e-03	1.340059523e-01	-3.870193072e-04	1.294410392e-10
-7.000000000e-03	1.340059570e-01	-3.856584528e-04	1.221225768e-11
-7.100000000e-03	1.340059618e-01	-3.842975981e-04	1.321303524e-11
-7.200000000e-03	1.340059664e-01	-3.829367430e-04	6.822372849e-11
-7.300000000e-03	1.340059711e-01	-3.815758877e-04	1.006677132e-11
-7.400000000e-03	1.340059757e-01	-3.802150320e-04	1.239672950e-11
-7.500000000e-03	1.340059803e-01	-3.788541761e-04	3.526181906e-11
-7.600000000e-03	1.340059848e-01	-3.774933198e-04	1.141207887e-11
-7.700000000e-03	1.340059893e-01	-3.761324632e-04	1.200122878e-10
-7.800000000e-03	1.340059937e-01	-3.747716063e-04	9.261327265e-12
-7.900000000e-03	1.340059981e-01	-3.734107492e-04	1.399753939e-11
-8.000000000e-03	1.340060025e-01	-3.720498917e-04	9.164499405e-12
-8.100000000e-03	1.340060068e-01	-3.706890340e-04	1.130215302e-11
-8.200000000e-03	1.340060111e-01	-3.693281759e-04	7.477461503e-12
-8.300000000e-03	1.340060153e-01	-3.679673176e-04	1.039334721e-11
-8.400000000e-03	1.340060195e-01	-3.666064589e-04	8.160203145e-12
-8.500000000e-03	1.340060236e-01	-3.652456000e-04	1.698419172e-11
-8.600000000e-03	1.340060278e-01	-3.638847408e-04	1.226387083e-11
-8.700000000e-03	1.340060318e-01	-3.625238814e-04	2.143574963e-11
-8.800000000e-03	1.340060358e-01	-3.611630216e-04	6.669073905e-12
-8.900000000e-03	1.340060398e-01	-3.598021616e-04	2.441609276e-11
-9.000000000e-03	1.340060438e-01	-3.584413013e-04	9.161497169e-12
-9.100000000e-03	1.340060477e-01	-3.570804407e-04	1.394460732e-11
-9.200000000e-03	1.340060515e-01	-3.557195798e-04	1.041355709e-11
-9.300000000e-03	1.340060554e-01	-3.543587187e-04	2.124922026e-11
-9.400000000e-03	1.340060591e-01	-3.529978573e-04	1.164258939e-11
-9.500000000e-03	1.340060629e-01	-3.516369957e-04	2.031766466e-11
-9.600000000e-03	1.340060666e-01	-3.502761338e-04	1.267219406e-11
-9.700000000e-03	1.340060702e-01	-3.489152716e-04	1.033586877e-11
-9.800000000e-03	1.340060739e-01	-3.475544091e-04	1.354809325e-11
-9.900000000e-03	1.340060774e-01	-3.461935465e-04	6.112246938e-12
-1.000000000e-02	1.340060810e-01	-3.448326835e-04	1.182127291e-11
-1.010000000e-02	1.340060844e-01	-3.434718203e-04	3.632121548e-11
-1.020000000e-02	1.340060879e-01	-3.421109569e-04	1.525002512e-11
-1.030000000e-02	1.340060913e-01	-3.407500932e-04	1.388275313e-11
-1.040000000e-02	1.340060947e-01	-3.393892292e-04	1.215876742e-11
-1.050000000e-02	1.340060980e-01	-3.380283651e-04	5.718363268e-11
-1.060000000e-02	1.340061013e-01	-3.366675006e-04	1.346659167e-11
-1.070000000e-02	1.340061045e-01	-3.353066360e-04	1.135537098e-11
-1.080000000e-02	1.340061077e-01	-3.339457711e-04	2.007432800e-11
-1.090000000e-02	1.340061109e-01	-3.325849059e-04	6.688328018e-12
-1.100000000e-02	1.340061140e-01	-3.312240405e-04	1.655872181e-11
-1.110000000e-02	1.340061171e-01	-3.298631749e-04	1.034053591e-11
-1.120000000e-02	1.340061201e-01	-3.285023091e-04	1.154179205e-11
-1.130000000e-02	1.340061231e-01	-3.271414430e-04	7.472055908e-12
-1.140000000e-02	1.340061261e-01	-3.257805768e-04	2.072060450e-11
-1.150000000e-02	1.340061290e-01	-3.244197102e-04	1.345535124e-11
-1.160000000e-02	1.340061318e-01	-3.230588435e-04	3.984617038e-11
-1.170000000e-02	1.340061347e-01	-3.216979766e-04	1.233868034e-11
-1.180000000e-02	1.340061375e-01	-3.203371094e-04	7.454401746e-12
-1.190000000e-02	1.340061402e-01	-3.189762420e-04	2.159228984e-11
-1.200000000e-02	1.340061429e-01	-3.176153744e-04	2.951242180e-11
-1.210000000e-02	1.340061456e-01	-3.162545066e-04	1.943830492e-11
-1.220000000e-02	1.340061482e-01	-3.148936388e-04	6.406610555e-10
-1.230000000e-02	1.340061508e-01	-3.135327704e-04	5.467397435e-12
-1.240000000e-02	1.340061533e-01	-3.121719020e-04	1.908349711e-11
-1.250000000e-02	1.340061558e-01	-3.108110334e-04	4.981696126e-12
-1.260000000e-02	1.340061583e-01	-3.094501645e-04	2.664920889e-11
-1.270000000e-02	1.340061607e-01	-3.080892955e-04	1.178181093e-11
-1.280000000e-02	1.340061631e-01	-3.067284263e-04	1.178505468e-11
-1.290000000e-02	1.340061654e-01	-3.053675569e-04	1.346530729e-11
-1.300000000e-02	1.340061677e-01	-3.040066873e-04	1.095314096e-11
-1.310000000e-02	1.340061699e-01	-3.026458175e-04	2.800640952e-11
-1.320000000e-02	1.340061721e-01	-3.012849475e-04	1.796912469e-11
-1.330000000e-02	1.340061743e-01	-2.999240774e-04	2.726880028e-11
-1.340000000e-02	1.340061764e-01	-2.985632070e-04	1.524981289e-11
-1.350000000e-02	1.340061785e-01	-2.972023365e-04	3.005803166e-11
-1.360000000e-02	1.340061806e-01	-2.958414658e-04	1.445410382e-11
-1.370000000e-02	1.340061826e-01	-2.944805949e-04	1.770148252e-11
-1.380000000e-02	1.340061845e-01	-2.931197238e-04	6.049989986e-12
-1.390000000e-02	1.340061864e-01	-2.917588526e-04	1.814158476e-11
-1.400000000e-02	1.340061883e-01	-2.903979812e-04	1.677844383e-11
-1.410000000e-02	1.340061902e-01	-2.890371096e-04	8.445566647e-12
-1.420000000e-02	1.340061920e-01	-2.876762379e-04	1.029836751e-11
-1.430000000e-02	1.340061937e-01	-2.863153660e-04	1.130743988e-11
-1.440000000e-02	1.340061954e-01	-2.849544939e-04	7.224958366e-11
-1.450000000e-02	1.340061971e-01	-2.835936217e-04	2.303356339e-11
-1.460000000e-02	1.340061987e-01	-2.822327493e-04	2.310773168e-11
-1.470000000e-02	1.340062003e-01	-2.808718768e-04	2.495580869e-11
-1.480000000e-02	1.340062019e-01	-2.795110041e-04	1.922522986e-11
-1.490000000e-02	1.340062034e-01	-2.781501312e-04	1.288819892e-11
-1.500000000e-02	1.340062048e-01	-2.767892583e-04	2.452771466e-11
-1.510000000e-02	1.340062063e-01	-2.754283851e-04	1.579866600e-11
-1.520000000e-02	1.340062076e-01	-2.740675118e-04	9.548943904e-12
-1.530000000e-02	1.340062090e-01	-2.727066384e-04	8.435636113e-12
-1.540000000e-02	1.340062103e-01	-2.713457648e-04	8.933581458e-12
-1.550000000e-02	1.340062115e-01	-2.699848911e-04	4.741618630e-12
-1.560000000e-02	1.340062127e-01	-2.686240172e-04	8.135928098e-12
-1.570000000e-02	1.340062139e-01	-2.672631433e-04	1.640934437e-11
-1.580000000e-02	1.340062151e-01	-2.659022691e-04	7.708939354e-12
-1.590000000e-02	1.340062162e-01	-2.645413949e-04	1.653930010e-11
-1.600000000e-02	1.340062172e-01	-2.631805205e-04	5.144841985e-11
-1.610000000e-02	1.340062182e-01	-2.618196460e-04	1.379856270e-11
-1.620000000e-02	1.340062192e-01	-2.604587714e-04	8.064152019e-12
-1.630000000e-02	1.340062201e-01	-2.590978966e-04	1.049075983e-11
-1.640000000e-02	1.340062210e-01	-2.577370217e-04	2.450764645e-11
-1.650000000e-02	1.340062218e-01	-2.563761468e-04	7.764816426e-12
-1.660000000e-02	1.340062226e-01	-2.550152717e-04	3.749677978e-11
-1.670000000e-02	1.340062234e-01	-2.536543964e-04	2.092195898e-11
-1.680000000e-02	1.340062241e-01	-2.522935211e-04	2.196939283e-11
-1.690000000e-02	1.340062248e-01	-2.509326456e-04	1.490114182e-11
-1.700000000e-02	1.340062254e-01	-2.495717701e-04	1.049805815e-11
-1.710000000e-02	1.340062260e-01	-2.482108944e-04	7.076529302e-12
-1.720000000e-02	1.340062266e-01	-2.468500187e-04	1.455260619e-11
-1.730000000e-02	1.340062271e-01	-2.454891428e-04	1.504657317e-11
-1.740000000e-02	1.340062276e-01	-2.441282668e-04	7.104277145e-12
-1.750000000e-02	1.340062280e-01	-2.427673908e-04	1.189934444e-11
-1.760000000e-02	1.340062284e-01	-2.414065146e-04	7.732285122e-12
-1.770000000e-02	1.340062287e-01	-2.400456384e-04	7.706836204e-12
-1.780000000e-02	1.340062291e-01	-2.386847620e-04	7.024350449e-12
-1.790000000e-02	1.340062293e-01	-2.373238856e-04	1.515018146e-11
-1.800000000e-02	1.340062295e-01	-2.359630091e-04	5.268059182e-12
-1.810000000e-02	1.340062297e-01	-2.346021325e-04	6.557440581e-12
-1.820000000e-02	1.340062299e-01	-2.332412558e-04	1.016123123e-11
-1.830000000e-02	1.340062300e-01	-2.318803790e-04	1.538377058e-11
-1.840000000e-02	1.340062300e-01	-2.305195022e-04	1.720685339e-11
-1.850000000e-02	1.340062300e-01	-2.291586252e-04	1.281698063e-11
-1.860000000e-02	1.340062300e-01	-2.277977482e-04	4.884142869e-12
-1.870000000e-02	1.340062300e-01	-2.264368712e-04	1.123305113e-11
-1.880000000e-02	1.340062298e-01	-2.250759940e-04	1.001270816e-11
-1.890000000e-02	1.340062297e-01	-2.237151168e-04	1.154400674e-11
-1.900000000e-02	1.340062295e-01	-2.223542395e-04	1.119202831e-11
-1.910000000e-02	1.340062293e-01	-2.209933622e-04	1.756652115e-11
-1.920000000e-02	1.340062290e-01	-2.196324848e-04	7.402447492e-11
-1.930000000e-02	1.340062287e-01	-2.182716073e-04	9.070396871e-12
-1.940000000e-02	1.340062283e-01	-2.169107298e-04	1.043876677e-11
-1.950000000e-02	1.340062279e-01	-2.155498522e-04	1.155526615e-11
-1.960000000e-02	1.340062275e-01	-2.141889746e-04	1.233437948e-11
-1.970000000e-02	1.340062270e-01	-2.128280969e-04	8.695387558e-12
-1.980000000e-02	1.340062265e-01	-2.114672192e-04	9.967676128e-12
-1.990000000e-02	1.340062259e-01	-2.101063414e-04	1.087583279e-11
-2.000000000e-02	1.340062253e-01	-2.087454636e-04	1.320105206e-11
-2.010000000e-02	1.340062247e-01	-2.073845857e-04	6.747259398e-12
-2.020000000e-02	1.340062240e-01	-2.060237078e-04	8.077154695e-12
-2.030000000e-02	1.340062233e-01	-2.046628298e-04	1.247964852e-11
-2.040000000e-02	1.340062225e-01	-2.033019518e-04	1.588224081e-11
-2.050000000e-02	1.340062217e-01	-2.019410738e-04	1.048403555e-11
-2.060000000e-02	1.340062209e-01	-2.005801958e-04	1.621727819e-11
-2.070000000e-02	1.340062200e-01	-1.992193177e-04	1.327095414e-11
-2.080000000e-02	1.340062190e-01	-1.978584396e-04	1.217250789e-11
-2.090000000e-02	1.340062181e-01	-1.964975614e-04	1.502757703e-11
-2.100000000e-02	1.340062170e-01	-1.951366833e-04	1.304194367e-11
-2.110000000e-02	1.340062160e-01	-1.937758051e-04	4.101513286e-11
-2.120000000e-02	1.340062149e-01	-1.924149269e-04	2.935942139e-11
-2.130000000e-02	1.340062138e-01	-1.910540486e-04	8.507805923e-12
-2.140000000e-02	1.340062126e-01	-1.896931704e-04	9.480182660e-12
-2.150000000e-02	1.340062113e-01	-1.883322921e-04	1.679691105e-11
-2.160000000e-02	1.340062101e-01	-1.869714139e-04	2.926028643e-11
-2.170000000e-02	1.340062088e-01	-1.856105356e-04	6.252375564e-12
-2.180000000e-02	1.340062074e-01	-1.842496573e-04	1.688295238e-11
-2.190000000e-02	1.340062060e-01	-1.828887790e-04	2.127257184e-11
-2.200000000e-02	1.340062046e-01	-1.815279007e-04	2.749790819e-11
-2.210000000e-02	1.340062031e-01	-1.801670224e-04	1.292650976e-11
-2.220000000e-02	1.340062016e-01	-1.788061441e-04	4.215628915e-11
-2.230000000e-02	1.340062001e-01	-1.774452658e-04	1.922542889e-11
-2.240000000e-02	1.340061985e-01	-1.760843875e-04	6.896436078e-12
-2.250000000e-02	1.340061968e-01	-1.747235092e-04	7.664699474e-12
-2.260000000e-02	1.340061952e-01	-1.733626310e-04	6.072955576e-12
-2.270000000e-02	1.340061934e-01	-1.720017527e-04	1.663730654e-11
-2.280000000e-02	1.340061917e-01	-1.706408744e-04	6.625883167e-12
-2.290000000e-02	1.340061899e-01	-1.692799962e-04	1.429052798e-11
-2.300000000e-02	1.340061880e-01	-1.679191180e-04	2.086243247e-11
-2.310000000e-02	1.340061862e-01	-1.665582398e-04	1.531893558e-11
-2.320000000e-02	1.340061842e-01	-1.651973616e-04	1.603878465e-10
-2.330000000e-02	1.340061823e-01	-1.638364835e-04	9.552092692e-12
-2.340000000e-02	1.340061803e-01	-1.624756053e-04	7.885807805e-12
-2.350000000e-02	1.340061782e-01	-1.611147272e-04	6.401934743e-12
-2.360000000e-02	1.340061761e-01	-1.597538492e-04	2.725645381e-11
-2.370000000e-02	1.340061740e-01	-1.583929711e-04	1.249918252e-11
-2.380000000e-02	1.340061718e-01	-1.570320931e-04	3.766758887e-11
-2.390000000e-02	1.340061696e-01	-1.556712151e-04	5.809431268e-11
-2.400000000e-02	1.340061673e-01	-1.543103372e-04	8.639956124e-12
-2.410000000e-02	1.340061650e-01	-1.529494593e-04	1.244065393e-11
-2.420000000e-02	1.340061627e-01	-1.515885815e-04	1.431214276e-11
-2.430000000e-02	1.340061603e-01	-1.502277037e-04	3.551666086e-11
-2.440000000e-02	1.340061579e-01	-1.488668259e-04	1.533549735e-11
-2.450000000e-02	1.340061554e-01	-1.475059482e-04	5.384549048e-12
-2.460000000e-02	1.340061529e-01	-1.461450705e-04	1.719674862e-11
-2.470000000e-02	1.340061504e-01	-1.447841929e-04	1.670614548e-11
-2.480000000e-02	1.340061478e-01	-1.434233154e-04	9.226489133e-12
-2.490000000e-02	1.340061452e-01	-1.420624379e-04	1.931721363e-11
-2.500000000e-02	1.340061425e-01	-1.407015604e-04	3.416423155e-11
-2.510000000e-02	1.340061398e-01	-1.393406831e-04	7.162536011e-12
-2.520000000e-02	1.340061370e-01	-1.379798057e-04	8.818801149e-12
-2.530000000e-02	1.340061342e-01	-1.366189285e-04	1.547566680e-11
-2.540000000e-02	1.340061314e-01	-1.352580513e-04	1.123185521e-11
-2.550000000e-02	1.340061285e-01	-1.338971742e-04	9.606370024e-12
-2.560000000e-02	1.340061256e-01	-1.325362972e-04	9.494598085e-12
-2.570000000e-02	1.340061227e-01	-1.311754202e-04	2.461697593e-11
-2.580000000e-02	1.340061197e-01	-1.298145433e-04	1.613208602e-11
-2.590000000e-02	1.340061166e-01	-1.284536665e-04	1.099101337e-11
-2.600000000e-02	1.340061135e-01	-1.270927898e-04	7.333597674e-12
-2.610000000e-02	1.340061104e-01	-1.257319131e-04	2.123017021e-10
-2.620000000e-02	1.340061072e-01	-1.243710365e-04	1.068523574e-10
-2.630000000e-02	1.340061040e-01	-1.230101601e-04	1.029911833e-11
-2.640000000e-02	1.340061008e-01	-1.216492837e-04	7.477337614e-12
-2.650000000e-02	1.340060975e-01	-1.202884074e-04	8.042842116e-12
-2.660000000e-02	1.340060942e-01	-1.189275312e-04	1.428318938e-11
-2.670000000e-02	1.340060908e-01	-1.175666550e-04	2.083836369e-11
-2.680000000e-02	1.340060874e-01	-1.162057790e-04	1.509306336e-11
-2.690000000e-02	1.340060839e-01	-1.148449031e-04	5.454301735e-11
-2.700000000e-02	1.340060804e-01	-1.134840273e-04	1.343946558e-11
-2.710000000e-02	1.340060769e-01	-1.121231516e-04	1.462870785e-11
-2.720000000e-02	1.340060733e-01	-1.107622760e-04	1.833157867e-11
-2.730000000e-02	1.340060697e-01	-1.094014004e-04	1.051352695e-11
-2.740000000e-02	1.340060660e-01	-1.080405250e-04	1.971803339e-11
-2.750000000e-02	1.340060623e-01	-1.066796498e-04	1.586942292e-11
-2.760000000e-02	1.340060586e-01	-1.053187746e-04	1.211448612e-11
-2.770000000e-02	1.340060548e-01	-1.039578995e-04	9.511848837e-12
-2.780000000e-02	1.340060510e-01	-1.025970246e-04	4.853887757e-12
-2.790000000e-02	1.340060471e-01	-1.012361498e-04	1.034926865e-11
-2.800000000e-02	1.340060432e-01	-9.987527508e-05	1.725748070e-11
-2.810000000e-02	1.340060392e-01	-9.851440050e-05	1.048838754e-11
-2.820000000e-02	1.340060352e-01	-9.715352606e-05	4.624151689e-11
-2.830000000e-02	1.340060312e-01	-9.579265173e-05	2.066776366e-11
-2.840000000e-02	1.340060271e-01	-9.443177755e-05	1.026364308e-11
-2.850000000e-02	1.340060230e-01	-9.307090349e-05	1.542816409e-11
-2.860000000e-02	1.340060189e-01	-9.171002956e-05	8.915875198e-12
-2.870000000e-02	1.340060147e-01	-9.034915577e-05	1.071433477e-11
-2.880000000e-02	1.340060104e-01	-8.898828212e-05	1.349063794e-11
-2.890000000e-02	1.340060061e-01	-8.762740861e-05	1.582492849e-11
-2.900000000e-02	1.340060018e-01	-8.626653525e-05	2.349354040e-11
-2.910000000e-02	1.340059975e-01	-8.490566201e-05	1.050761530e-11
-2.920000000e-02	1.340059930e-01	-8.354478894e-05	1.688362199e-11
-2.930000000e-02	1.340059886e-01	-8.218391601e-05	1.208836052e-11
-2.940000000e-02	1.340059841e-01	-8.082304325e-05	4.869163680e-11
-2.950000000e-02	1.340059796e-01	-7.946217061e-05	1.020898971e-11
-2.960000000e-02	1.340059750e-01	-7.810129814e-05	1.847481607e-11
-2.970000000e-02	1.340059704e-01	-7.674042583e-05	1.448812194e-11
-2.980000000e-02	1.340059657e-01	-7.537955367e-05	9.636220671e-12
-2.990000000e-02	1.340059610e-01	-7.401868169e-05	1.294727838e-11
-3.000000000e-02	1.340059563e-01	-7.265780986e-05	1.685368390e-11
