# Im(epsi1)     Re(omega/c)      Im(omega/c)      Eq(det).Opt det CON kz, R=0.5 \mum, mu_c=0.3, Re(epsi1)=3.90solve_det_conkz_vs_kz.py
0.000000000e+00	1.340054529e-01	-4.807476751e-04	1.812543303e-11
-1.000000000e-04	1.340054605e-01	-4.793868425e-04	2.409705355e-11
-2.000000000e-04	1.340054680e-01	-4.780260094e-04	1.116669678e-11
-3.000000000e-04	1.340054756e-01	-4.766651759e-04	8.559522510e-12
-4.000000000e-04	1.340054831e-01	-4.753043420e-04	8.017602451e-12
-5.000000000e-04	1.340054905e-01	-4.739435076e-04	1.048265986e-11
-6.000000000e-04	1.340054979e-01	-4.725826728e-04	4.525451155e-11
-7.000000000e-04	1.340055053e-01	-4.712218374e-04	2.341319868e-11
-8.000000000e-04	1.340055126e-01	-4.698610017e-04	2.427142720e-11
-9.000000000e-04	1.340055199e-01	-4.685001655e-04	3.082593590e-11
-1.000000000e-03	1.340055272e-01	-4.671393289e-04	1.575257429e-11
-1.100000000e-03	1.340055344e-01	-4.657784918e-04	1.268459743e-11
-1.200000000e-03	1.340055416e-01	-4.644176543e-04	1.121532409e-11
-1.300000000e-03	1.340055487e-01	-4.630568163e-04	6.225806542e-12
-1.400000000e-03	1.340055558e-01	-4.616959780e-04	1.225672077e-11
-1.500000000e-03	1.340055628e-01	-4.603351392e-04	3.183624957e-11
-1.600000000e-03	1.340055698e-01	-4.589742999e-04	5.645309082e-12
-1.700000000e-03	1.340055768e-01	-4.576134603e-04	1.456301098e-11
-1.800000000e-03	1.340055837e-01	-4.562526202e-04	8.832713233e-12
-1.900000000e-03	1.340055905e-01	-4.548917797e-04	8.781744886e-12
-2.000000000e-03	1.340055974e-01	-4.535309387e-04	7.783884083e-12
-2.100000000e-03	1.340056042e-01	-4.521700974e-04	8.462481621e-12
-2.200000000e-03	1.340056109e-01	-4.508092556e-04	6.109547664e-12
-2.300000000e-03	1.340056176e-01	-4.494484134e-04	1.162414583e-11
-2.400000000e-03	1.340056243e-01	-4.480875708e-04	7.349425259e-12
-2.500000000e-03	1.340056309e-01	-4.467267278e-04	1.780727912e-11
-2.600000000e-03	1.340056375e-01	-4.453658844e-04	8.323399580e-12
-2.700000000e-03	1.340056441e-01	-4.440050405e-04	5.201942291e-11
-2.800000000e-03	1.340056506e-01	-4.426441963e-04	6.032785528e-12
-2.900000000e-03	1.340056570e-01	-4.412833517e-04	2.168492997e-11
-3.000000000e-03	1.340056634e-01	-4.399225067e-04	1.548791834e-11
-3.100000000e-03	1.340056698e-01	-4.385616612e-04	1.705630930e-11
-3.200000000e-03	1.340056762e-01	-4.372008154e-04	1.190961085e-11
-3.300000000e-03	1.340056825e-01	-4.358399692e-04	1.945544567e-11
-3.400000000e-03	1.340056887e-01	-4.344791226e-04	1.249190422e-11
-3.500000000e-03	1.340056949e-01	-4.331182756e-04	1.615747687e-11
-3.600000000e-03	1.340057011e-01	-4.317574282e-04	9.284813673e-12
-3.700000000e-03	1.340057072e-01	-4.303965804e-04	7.137696615e-11
-3.800000000e-03	1.340057133e-01	-4.290357323e-04	7.742472560e-12
-3.900000000e-03	1.340057194e-01	-4.276748837e-04	8.849415187e-12
-4.000000000e-03	1.340057254e-01	-4.263140348e-04	7.810450636e-12
-4.100000000e-03	1.340057313e-01	-4.249531855e-04	2.164040034e-11
-4.200000000e-03	1.340057373e-01	-4.235923358e-04	1.320582060e-11
-4.300000000e-03	1.340057431e-01	-4.222314858e-04	2.815745162e-11
-4.400000000e-03	1.340057490e-01	-4.208706354e-04	1.838764673e-11
-4.500000000e-03	1.340057548e-01	-4.195097846e-04	1.196064665e-11
-4.600000000e-03	1.340057605e-01	-4.181489335e-04	1.087840508e-11
-4.700000000e-03	1.340057663e-01	-4.167880820e-04	1.378104225e-11
-4.800000000e-03	1.340057719e-01	-4.154272301e-04	7.180687438e-12
-4.900000000e-03	1.340057776e-01	-4.140663778e-04	1.707309374e-11
-5.000000000e-03	1.340057832e-01	-4.127055252e-04	8.542117299e-12
-5.100000000e-03	1.340057887e-01	-4.113446723e-04	2.640135139e-11
-5.200000000e-03	1.340057942e-01	-4.099838190e-04	2.588959184e-11
-5.300000000e-03	1.340057997e-01	-4.086229653e-04	1.720718558e-11
-5.400000000e-03	1.340058051e-01	-4.072621113e-04	1.882181439e-11
-5.500000000e-03	1.340058105e-01	-4.059012570e-04	1.311315420e-11
-5.600000000e-03	1.340058159e-01	-4.045404023e-04	1.443656856e-11
-5.700000000e-03	1.340058212e-01	-4.031795472e-04	2.213758816e-11
-5.800000000e-03	1.340058264e-01	-4.018186918e-04	1.240462414e-11
-5.900000000e-03	1.340058316e-01	-4.004578361e-04	6.114015753e-12
-6.000000000e-03	1.340058368e-01	-3.990969801e-04	7.479364658e-12
-6.100000000e-03	1.340058420e-01	-3.977361237e-04	7.439237942e-12
-6.200000000e-03	1.340058471e-01	-3.963752669e-04	1.580492769e-11
-6.300000000e-03	1.340058521e-01	-3.950144099e-04	7.678075036e-12
-6.400000000e-03	1.340058571e-01	-3.936535525e-04	6.212774759e-12
-6.500000000e-03	1.340058621e-01	-3.922926948e-04	9.373806967e-12
-6.600000000e-03	1.340058670e-01	-3.909318367e-04	1.270509821e-11
-6.700000000e-03	1.340058719e-01	-3.895709783e-04	2.390415258e-11
-6.800000000e-03	1.340058768e-01	-3.882101196e-04	2.759473724e-11
-6.900000000e-03	1.340058816e-01	-3.868492606e-04	3.197622149e-11
-7.000000000e-03	1.340058864e-01	-3.854884013e-04	1.508436531e-11
-7.100000000e-03	1.340058911e-01	-3.841275417e-04	3.364713314e-11
-7.200000000e-03	1.340058958e-01	-3.827666817e-04	6.894354075e-12
-7.300000000e-03	1.340059004e-01	-3.814058215e-04	2.077686432e-11
-7.400000000e-03	1.340059050e-01	-3.800449609e-04	1.082809436e-11
-7.500000000e-03	1.340059096e-01	-3.786841000e-04	6.142452514e-12
-7.600000000e-03	1.340059141e-01	-3.773232389e-04	1.192633870e-10
-7.700000000e-03	1.340059186e-01	-3.759623774e-04	2.072435802e-11
-7.800000000e-03	1.340059230e-01	-3.746015156e-04	2.051905809e-11
-7.900000000e-03	1.340059274e-01	-3.732406535e-04	2.868346330e-11
-8.000000000e-03	1.340059318e-01	-3.718797911e-04	1.412779312e-11
-8.100000000e-03	1.340059361e-01	-3.705189285e-04	1.222647856e-11
-8.200000000e-03	1.340059403e-01	-3.691580655e-04	2.389286024e-11
-8.300000000e-03	1.340059446e-01	-3.677972023e-04	7.475607240e-12
-8.400000000e-03	1.340059487e-01	-3.664363387e-04	5.658437595e-11
-8.500000000e-03	1.340059529e-01	-3.650754749e-04	8.751295350e-11
-8.600000000e-03	1.340059570e-01	-3.637146108e-04	8.309123740e-12
-8.700000000e-03	1.340059611e-01	-3.623537464e-04	1.163707902e-11
-8.800000000e-03	1.340059651e-01	-3.609928817e-04	1.450129382e-11
-8.900000000e-03	1.340059691e-01	-3.596320168e-04	1.159249841e-11
-9.000000000e-03	1.340059730e-01	-3.582711516e-04	1.283123277e-11
-9.100000000e-03	1.340059769e-01	-3.569102861e-04	2.975634357e-11
-9.200000000e-03	1.340059808e-01	-3.555494203e-04	4.146142542e-11
-9.300000000e-03	1.340059846e-01	-3.541885543e-04	1.051117478e-11
-9.400000000e-03	1.340059884e-01	-3.528276880e-04	1.427464525e-11
-9.500000000e-03	1.340059921e-01	-3.514668215e-04	9.008917521e-12
-9.600000000e-03	1.340059958e-01	-3.501059546e-04	1.654026785e-11
-9.700000000e-03	1.340059994e-01	-3.487450876e-04	2.021127578e-11
-9.800000000e-03	1.340060030e-01	-3.473842202e-04	1.202679635e-11
-9.900000000e-03	1.340060066e-01	-3.460233526e-04	1.170951629e-11
-1.000000000e-02	1.340060101e-01	-3.446624848e-04	1.238112662e-11
-1.010000000e-02	1.340060136e-01	-3.433016167e-04	1.280180227e-11
-1.020000000e-02	1.340060171e-01	-3.419407483e-04	4.966100256e-12
-1.030000000e-02	1.340060205e-01	-3.405798797e-04	9.494442631e-12
-1.040000000e-02	1.340060238e-01	-3.392190109e-04	6.009574261e-12
-1.050000000e-02	1.340060271e-01	-3.378581418e-04	1.687113246e-11
-1.060000000e-02	1.340060304e-01	-3.364972724e-04	1.944241707e-11
-1.070000000e-02	1.340060337e-01	-3.351364029e-04	9.160942196e-12
-1.080000000e-02	1.340060369e-01	-3.337755331e-04	5.594127334e-12
-1.090000000e-02	1.340060400e-01	-3.324146630e-04	1.179527489e-11
-1.100000000e-02	1.340060431e-01	-3.310537927e-04	8.615098612e-12
-1.110000000e-02	1.340060462e-01	-3.296929222e-04	1.380014960e-11
-1.120000000e-02	1.340060492e-01	-3.283320515e-04	1.142060284e-11
-1.130000000e-02	1.340060522e-01	-3.269711805e-04	1.107175916e-11
-1.140000000e-02	1.340060552e-01	-3.256103093e-04	2.691796480e-11
-1.150000000e-02	1.340060581e-01	-3.242494379e-04	1.582948723e-11
-1.160000000e-02	1.340060609e-01	-3.228885663e-04	1.043771535e-11
-1.170000000e-02	1.340060638e-01	-3.215276945e-04	1.202553079e-11
-1.180000000e-02	1.340060665e-01	-3.201668224e-04	1.212699729e-11
-1.190000000e-02	1.340060693e-01	-3.188059501e-04	1.837318676e-11
-1.200000000e-02	1.340060720e-01	-3.174450776e-04	1.411200573e-11
-1.210000000e-02	1.340060746e-01	-3.160842049e-04	8.819824806e-12
-1.220000000e-02	1.340060773e-01	-3.147233320e-04	8.041667225e-12
-1.230000000e-02	1.340060798e-01	-3.133624589e-04	9.251277532e-12
-1.240000000e-02	1.340060824e-01	-3.120015856e-04	9.350789623e-12
-1.250000000e-02	1.340060849e-01	-3.106407121e-04	1.488615927e-11
-1.260000000e-02	1.340060873e-01	-3.092798383e-04	1.724283682e-11
-1.270000000e-02	1.340060897e-01	-3.079189644e-04	1.401778955e-11
-1.280000000e-02	1.340060921e-01	-3.065580903e-04	1.196421666e-11
-1.290000000e-02	1.340060944e-01	-3.051972160e-04	6.714883330e-12
-1.300000000e-02	1.340060967e-01	-3.038363415e-04	1.468620248e-11
-1.310000000e-02	1.340060989e-01	-3.024754668e-04	1.810105915e-11
-1.320000000e-02	1.340061012e-01	-3.011145919e-04	1.365145939e-11
-1.330000000e-02	1.340061033e-01	-2.997537169e-04	1.179575903e-11
-1.340000000e-02	1.340061054e-01	-2.983928416e-04	1.517832869e-11
-1.350000000e-02	1.340061075e-01	-2.970319662e-04	1.067440558e-11
-1.360000000e-02	1.340061096e-01	-2.956710906e-04	5.142126251e-11
-1.370000000e-02	1.340061115e-01	-2.943102148e-04	5.647388097e-11
-1.380000000e-02	1.340061135e-01	-2.929493389e-04	1.069695644e-11
-1.390000000e-02	1.340061154e-01	-2.915884627e-04	7.756710509e-12
-1.400000000e-02	1.340061173e-01	-2.902275864e-04	7.373550129e-12
-1.410000000e-02	1.340061191e-01	-2.888667100e-04	1.799840877e-11
-1.420000000e-02	1.340061209e-01	-2.875058333e-04	1.418063352e-11
-1.430000000e-02	1.340061227e-01	-2.861449566e-04	2.000240483e-11
-1.440000000e-02	1.340061244e-01	-2.847840796e-04	7.531286209e-12
-1.450000000e-02	1.340061260e-01	-2.834232025e-04	9.227344664e-12
-1.460000000e-02	1.340061277e-01	-2.820623252e-04	1.525263011e-11
-1.470000000e-02	1.340061292e-01	-2.807014478e-04	2.652716135e-11
-1.480000000e-02	1.340061308e-01	-2.793405702e-04	4.700102114e-12
-1.490000000e-02	1.340061323e-01	-2.779796924e-04	1.309686232e-11
-1.500000000e-02	1.340061337e-01	-2.766188145e-04	1.179343215e-11
-1.510000000e-02	1.340061352e-01	-2.752579365e-04	3.831228454e-11
-1.520000000e-02	1.340061365e-01	-2.738970583e-04	2.000311015e-11
-1.530000000e-02	1.340061379e-01	-2.725361800e-04	1.442876434e-11
-1.540000000e-02	1.340061392e-01	-2.711753015e-04	1.832856013e-11
-1.550000000e-02	1.340061404e-01	-2.698144229e-04	1.022277402e-11
-1.560000000e-02	1.340061416e-01	-2.684535442e-04	9.021085784e-12
-1.570000000e-02	1.340061428e-01	-2.670926653e-04	8.375894085e-12
-1.580000000e-02	1.340061439e-01	-2.657317863e-04	1.839628603e-11
-1.590000000e-02	1.340061450e-01	-2.643709072e-04	1.929825010e-11
-1.600000000e-02	1.340061461e-01	-2.630100279e-04	5.986869565e-12
-1.610000000e-02	1.340061471e-01	-2.616491485e-04	2.464268551e-11
-1.620000000e-02	1.340061480e-01	-2.602882690e-04	1.528522531e-11
-1.630000000e-02	1.340061490e-01	-2.589273893e-04	9.409706468e-12
-1.640000000e-02	1.340061498e-01	-2.575665096e-04	1.036190389e-11
-1.650000000e-02	1.340061507e-01	-2.562056297e-04	1.500664297e-10
-1.660000000e-02	1.340061515e-01	-2.548447497e-04	8.718154766e-12
-1.670000000e-02	1.340061522e-01	-2.534838696e-04	1.105627311e-11
-1.680000000e-02	1.340061529e-01	-2.521229894e-04	1.050903554e-11
-1.690000000e-02	1.340061536e-01	-2.507621090e-04	6.717134811e-11
-1.700000000e-02	1.340061542e-01	-2.494012286e-04	1.198543431e-11
-1.710000000e-02	1.340061548e-01	-2.480403481e-04	2.725495899e-11
-1.720000000e-02	1.340061554e-01	-2.466794674e-04	1.660372356e-11
-1.730000000e-02	1.340061559e-01	-2.453185866e-04	2.552490955e-11
-1.740000000e-02	1.340061564e-01	-2.439577058e-04	6.981315319e-12
-1.750000000e-02	1.340061568e-01	-2.425968249e-04	6.516626300e-11
-1.760000000e-02	1.340061572e-01	-2.412359438e-04	1.502943964e-11
-1.770000000e-02	1.340061575e-01	-2.398750627e-04	1.126438611e-11
-1.780000000e-02	1.340061578e-01	-2.385141814e-04	1.431912036e-11
-1.790000000e-02	1.340061581e-01	-2.371533001e-04	9.675420049e-12
-1.800000000e-02	1.340061583e-01	-2.357924187e-04	1.017272102e-10
-1.810000000e-02	1.340061585e-01	-2.344315373e-04	5.907135601e-10
-1.820000000e-02	1.340061586e-01	-2.330706557e-04	2.086960952e-11
-1.830000000e-02	1.340061587e-01	-2.317097740e-04	1.158277772e-11
-1.840000000e-02	1.340061588e-01	-2.303488923e-04	1.197400015e-11
-1.850000000e-02	1.340061588e-01	-2.289880105e-04	1.617835309e-11
-1.860000000e-02	1.340061587e-01	-2.276271286e-04	1.256261844e-11
-1.870000000e-02	1.340061587e-01	-2.262662466e-04	3.121706215e-11
-1.880000000e-02	1.340061586e-01	-2.249053646e-04	6.558668616e-11
-1.890000000e-02	1.340061584e-01	-2.235444825e-04	3.240952889e-11
-1.900000000e-02	1.340061582e-01	-2.221836003e-04	2.218949812e-10
-1.910000000e-02	1.340061580e-01	-2.208227181e-04	1.098355784e-11
-1.920000000e-02	1.340061577e-01	-2.194618358e-04	1.641738182e-11
-1.930000000e-02	1.340061574e-01	-2.181009535e-04	7.254954910e-12
-1.940000000e-02	1.340061570e-01	-2.167400711e-04	2.656489954e-11
-1.950000000e-02	1.340061566e-01	-2.153791886e-04	9.986964134e-12
-1.960000000e-02	1.340061562e-01	-2.140183061e-04	1.399499051e-11
-1.970000000e-02	1.340061557e-01	-2.126574236e-04	7.473745536e-12
-1.980000000e-02	1.340061552e-01	-2.112965409e-04	4.731822232e-11
-1.990000000e-02	1.340061546e-01	-2.099356583e-04	1.145713325e-11
-2.000000000e-02	1.340061540e-01	-2.085747756e-04	9.530612726e-12
-2.010000000e-02	1.340061534e-01	-2.072138928e-04	6.590043166e-12
-2.020000000e-02	1.340061527e-01	-2.058530100e-04	9.510564406e-12
-2.030000000e-02	1.340061519e-01	-2.044921272e-04	2.377786181e-11
-2.040000000e-02	1.340061512e-01	-2.031312444e-04	1.046988867e-11
-2.050000000e-02	1.340061503e-01	-2.017703614e-04	1.349430623e-11
-2.060000000e-02	1.340061495e-01	-2.004094785e-04	1.973145208e-11
-2.070000000e-02	1.340061486e-01	-1.990485956e-04	7.533784912e-12
-2.080000000e-02	1.340061476e-01	-1.976877126e-04	1.455487261e-11
-2.090000000e-02	1.340061467e-01	-1.963268295e-04	1.350857015e-11
-2.100000000e-02	1.340061456e-01	-1.949659465e-04	1.247096089e-11
-2.110000000e-02	1.340061446e-01	-1.936050634e-04	5.887536956e-12
-2.120000000e-02	1.340061435e-01	-1.922441804e-04	8.999956523e-12
-2.130000000e-02	1.340061423e-01	-1.908832973e-04	1.402181513e-11
-2.140000000e-02	1.340061411e-01	-1.895224141e-04	1.382008108e-11
-2.150000000e-02	1.340061399e-01	-1.881615310e-04	1.699525902e-11
-2.160000000e-02	1.340061387e-01	-1.868006479e-04	1.347462774e-11
-2.170000000e-02	1.340061373e-01	-1.854397647e-04	1.649802653e-11
-2.180000000e-02	1.340061360e-01	-1.840788815e-04	1.488985065e-11
-2.190000000e-02	1.340061346e-01	-1.827179984e-04	1.606008102e-11
-2.200000000e-02	1.340061332e-01	-1.813571152e-04	2.007481680e-11
-2.210000000e-02	1.340061317e-01	-1.799962320e-04	4.095831389e-11
-2.220000000e-02	1.340061302e-01	-1.786353489e-04	2.852407166e-11
-2.230000000e-02	1.340061286e-01	-1.772744657e-04	4.130847068e-11
-2.240000000e-02	1.340061270e-01	-1.759135825e-04	1.360739786e-11
-2.250000000e-02	1.340061254e-01	-1.745526994e-04	6.624611492e-12
-2.260000000e-02	1.340061237e-01	-1.731918162e-04	1.106130543e-11
-2.270000000e-02	1.340061220e-01	-1.718309331e-04	1.248440852e-11
-2.280000000e-02	1.340061202e-01	-1.704700500e-04	1.115211081e-11
-2.290000000e-02	1.340061184e-01	-1.691091669e-04	1.240734656e-11
-2.300000000e-02	1.340061165e-01	-1.677482838e-04	3.877089427e-11
-2.310000000e-02	1.340061147e-01	-1.663874007e-04	2.977103136e-11
-2.320000000e-02	1.340061127e-01	-1.650265176e-04	7.072612700e-12
-2.330000000e-02	1.340061107e-01	-1.636656346e-04	7.182606138e-12
-2.340000000e-02	1.340061087e-01	-1.623047516e-04	3.544169419e-11
-2.350000000e-02	1.340061067e-01	-1.609438687e-04	2.332993675e-11
-2.360000000e-02	1.340061046e-01	-1.595829857e-04	2.523289092e-11
-2.370000000e-02	1.340061024e-01	-1.582221028e-04	1.229801472e-11
-2.380000000e-02	1.340061003e-01	-1.568612199e-04	1.224422751e-11
-2.390000000e-02	1.340060980e-01	-1.555003371e-04	2.941356588e-11
-2.400000000e-02	1.340060958e-01	-1.541394543e-04	8.306484197e-12
-2.410000000e-02	1.340060935e-01	-1.527785715e-04	8.994923530e-12
-2.420000000e-02	1.340060911e-01	-1.514176888e-04	3.122240943e-11
-2.430000000e-02	1.340060888e-01	-1.500568061e-04	5.112891573e-12
-2.440000000e-02	1.340060863e-01	-1.486959235e-04	8.276348203e-12
-2.450000000e-02	1.340060839e-01	-1.473350409e-04	7.991510478e-12
-2.460000000e-02	1.340060813e-01	-1.459741584e-04	1.317970105e-11
-2.470000000e-02	1.340060788e-01	-1.446132759e-04	2.797103395e-11
-2.480000000e-02	1.340060762e-01	-1.432523935e-04	1.817182224e-11
-2.490000000e-02	1.340060736e-01	-1.418915111e-04	9.904564655e-12
-2.500000000e-02	1.340060709e-01	-1.405306288e-04	8.421933198e-12
-2.510000000e-02	1.340060682e-01	-1.391697466e-04	3.807922091e-11
-2.520000000e-02	1.340060654e-01	-1.378088644e-04	1.801380010e-11
-2.530000000e-02	1.340060626e-01	-1.364479823e-04	1.096183012e-11
-2.540000000e-02	1.340060598e-01	-1.350871003e-04	1.188560926e-11
-2.550000000e-02	1.340060569e-01	-1.337262183e-04	1.104986105e-11
-2.560000000e-02	1.340060540e-01	-1.323653364e-04	1.033582747e-11
-2.570000000e-02	1.340060510e-01	-1.310044546e-04	5.594746710e-12
-2.580000000e-02	1.340060480e-01	-1.296435728e-04	6.953086927e-12
-2.590000000e-02	1.340060450e-01	-1.282826911e-04	3.091591702e-11
-2.600000000e-02	1.340060419e-01	-1.269218095e-04	1.865152273e-11
-2.610000000e-02	1.340060387e-01	-1.255609280e-04	1.175935383e-11
-2.620000000e-02	1.340060356e-01	-1.242000466e-04	1.093960161e-11
-2.630000000e-02	1.340060324e-01	-1.228391652e-04	9.046478927e-12
-2.640000000e-02	1.340060291e-01	-1.214782840e-04	4.168063916e-11
-2.650000000e-02	1.340060258e-01	-1.201174028e-04	3.152869030e-11
-2.660000000e-02	1.340060225e-01	-1.187565217e-04	5.700274288e-12
-2.670000000e-02	1.340060191e-01	-1.173956408e-04	1.883948612e-11
-2.680000000e-02	1.340060157e-01	-1.160347599e-04	1.106991305e-11
-2.690000000e-02	1.340060122e-01	-1.146738791e-04	1.289172100e-11
-2.700000000e-02	1.340060087e-01	-1.133129984e-04	1.158203220e-11
-2.710000000e-02	1.340060052e-01	-1.119521178e-04	3.166138114e-11
-2.720000000e-02	1.340060016e-01	-1.105912374e-04	1.051104169e-11
-2.730000000e-02	1.340059980e-01	-1.092303570e-04	8.386778052e-12
-2.740000000e-02	1.340059943e-01	-1.078694768e-04	1.746795968e-11
-2.750000000e-02	1.340059906e-01	-1.065085966e-04	9.289139108e-12
-2.760000000e-02	1.340059868e-01	-1.051477166e-04	9.581160779e-12
-2.770000000e-02	1.340059830e-01	-1.037868366e-04	9.212356560e-11
-2.780000000e-02	1.340059792e-01	-1.024259569e-04	1.089097748e-11
-2.790000000e-02	1.340059753e-01	-1.010650772e-04	9.649569665e-12
-2.800000000e-02	1.340059714e-01	-9.970419764e-05	2.186700623e-11
-2.810000000e-02	1.340059675e-01	-9.834331820e-05	9.431245420e-12
-2.820000000e-02	1.340059635e-01	-9.698243889e-05	6.099420581e-12
-2.830000000e-02	1.340059594e-01	-9.562155971e-05	8.797840446e-11
-2.840000000e-02	1.340059553e-01	-9.426068067e-05	9.153016989e-12
-2.850000000e-02	1.340059512e-01	-9.289980173e-05	9.369667903e-11
-2.860000000e-02	1.340059471e-01	-9.153892297e-05	8.815579497e-12
-2.870000000e-02	1.340059429e-01	-9.017804433e-05	7.920513845e-12
-2.880000000e-02	1.340059386e-01	-8.881716581e-05	4.020978013e-11
-2.890000000e-02	1.340059343e-01	-8.745628746e-05	1.507811365e-11
-2.900000000e-02	1.340059300e-01	-8.609540923e-05	1.910451035e-11
-2.910000000e-02	1.340059256e-01	-8.473453115e-05	1.974862890e-11
-2.920000000e-02	1.340059212e-01	-8.337365322e-05	1.241304063e-11
-2.930000000e-02	1.340059168e-01	-8.201277544e-05	6.302642621e-12
-2.940000000e-02	1.340059123e-01	-8.065189782e-05	2.617309785e-11
-2.950000000e-02	1.340059077e-01	-7.929102033e-05	1.873666795e-11
-2.960000000e-02	1.340059032e-01	-7.793014301e-05	9.843168516e-12
-2.970000000e-02	1.340058985e-01	-7.656926585e-05	1.741220809e-11
-2.980000000e-02	1.340058939e-01	-7.520838884e-05	8.530219817e-12
-2.990000000e-02	1.340058892e-01	-7.384751200e-05	7.610483676e-12
-3.000000000e-02	1.340058844e-01	-7.248663531e-05	1.845739335e-11
