# Im(epsi1)     Re(omega/c)      Im(omega/c)      Eq(det).Opt det CON kz, R=0.5 \mum, mu_c=0.3, Re(epsi1)=3.90solve_det_conkz_vs_kz.py
0.000000000e+00	1.340121013e-01	-5.073751674e-04	2.261002800e-11
-1.000000000e-04	1.340121097e-01	-5.060151318e-04	1.959131222e-11
-2.000000000e-04	1.340121181e-01	-5.046550956e-04	8.994339957e-12
-3.000000000e-04	1.340121265e-01	-5.032950590e-04	6.253250174e-12
-4.000000000e-04	1.340121348e-01	-5.019350218e-04	7.089295974e-12
-5.000000000e-04	1.340121431e-01	-5.005749842e-04	1.446153028e-11
-6.000000000e-04	1.340121513e-01	-4.992149461e-04	1.552808507e-11
-7.000000000e-04	1.340121595e-01	-4.978549075e-04	7.779610072e-12
-8.000000000e-04	1.340121676e-01	-4.964948684e-04	3.263668115e-11
-9.000000000e-04	1.340121757e-01	-4.951348288e-04	4.113506080e-11
-1.000000000e-03	1.340121838e-01	-4.937747888e-04	4.909566234e-11
-1.100000000e-03	1.340121918e-01	-4.924147482e-04	4.306789547e-11
-1.200000000e-03	1.340121998e-01	-4.910547072e-04	1.752339136e-11
-1.300000000e-03	1.340122077e-01	-4.896946657e-04	2.095312215e-11
-1.400000000e-03	1.340122156e-01	-4.883346237e-04	7.880014267e-12
-1.500000000e-03	1.340122234e-01	-4.869745813e-04	1.302990954e-11
-1.600000000e-03	1.340122312e-01	-4.856145384e-04	1.059394054e-11
-1.700000000e-03	1.340122390e-01	-4.842544950e-04	6.626126318e-12
-1.800000000e-03	1.340122467e-01	-4.828944511e-04	9.614625934e-12
-1.900000000e-03	1.340122544e-01	-4.815344068e-04	2.293493460e-11
-2.000000000e-03	1.340122621e-01	-4.801743620e-04	7.526805820e-12
-2.100000000e-03	1.340122697e-01	-4.788143168e-04	9.253674331e-12
-2.200000000e-03	1.340122772e-01	-4.774542711e-04	9.334807464e-12
-2.300000000e-03	1.340122848e-01	-4.760942249e-04	4.948949545e-12
-2.400000000e-03	1.340122923e-01	-4.747341783e-04	1.534555100e-11
-2.500000000e-03	1.340122997e-01	-4.733741313e-04	4.443103676e-11
-2.600000000e-03	1.340123071e-01	-4.720140838e-04	2.009246092e-11
-2.700000000e-03	1.340123144e-01	-4.706540358e-04	7.875622003e-12
-2.800000000e-03	1.340123218e-01	-4.692939874e-04	9.073918269e-12
-2.900000000e-03	1.340123290e-01	-4.679339386e-04	1.628796379e-10
-3.000000000e-03	1.340123363e-01	-4.665738893e-04	4.579032142e-11
-3.100000000e-03	1.340123435e-01	-4.652138396e-04	9.194958240e-12
-3.200000000e-03	1.340123506e-01	-4.638537894e-04	8.818702442e-12
-3.300000000e-03	1.340123577e-01	-4.624937388e-04	4.169911136e-12
-3.400000000e-03	1.340123648e-01	-4.611336878e-04	1.472471413e-11
-3.500000000e-03	1.340123718e-01	-4.597736363e-04	1.063887894e-11
-3.600000000e-03	1.340123788e-01	-4.584135844e-04	8.964118818e-11
-3.700000000e-03	1.340123857e-01	-4.570535321e-04	1.047567243e-11
-3.800000000e-03	1.340123927e-01	-4.556934794e-04	3.091133608e-11
-3.900000000e-03	1.340123995e-01	-4.543334262e-04	1.061263343e-10
-4.000000000e-03	1.340124063e-01	-4.529733726e-04	2.040244329e-11
-4.100000000e-03	1.340124131e-01	-4.516133186e-04	1.545192535e-11
-4.200000000e-03	1.340124198e-01	-4.502532642e-04	1.130750048e-11
-4.300000000e-03	1.340124265e-01	-4.488932094e-04	8.015419599e-12
-4.400000000e-03	1.340124332e-01	-4.475331541e-04	1.020930854e-11
-4.500000000e-03	1.340124398e-01	-4.461730985e-04	1.089193204e-11
-4.600000000e-03	1.340124464e-01	-4.448130424e-04	9.484139478e-12
-4.700000000e-03	1.340124529e-01	-4.434529860e-04	1.646446056e-11
-4.800000000e-03	1.340124594e-01	-4.420929291e-04	3.295952443e-11
-4.900000000e-03	1.340124659e-01	-4.407328718e-04	2.577466930e-11
-5.000000000e-03	1.340124723e-01	-4.393728141e-04	2.014309144e-11
-5.100000000e-03	1.340124786e-01	-4.380127561e-04	1.337659775e-10
-5.200000000e-03	1.340124850e-01	-4.366526976e-04	3.094116861e-11
-5.300000000e-03	1.340124912e-01	-4.352926387e-04	2.106196233e-11
-5.400000000e-03	1.340124975e-01	-4.339325795e-04	1.561965690e-11
-5.500000000e-03	1.340125037e-01	-4.325725198e-04	4.258129901e-11
-5.600000000e-03	1.340125098e-01	-4.312124598e-04	2.131221014e-11
-5.700000000e-03	1.340125160e-01	-4.298523994e-04	1.946973896e-11
-5.800000000e-03	1.340125220e-01	-4.284923386e-04	9.840619202e-12
-5.900000000e-03	1.340125281e-01	-4.271322774e-04	3.168002869e-11
-6.000000000e-03	1.340125341e-01	-4.257722159e-04	1.704770359e-11
-6.100000000e-03	1.340125400e-01	-4.244121540e-04	7.501796641e-12
-6.200000000e-03	1.340125459e-01	-4.230520917e-04	2.627100212e-11
-6.300000000e-03	1.340125518e-01	-4.216920290e-04	1.492237495e-11
-6.400000000e-03	1.340125576e-01	-4.203319659e-04	4.055986281e-11
-6.500000000e-03	1.340125634e-01	-4.189719025e-04	8.605970162e-12
-6.600000000e-03	1.340125692e-01	-4.176118387e-04	8.219410105e-12
-6.700000000e-03	1.340125749e-01	-4.162517746e-04	1.476518057e-11
-6.800000000e-03	1.340125805e-01	-4.148917101e-04	8.652466000e-12
-6.900000000e-03	1.340125862e-01	-4.135316452e-04	1.388239036e-11
-7.000000000e-03	1.340125917e-01	-4.121715800e-04	1.362353947e-11
-7.100000000e-03	1.340125973e-01	-4.108115144e-04	1.247868294e-11
-7.200000000e-03	1.340126028e-01	-4.094514484e-04	6.704802390e-11
-7.300000000e-03	1.340126082e-01	-4.080913822e-04	1.490919467e-11
-7.400000000e-03	1.340126137e-01	-4.067313155e-04	1.461760083e-11
-7.500000000e-03	1.340126190e-01	-4.053712485e-04	6.199196364e-12
-7.600000000e-03	1.340126244e-01	-4.040111812e-04	7.754726572e-12
-7.700000000e-03	1.340126297e-01	-4.026511135e-04	1.605128842e-11
-7.800000000e-03	1.340126349e-01	-4.012910455e-04	1.004622785e-11
-7.900000000e-03	1.340126401e-01	-3.999309772e-04	1.164131336e-11
-8.000000000e-03	1.340126453e-01	-3.985709085e-04	9.575682436e-12
-8.100000000e-03	1.340126504e-01	-3.972108394e-04	1.432777967e-11
-8.200000000e-03	1.340126555e-01	-3.958507701e-04	1.361011936e-11
-8.300000000e-03	1.340126605e-01	-3.944907004e-04	1.746305475e-11
-8.400000000e-03	1.340126655e-01	-3.931306304e-04	1.143102279e-11
-8.500000000e-03	1.340126705e-01	-3.917705600e-04	8.836496912e-12
-8.600000000e-03	1.340126754e-01	-3.904104893e-04	2.473756935e-11
-8.700000000e-03	1.340126803e-01	-3.890504184e-04	4.140536110e-11
-8.800000000e-03	1.340126851e-01	-3.876903470e-04	1.911822881e-11
-8.900000000e-03	1.340126899e-01	-3.863302754e-04	8.591605406e-12
-9.000000000e-03	1.340126947e-01	-3.849702035e-04	1.226756474e-11
-9.100000000e-03	1.340126994e-01	-3.836101312e-04	1.083505283e-11
-9.200000000e-03	1.340127041e-01	-3.822500586e-04	8.492246821e-12
-9.300000000e-03	1.340127087e-01	-3.808899857e-04	1.091804795e-11
-9.400000000e-03	1.340127133e-01	-3.795299125e-04	3.068572206e-11
-9.500000000e-03	1.340127179e-01	-3.781698391e-04	8.249045409e-12
-9.600000000e-03	1.340127224e-01	-3.768097652e-04	1.097395959e-11
-9.700000000e-03	1.340127268e-01	-3.754496911e-04	1.133739407e-11
-9.800000000e-03	1.340127313e-01	-3.740896167e-04	1.420740597e-11
-9.900000000e-03	1.340127356e-01	-3.727295420e-04	4.870814121e-12
-1.000000000e-02	1.340127400e-01	-3.713694670e-04	8.028869578e-12
-1.010000000e-02	1.340127443e-01	-3.700093917e-04	4.232862898e-11
-1.020000000e-02	1.340127485e-01	-3.686493162e-04	7.479804995e-12
-1.030000000e-02	1.340127528e-01	-3.672892403e-04	1.131703937e-11
-1.040000000e-02	1.340127569e-01	-3.659291641e-04	1.515538944e-11
-1.050000000e-02	1.340127611e-01	-3.645690877e-04	1.402314579e-11
-1.060000000e-02	1.340127652e-01	-3.632090110e-04	2.082985378e-11
-1.070000000e-02	1.340127692e-01	-3.618489340e-04	8.248095612e-11
-1.080000000e-02	1.340127732e-01	-3.604888567e-04	6.066950297e-11
-1.090000000e-02	1.340127772e-01	-3.591287791e-04	1.449618490e-11
-1.100000000e-02	1.340127811e-01	-3.577687013e-04	1.087429032e-11
-1.110000000e-02	1.340127850e-01	-3.564086232e-04	1.193375409e-11
-1.120000000e-02	1.340127889e-01	-3.550485448e-04	1.639263740e-11
-1.130000000e-02	1.340127927e-01	-3.536884662e-04	2.712192925e-11
-1.140000000e-02	1.340127964e-01	-3.523283872e-04	1.614905785e-11
-1.150000000e-02	1.340128002e-01	-3.509683081e-04	9.177134025e-12
-1.160000000e-02	1.340128038e-01	-3.496082286e-04	2.754318759e-11
-1.170000000e-02	1.340128075e-01	-3.482481489e-04	2.257697837e-11
-1.180000000e-02	1.340128111e-01	-3.468880690e-04	1.802263921e-11
-1.190000000e-02	1.340128146e-01	-3.455279887e-04	5.621622505e-12
-1.200000000e-02	1.340128182e-01	-3.441679083e-04	9.778789919e-12
-1.210000000e-02	1.340128216e-01	-3.428078276e-04	1.718721178e-11
-1.220000000e-02	1.340128251e-01	-3.414477466e-04	2.116040925e-11
-1.230000000e-02	1.340128285e-01	-3.400876654e-04	5.616365417e-12
-1.240000000e-02	1.340128318e-01	-3.387275839e-04	4.145858296e-11
-1.250000000e-02	1.340128351e-01	-3.373675022e-04	1.188146228e-11
-1.260000000e-02	1.340128384e-01	-3.360074203e-04	2.136021222e-11
-1.270000000e-02	1.340128416e-01	-3.346473381e-04	1.498573449e-11
-1.280000000e-02	1.340128448e-01	-3.332872557e-04	3.471698961e-11
-1.290000000e-02	1.340128480e-01	-3.319271730e-04	1.039509875e-11
-1.300000000e-02	1.340128511e-01	-3.305670901e-04	1.168115816e-11
-1.310000000e-02	1.340128541e-01	-3.292070070e-04	8.245007034e-12
-1.320000000e-02	1.340128571e-01	-3.278469236e-04	1.831804601e-11
-1.330000000e-02	1.340128601e-01	-3.264868401e-04	3.840893680e-11
-1.340000000e-02	1.340128631e-01	-3.251267563e-04	1.287795041e-11
-1.350000000e-02	1.340128660e-01	-3.237666722e-04	7.531086754e-12
-1.360000000e-02	1.340128688e-01	-3.224065880e-04	2.414216159e-11
-1.370000000e-02	1.340128716e-01	-3.210465035e-04	1.226827944e-11
-1.380000000e-02	1.340128744e-01	-3.196864189e-04	1.332948860e-11
-1.390000000e-02	1.340128771e-01	-3.183263340e-04	7.819610352e-12
-1.400000000e-02	1.340128798e-01	-3.169662489e-04	1.450801155e-11
-1.410000000e-02	1.340128825e-01	-3.156061636e-04	5.358458063e-12
-1.420000000e-02	1.340128851e-01	-3.142460780e-04	9.627266023e-12
-1.430000000e-02	1.340128877e-01	-3.128859923e-04	1.880137352e-11
-1.440000000e-02	1.340128902e-01	-3.115259064e-04	1.609182836e-11
-1.450000000e-02	1.340128927e-01	-3.101658202e-04	1.168923464e-11
-1.460000000e-02	1.340128951e-01	-3.088057339e-04	2.372892617e-11
-1.470000000e-02	1.340128975e-01	-3.074456474e-04	1.816121087e-11
-1.480000000e-02	1.340128999e-01	-3.060855606e-04	1.472932364e-11
-1.490000000e-02	1.340129022e-01	-3.047254737e-04	2.243011473e-10
-1.500000000e-02	1.340129045e-01	-3.033653866e-04	7.591678332e-12
-1.510000000e-02	1.340129067e-01	-3.020052993e-04	1.318924656e-11
-1.520000000e-02	1.340129089e-01	-3.006452118e-04	1.685786254e-11
-1.530000000e-02	1.340129111e-01	-2.992851242e-04	8.631665854e-12
-1.540000000e-02	1.340129132e-01	-2.979250363e-04	1.133768744e-11
-1.550000000e-02	1.340129152e-01	-2.965649483e-04	2.673621592e-11
-1.560000000e-02	1.340129173e-01	-2.952048601e-04	1.529061486e-11
-1.570000000e-02	1.340129193e-01	-2.938447717e-04	1.086087655e-11
-1.580000000e-02	1.340129212e-01	-2.924846831e-04	8.045168000e-12
-1.590000000e-02	1.340129231e-01	-2.911245944e-04	2.483748068e-11
-1.600000000e-02	1.340129250e-01	-2.897645055e-04	8.374835156e-12
-1.610000000e-02	1.340129268e-01	-2.884044164e-04	1.273827653e-11
-1.620000000e-02	1.340129286e-01	-2.870443271e-04	2.735121054e-11
-1.630000000e-02	1.340129303e-01	-2.856842377e-04	2.284474081e-11
-1.640000000e-02	1.340129320e-01	-2.843241482e-04	1.772514710e-11
-1.650000000e-02	1.340129337e-01	-2.829640584e-04	1.852290034e-11
-1.660000000e-02	1.340129353e-01	-2.816039686e-04	1.722587783e-11
-1.670000000e-02	1.340129369e-01	-2.802438785e-04	9.898234758e-12
-1.680000000e-02	1.340129384e-01	-2.788837883e-04	1.179121219e-11
-1.690000000e-02	1.340129399e-01	-2.775236980e-04	1.985584010e-11
-1.700000000e-02	1.340129414e-01	-2.761636075e-04	1.142822544e-11
-1.710000000e-02	1.340129428e-01	-2.748035168e-04	1.219041931e-11
-1.720000000e-02	1.340129441e-01	-2.734434260e-04	1.161603911e-11
-1.730000000e-02	1.340129455e-01	-2.720833351e-04	1.026083173e-11
-1.740000000e-02	1.340129467e-01	-2.707232440e-04	1.384623865e-11
-1.750000000e-02	1.340129480e-01	-2.693631528e-04	1.618002284e-11
-1.760000000e-02	1.340129492e-01	-2.680030615e-04	1.129262007e-11
-1.770000000e-02	1.340129504e-01	-2.666429700e-04	1.656845465e-11
-1.780000000e-02	1.340129515e-01	-2.652828784e-04	3.430036082e-11
-1.790000000e-02	1.340129526e-01	-2.639227866e-04	2.137687201e-11
-1.800000000e-02	1.340129536e-01	-2.625626947e-04	1.195917119e-11
-1.810000000e-02	1.340129546e-01	-2.612026027e-04	1.181104309e-11
-1.820000000e-02	1.340129556e-01	-2.598425106e-04	2.199064853e-11
-1.830000000e-02	1.340129565e-01	-2.584824184e-04	1.470236934e-11
-1.840000000e-02	1.340129573e-01	-2.571223260e-04	8.588509399e-12
-1.850000000e-02	1.340129582e-01	-2.557622335e-04	8.339426234e-12
-1.860000000e-02	1.340129590e-01	-2.544021409e-04	6.314390607e-12
-1.870000000e-02	1.340129597e-01	-2.530420482e-04	2.297395105e-11
-1.880000000e-02	1.340129604e-01	-2.516819554e-04	3.240552659e-11
-1.890000000e-02	1.340129611e-01	-2.503218624e-04	8.486447766e-12
-1.900000000e-02	1.340129617e-01	-2.489617694e-04	1.070374904e-11
-1.910000000e-02	1.340129623e-01	-2.476016762e-04	3.339907463e-11
-1.920000000e-02	1.340129629e-01	-2.462415829e-04	3.356481783e-11
-1.930000000e-02	1.340129634e-01	-2.448814896e-04	3.212179207e-11
-1.940000000e-02	1.340129638e-01	-2.435213961e-04	1.142918603e-11
-1.950000000e-02	1.340129642e-01	-2.421613026e-04	1.990523721e-11
-1.960000000e-02	1.340129646e-01	-2.408012089e-04	4.713582108e-12
-1.970000000e-02	1.340129650e-01	-2.394411152e-04	6.445748686e-12
-1.980000000e-02	1.340129652e-01	-2.380810213e-04	6.583486970e-11
-1.990000000e-02	1.340129655e-01	-2.367209274e-04	8.859833046e-12
-2.000000000e-02	1.340129657e-01	-2.353608334e-04	9.462072844e-12
-2.010000000e-02	1.340129659e-01	-2.340007393e-04	4.372879543e-11
-2.020000000e-02	1.340129660e-01	-2.326406451e-04	1.365503555e-11
-2.030000000e-02	1.340129661e-01	-2.312805509e-04	9.996113421e-12
-2.040000000e-02	1.340129662e-01	-2.299204565e-04	2.113231356e-11
-2.050000000e-02	1.340129662e-01	-2.285603621e-04	7.210273937e-12
-2.060000000e-02	1.340129661e-01	-2.272002676e-04	2.210306414e-11
-2.070000000e-02	1.340129661e-01	-2.258401731e-04	4.585066004e-11
-2.080000000e-02	1.340129659e-01	-2.244800784e-04	1.196559855e-11
-2.090000000e-02	1.340129658e-01	-2.231199837e-04	2.277182906e-11
-2.100000000e-02	1.340129656e-01	-2.217598890e-04	1.170409342e-11
-2.110000000e-02	1.340129653e-01	-2.203997941e-04	1.291536278e-11
-2.120000000e-02	1.340129651e-01	-2.190396992e-04	8.161758246e-12
-2.130000000e-02	1.340129647e-01	-2.176796043e-04	3.073586164e-11
-2.140000000e-02	1.340129644e-01	-2.163195093e-04	8.993284545e-12
-2.150000000e-02	1.340129640e-01	-2.149594142e-04	2.707738587e-11
-2.160000000e-02	1.340129635e-01	-2.135993191e-04	1.019414293e-11
-2.170000000e-02	1.340129630e-01	-2.122392239e-04	6.068088821e-12
-2.180000000e-02	1.340129625e-01	-2.108791287e-04	1.069828705e-11
-2.190000000e-02	1.340129619e-01	-2.095190334e-04	8.345933976e-12
-2.200000000e-02	1.340129613e-01	-2.081589381e-04	2.009144261e-11
-2.210000000e-02	1.340129607e-01	-2.067988427e-04	2.955670116e-11
-2.220000000e-02	1.340129600e-01	-2.054387473e-04	1.397681622e-11
-2.230000000e-02	1.340129592e-01	-2.040786519e-04	6.232469324e-11
-2.240000000e-02	1.340129584e-01	-2.027185564e-04	9.409450825e-12
-2.250000000e-02	1.340129576e-01	-2.013584609e-04	7.828200870e-12
-2.260000000e-02	1.340129568e-01	-1.999983654e-04	6.872505605e-12
-2.270000000e-02	1.340129559e-01	-1.986382698e-04	1.819432771e-11
-2.280000000e-02	1.340129549e-01	-1.972781742e-04	8.065560287e-12
-2.290000000e-02	1.340129539e-01	-1.959180786e-04	1.240217706e-11
-2.300000000e-02	1.340129529e-01	-1.945579829e-04	4.138726691e-11
-2.310000000e-02	1.340129518e-01	-1.931978872e-04	7.866994765e-12
-2.320000000e-02	1.340129507e-01	-1.918377915e-04	1.420475972e-11
-2.330000000e-02	1.340129496e-01	-1.904776958e-04	2.913796025e-11
-2.340000000e-02	1.340129484e-01	-1.891176001e-04	2.039463870e-11
-2.350000000e-02	1.340129472e-01	-1.877575044e-04	2.728517050e-11
-2.360000000e-02	1.340129459e-01	-1.863974086e-04	1.052785826e-11
-2.370000000e-02	1.340129446e-01	-1.850373128e-04	3.131456742e-11
-2.380000000e-02	1.340129432e-01	-1.836772171e-04	7.038900028e-12
-2.390000000e-02	1.340129418e-01	-1.823171213e-04	1.266085832e-11
-2.400000000e-02	1.340129404e-01	-1.809570255e-04	1.005252569e-11
-2.410000000e-02	1.340129389e-01	-1.795969297e-04	9.049368474e-12
-2.420000000e-02	1.340129374e-01	-1.782368339e-04	2.000393321e-11
-2.430000000e-02	1.340129358e-01	-1.768767382e-04	1.170647589e-11
-2.440000000e-02	1.340129342e-01	-1.755166424e-04	1.819898797e-11
-2.450000000e-02	1.340129326e-01	-1.741565466e-04	8.189241623e-12
-2.460000000e-02	1.340129309e-01	-1.727964508e-04	1.622242800e-11
-2.470000000e-02	1.340129292e-01	-1.714363551e-04	2.032736657e-11
-2.480000000e-02	1.340129274e-01	-1.700762594e-04	8.717402557e-12
-2.490000000e-02	1.340129256e-01	-1.687161636e-04	8.968894749e-12
-2.500000000e-02	1.340129237e-01	-1.673560679e-04	1.361990057e-11
-2.510000000e-02	1.340129218e-01	-1.659959722e-04	1.089413180e-10
-2.520000000e-02	1.340129199e-01	-1.646358766e-04	6.504202539e-12
-2.530000000e-02	1.340129179e-01	-1.632757809e-04	2.067723821e-11
-2.540000000e-02	1.340129159e-01	-1.619156853e-04	2.045100179e-11
-2.550000000e-02	1.340129138e-01	-1.605555897e-04	7.357143574e-12
-2.560000000e-02	1.340129117e-01	-1.591954942e-04	4.245403114e-12
-2.570000000e-02	1.340129096e-01	-1.578353987e-04	2.038889285e-11
-2.580000000e-02	1.340129074e-01	-1.564753032e-04	1.433338855e-11
-2.590000000e-02	1.340129052e-01	-1.551152077e-04	2.468981196e-11
-2.600000000e-02	1.340129029e-01	-1.537551123e-04	1.244524382e-11
-2.610000000e-02	1.340129006e-01	-1.523950169e-04	8.758971320e-12
-2.620000000e-02	1.340128983e-01	-1.510349216e-04	1.877930838e-11
-2.630000000e-02	1.340128959e-01	-1.496748263e-04	9.197515084e-12
-2.640000000e-02	1.340128935e-01	-1.483147311e-04	7.029327638e-12
-2.650000000e-02	1.340128910e-01	-1.469546359e-04	7.933669567e-11
-2.660000000e-02	1.340128885e-01	-1.455945407e-04	1.798847390e-11
-2.670000000e-02	1.340128859e-01	-1.442344456e-04	7.748149276e-12
-2.680000000e-02	1.340128833e-01	-1.428743506e-04	1.247015105e-11
-2.690000000e-02	1.340128807e-01	-1.415142556e-04	1.487990975e-11
-2.700000000e-02	1.340128780e-01	-1.401541607e-04	1.901866469e-11
-2.710000000e-02	1.340128753e-01	-1.387940658e-04	1.711847181e-11
-2.720000000e-02	1.340128725e-01	-1.374339710e-04	3.119881271e-11
-2.730000000e-02	1.340128697e-01	-1.360738763e-04	5.421022089e-12
-2.740000000e-02	1.340128669e-01	-1.347137816e-04	2.380708146e-11
-2.750000000e-02	1.340128640e-01	-1.333536870e-04	1.449219087e-11
-2.760000000e-02	1.340128611e-01	-1.319935925e-04	1.061645565e-11
-2.770000000e-02	1.340128581e-01	-1.306334981e-04	5.462648846e-12
-2.780000000e-02	1.340128551e-01	-1.292734037e-04	1.023349681e-11
-2.790000000e-02	1.340128521e-01	-1.279133094e-04	1.118616704e-11
-2.800000000e-02	1.340128490e-01	-1.265532152e-04	1.105890359e-10
-2.810000000e-02	1.340128458e-01	-1.251931210e-04	1.103787644e-11
-2.820000000e-02	1.340128427e-01	-1.238330270e-04	7.643680256e-12
-2.830000000e-02	1.340128395e-01	-1.224729330e-04	1.587063552e-11
-2.840000000e-02	1.340128362e-01	-1.211128391e-04	1.808132273e-11
-2.850000000e-02	1.340128329e-01	-1.197527453e-04	1.008574485e-11
-2.860000000e-02	1.340128296e-01	-1.183926516e-04	3.099581041e-11
-2.870000000e-02	1.340128262e-01	-1.170325580e-04	1.523733745e-11
-2.880000000e-02	1.340128228e-01	-1.156724645e-04	1.707660601e-11
-2.890000000e-02	1.340128193e-01	-1.143123711e-04	2.357475714e-11
-2.900000000e-02	1.340128158e-01	-1.129522778e-04	1.394612848e-11
-2.910000000e-02	1.340128123e-01	-1.115921846e-04	1.102686991e-11
-2.920000000e-02	1.340128087e-01	-1.102320915e-04	1.765790599e-11
-2.930000000e-02	1.340128050e-01	-1.088719985e-04	7.973764457e-12
-2.940000000e-02	1.340128014e-01	-1.075119057e-04	8.620603113e-11
-2.950000000e-02	1.340127977e-01	-1.061518129e-04	1.902684191e-11
-2.960000000e-02	1.340127939e-01	-1.047917202e-04	8.699308432e-12
-2.970000000e-02	1.340127901e-01	-1.034316277e-04	9.747877680e-12
-2.980000000e-02	1.340127863e-01	-1.020715353e-04	1.203776881e-11
-2.990000000e-02	1.340127824e-01	-1.007114430e-04	1.218004880e-11
-3.000000000e-02	1.340127785e-01	-9.935135077e-05	9.508772549e-12
