# Im(epsi1)     Re(omega/c)      Im(omega/c)      Eq(det).Opt det CON kz, R=0.5 \mum, mu_c=0.3, Re(epsi1)=3.90solve_det_conkz_vs_kz.py
0.000000000e+00	1.338580022e-01	-5.927107619e-04	2.499254437e-10
-2.000000000e-04	1.338579979e-01	-5.899296565e-04	2.894202319e-10
-5.000000000e-04	1.338579914e-01	-5.857578640e-04	4.358323224e-10
-9.000000000e-04	1.338579825e-01	-5.801952244e-04	2.148493053e-10
-1.000000000e-03	1.338579802e-01	-5.788045201e-04	1.603045653e-10
-1.100000000e-03	1.338579779e-01	-5.774137981e-04	4.928576996e-11
-1.200000000e-03	1.338579756e-01	-5.760230584e-04	1.790519868e-10
-1.400000000e-03	1.338579709e-01	-5.732415261e-04	1.640510511e-10
-1.700000000e-03	1.338579637e-01	-5.690690956e-04	1.512673546e-10
-1.900000000e-03	1.338579588e-01	-5.662873875e-04	2.120186432e-10
-2.100000000e-03	1.338579538e-01	-5.635056096e-04	1.764802335e-10
-2.200000000e-03	1.338579513e-01	-5.621146944e-04	1.849368506e-10
-2.300000000e-03	1.338579488e-01	-5.607237619e-04	2.438071254e-10
-2.400000000e-03	1.338579462e-01	-5.593328119e-04	9.075659850e-11
-2.600000000e-03	1.338579410e-01	-5.565508600e-04	1.165339124e-10
-2.700000000e-03	1.338579384e-01	-5.551598581e-04	1.110897546e-10
-2.900000000e-03	1.338579332e-01	-5.523778026e-04	1.883108800e-10
-3.000000000e-03	1.338579305e-01	-5.509867489e-04	2.066752960e-10
-3.100000000e-03	1.338579278e-01	-5.495956781e-04	1.231773172e-10
-3.300000000e-03	1.338579224e-01	-5.468134850e-04	6.159653202e-10
-3.400000000e-03	1.338579197e-01	-5.454223627e-04	4.499432885e-10
-3.700000000e-03	1.338579113e-01	-5.412488937e-04	1.895985695e-10
-3.900000000e-03	1.338579057e-01	-5.384664959e-04	1.971870857e-10
-4.000000000e-03	1.338579029e-01	-5.370752716e-04	3.143346092e-10
-4.200000000e-03	1.338578971e-01	-5.342927722e-04	2.476163077e-10
-4.300000000e-03	1.338578942e-01	-5.329014972e-04	7.530711961e-11
-4.400000000e-03	1.338578913e-01	-5.315102054e-04	2.151145885e-10
-4.500000000e-03	1.338578883e-01	-5.301188968e-04	3.106632887e-10
-4.600000000e-03	1.338578854e-01	-5.287275714e-04	1.596523031e-10
-4.700000000e-03	1.338578824e-01	-5.273362292e-04	4.378166899e-10
-4.800000000e-03	1.338578794e-01	-5.259448704e-04	8.585531260e-11
-4.900000000e-03	1.338578764e-01	-5.245534948e-04	4.916364600e-10
-5.000000000e-03	1.338578734e-01	-5.231621026e-04	1.410555819e-10
-5.100000000e-03	1.338578703e-01	-5.217706937e-04	5.796643574e-11
-5.200000000e-03	1.338578673e-01	-5.203792683e-04	9.315413501e-10
-5.300000000e-03	1.338578642e-01	-5.189878262e-04	1.037146729e-10
-5.400000000e-03	1.338578611e-01	-5.175963676e-04	1.150515017e-10
-5.500000000e-03	1.338578580e-01	-5.162048925e-04	4.147419995e-10
-5.600000000e-03	1.338578548e-01	-5.148134009e-04	7.387064403e-11
-5.700000000e-03	1.338578517e-01	-5.134218929e-04	5.255039205e-10
-5.800000000e-03	1.338578485e-01	-5.120303684e-04	2.651718214e-10
-5.900000000e-03	1.338578453e-01	-5.106388275e-04	2.395532494e-10
-6.100000000e-03	1.338578389e-01	-5.078556966e-04	7.536238418e-10
-6.300000000e-03	1.338578324e-01	-5.050725005e-04	3.405099860e-10
-6.400000000e-03	1.338578291e-01	-5.036808781e-04	8.462751061e-10
-6.500000000e-03	1.338578258e-01	-5.022892394e-04	2.548636191e-10
-6.800000000e-03	1.338578159e-01	-4.981142263e-04	1.340399844e-10
-6.900000000e-03	1.338578125e-01	-4.967225231e-04	4.980805859e-10
-7.000000000e-03	1.338578091e-01	-4.953308037e-04	1.791528534e-10
-7.200000000e-03	1.338578023e-01	-4.925473169e-04	9.215849844e-11
-7.500000000e-03	1.338577920e-01	-4.883719670e-04	5.613837367e-10
-7.600000000e-03	1.338577885e-01	-4.869801519e-04	2.354934792e-10
-7.900000000e-03	1.338577779e-01	-4.828046114e-04	3.923256935e-10
-8.000000000e-03	1.338577744e-01	-4.814127331e-04	7.404795872e-11
-8.200000000e-03	1.338577672e-01	-4.786289292e-04	6.649560009e-10
-8.300000000e-03	1.338577636e-01	-4.772370037e-04	5.428494032e-10
-8.400000000e-03	1.338577600e-01	-4.758450626e-04	2.083346137e-10
-8.500000000e-03	1.338577564e-01	-4.744531058e-04	2.272883998e-10
-8.600000000e-03	1.338577527e-01	-4.730611335e-04	3.254764080e-10
-8.700000000e-03	1.338577491e-01	-4.716691457e-04	5.948486425e-11
-8.800000000e-03	1.338577454e-01	-4.702771424e-04	1.504123992e-10
-8.900000000e-03	1.338577417e-01	-4.688851235e-04	5.557264643e-10
-9.000000000e-03	1.338577380e-01	-4.674930893e-04	3.950140480e-10
-9.200000000e-03	1.338577305e-01	-4.647089745e-04	8.639524041e-11
-9.300000000e-03	1.338577267e-01	-4.633168941e-04	2.207407767e-10
-9.400000000e-03	1.338577229e-01	-4.619247983e-04	2.416776335e-10
-9.500000000e-03	1.338577191e-01	-4.605326873e-04	2.398764770e-10
-9.600000000e-03	1.338577153e-01	-4.591405611e-04	1.284219185e-10
-9.700000000e-03	1.338577115e-01	-4.577484196e-04	9.367617262e-11
-9.800000000e-03	1.338577076e-01	-4.563562629e-04	1.216167764e-10
-9.900000000e-03	1.338577038e-01	-4.549640911e-04	3.776490771e-10
-1.000000000e-02	1.338576999e-01	-4.535719041e-04	1.454216640e-10
-1.010000000e-02	1.338576960e-01	-4.521797021e-04	1.706505305e-10
-1.020000000e-02	1.338576921e-01	-4.507874850e-04	1.188802175e-09
-1.030000000e-02	1.338576881e-01	-4.493952529e-04	2.554952522e-10
-1.040000000e-02	1.338576842e-01	-4.480030058e-04	1.552498047e-10
-1.060000000e-02	1.338576762e-01	-4.452184667e-04	5.611940524e-10
-1.080000000e-02	1.338576682e-01	-4.424338682e-04	1.069336515e-10
-1.100000000e-02	1.338576602e-01	-4.396492103e-04	1.093505905e-10
-1.110000000e-02	1.338576561e-01	-4.382568593e-04	1.501385660e-10
-1.120000000e-02	1.338576520e-01	-4.368644935e-04	5.922918168e-11
-1.140000000e-02	1.338576438e-01	-4.340797179e-04	8.769388710e-11
-1.160000000e-02	1.338576356e-01	-4.312948839e-04	2.381631117e-10
-1.170000000e-02	1.338576314e-01	-4.299024450e-04	1.898676149e-10
-1.180000000e-02	1.338576273e-01	-4.285099916e-04	2.163181443e-11
-1.190000000e-02	1.338576231e-01	-4.271175238e-04	3.599577828e-10
-1.200000000e-02	1.338576189e-01	-4.257250415e-04	7.261460258e-11
-1.220000000e-02	1.338576104e-01	-4.229400337e-04	1.900805039e-10
-1.230000000e-02	1.338576062e-01	-4.215475083e-04	2.042718543e-10
-1.250000000e-02	1.338575976e-01	-4.187624147e-04	1.335540653e-10
-1.270000000e-02	1.338575890e-01	-4.159772641e-04	1.633611798e-10
-1.280000000e-02	1.338575847e-01	-4.145846675e-04	2.100783401e-10
-1.300000000e-02	1.338575760e-01	-4.117994321e-04	2.263188932e-10
-1.310000000e-02	1.338575716e-01	-4.104067932e-04	4.164261006e-11
-1.320000000e-02	1.338575672e-01	-4.090141404e-04	2.259169641e-10
-1.340000000e-02	1.338575584e-01	-4.062287928e-04	7.315854944e-11
-1.350000000e-02	1.338575540e-01	-4.048360981e-04	1.577844863e-10
-1.360000000e-02	1.338575495e-01	-4.034433896e-04	2.282400414e-10
-1.370000000e-02	1.338575451e-01	-4.020506672e-04	2.412687013e-10
-1.380000000e-02	1.338575406e-01	-4.006579310e-04	2.614388153e-10
-1.410000000e-02	1.338575271e-01	-3.964796399e-04	2.507740582e-10
-1.420000000e-02	1.338575225e-01	-3.950868489e-04	1.905679694e-10
-1.430000000e-02	1.338575180e-01	-3.936940442e-04	2.537348566e-10
-1.450000000e-02	1.338575088e-01	-3.909083942e-04	1.812026390e-10
-1.470000000e-02	1.338574996e-01	-3.881226902e-04	2.932608478e-10
-1.480000000e-02	1.338574950e-01	-3.867298180e-04	2.160711999e-10
-1.490000000e-02	1.338574903e-01	-3.853369324e-04	2.317011420e-10
-1.500000000e-02	1.338574857e-01	-3.839440334e-04	5.971030811e-11
-1.510000000e-02	1.338574810e-01	-3.825511211e-04	5.906302539e-11
-1.520000000e-02	1.338574763e-01	-3.811581956e-04	1.792962685e-10
-1.540000000e-02	1.338574669e-01	-3.783723047e-04	1.123312046e-10
-1.550000000e-02	1.338574622e-01	-3.769793395e-04	6.196775119e-11
-1.560000000e-02	1.338574574e-01	-3.755863612e-04	2.830501787e-10
-1.570000000e-02	1.338574527e-01	-3.741933697e-04	1.061025656e-10
-1.580000000e-02	1.338574479e-01	-3.728003653e-04	2.023452710e-10
-1.600000000e-02	1.338574383e-01	-3.700143173e-04	1.502019372e-10
-1.620000000e-02	1.338574286e-01	-3.672282175e-04	1.394725221e-10
-1.630000000e-02	1.338574238e-01	-3.658351483e-04	1.980056166e-10
-1.670000000e-02	1.338574043e-01	-3.602627435e-04	2.543002846e-10
-1.700000000e-02	1.338573895e-01	-3.560833067e-04	1.072563858e-10
-1.710000000e-02	1.338573845e-01	-3.546901359e-04	4.108976848e-10
-1.720000000e-02	1.338573795e-01	-3.532969526e-04	4.384917457e-10
-1.740000000e-02	1.338573695e-01	-3.505105486e-04	6.917692410e-11
-1.750000000e-02	1.338573645e-01	-3.491173280e-04	9.307406022e-11
-1.760000000e-02	1.338573595e-01	-3.477240950e-04	4.203224117e-11
-1.780000000e-02	1.338573494e-01	-3.449375921e-04	1.033353114e-10
-1.790000000e-02	1.338573443e-01	-3.435443223e-04	1.581312031e-10
-1.800000000e-02	1.338573392e-01	-3.421510402e-04	1.756077411e-10
-1.810000000e-02	1.338573341e-01	-3.407577460e-04	1.232962367e-10
-1.820000000e-02	1.338573290e-01	-3.393644397e-04	4.554825847e-10
-1.830000000e-02	1.338573239e-01	-3.379711213e-04	1.088934293e-10
-1.840000000e-02	1.338573187e-01	-3.365777908e-04	1.513675850e-10
-1.850000000e-02	1.338573135e-01	-3.351844483e-04	2.871124256e-10
-1.860000000e-02	1.338573084e-01	-3.337910939e-04	5.086713065e-10
-1.870000000e-02	1.338573032e-01	-3.323977275e-04	4.297114266e-10
-1.890000000e-02	1.338572928e-01	-3.296109592e-04	3.207725552e-11
-1.900000000e-02	1.338572875e-01	-3.282175573e-04	2.271255692e-10
-1.920000000e-02	1.338572771e-01	-3.254307182e-04	5.170487649e-11
-1.950000000e-02	1.338572612e-01	-3.212503721e-04	1.071291383e-10
-1.960000000e-02	1.338572559e-01	-3.198569002e-04	4.042645188e-11
-1.970000000e-02	1.338572506e-01	-3.184634168e-04	1.535589277e-10
-1.980000000e-02	1.338572452e-01	-3.170699220e-04	3.331202254e-10
-1.990000000e-02	1.338572399e-01	-3.156764157e-04	3.513244559e-10
-2.010000000e-02	1.338572291e-01	-3.128893689e-04	1.261106238e-10
-2.020000000e-02	1.338572238e-01	-3.114958285e-04	2.161613739e-10
-2.030000000e-02	1.338572184e-01	-3.101022769e-04	7.597022585e-10
-2.050000000e-02	1.338572075e-01	-3.073151399e-04	3.069124228e-10
-2.060000000e-02	1.338572021e-01	-3.059215547e-04	2.769339636e-10
-2.070000000e-02	1.338571966e-01	-3.045279584e-04	2.314444399e-10
-2.080000000e-02	1.338571911e-01	-3.031343510e-04	4.439070695e-11
-2.090000000e-02	1.338571857e-01	-3.017407325e-04	2.674227394e-11
-2.100000000e-02	1.338571802e-01	-3.003471031e-04	8.343080009e-10
-2.110000000e-02	1.338571746e-01	-2.989534628e-04	2.112285568e-10
-2.140000000e-02	1.338571580e-01	-2.947724766e-04	9.385028903e-11
-2.150000000e-02	1.338571525e-01	-2.933787929e-04	7.245381024e-10
-2.160000000e-02	1.338571469e-01	-2.919850985e-04	5.829451208e-11
-2.170000000e-02	1.338571413e-01	-2.905913934e-04	9.928319262e-11
-2.180000000e-02	1.338571357e-01	-2.891976777e-04	3.526031226e-10
-2.190000000e-02	1.338571301e-01	-2.878039514e-04	9.138238228e-10
-2.220000000e-02	1.338571132e-01	-2.836227092e-04	1.742892075e-10
-2.240000000e-02	1.338571018e-01	-2.808351622e-04	9.411376545e-11
-2.280000000e-02	1.338570790e-01	-2.752599444e-04	9.504668502e-11
-2.290000000e-02	1.338570732e-01	-2.738661144e-04	7.117007631e-11
-2.300000000e-02	1.338570675e-01	-2.724722742e-04	3.355366892e-10
-2.310000000e-02	1.338570617e-01	-2.710784240e-04	2.344248514e-10
-2.320000000e-02	1.338570559e-01	-2.696845638e-04	2.309363907e-10
-2.340000000e-02	1.338570443e-01	-2.668968133e-04	1.898955149e-10
-2.350000000e-02	1.338570385e-01	-2.655029232e-04	3.295021036e-10
-2.360000000e-02	1.338570327e-01	-2.641090232e-04	2.606719330e-10
-2.380000000e-02	1.338570210e-01	-2.613211938e-04	3.209328850e-10
-2.390000000e-02	1.338570151e-01	-2.599272645e-04	4.670406998e-10
-2.400000000e-02	1.338570092e-01	-2.585333255e-04	1.986808879e-10
-2.410000000e-02	1.338570033e-01	-2.571393768e-04	6.922061854e-11
-2.420000000e-02	1.338569974e-01	-2.557454185e-04	6.741929322e-11
-2.430000000e-02	1.338569915e-01	-2.543514507e-04	1.834524041e-10
-2.450000000e-02	1.338569796e-01	-2.515634865e-04	1.904680645e-10
-2.460000000e-02	1.338569737e-01	-2.501694903e-04	5.829704628e-10
-2.470000000e-02	1.338569677e-01	-2.487754846e-04	7.334624949e-10
-2.480000000e-02	1.338569617e-01	-2.473814696e-04	2.297234268e-10
-2.490000000e-02	1.338569557e-01	-2.459874454e-04	2.311529113e-10
-2.500000000e-02	1.338569497e-01	-2.445934118e-04	4.952733298e-11
-2.510000000e-02	1.338569437e-01	-2.431993691e-04	2.178404104e-10
-2.520000000e-02	1.338569377e-01	-2.418053172e-04	4.542074350e-11
-2.530000000e-02	1.338569316e-01	-2.404112562e-04	3.267367446e-11
-2.540000000e-02	1.338569256e-01	-2.390171861e-04	2.287596454e-10
-2.550000000e-02	1.338569195e-01	-2.376231070e-04	3.545502252e-10
-2.570000000e-02	1.338569073e-01	-2.348349219e-04	1.288930273e-10
-2.580000000e-02	1.338569012e-01	-2.334408160e-04	1.496000014e-10
-2.600000000e-02	1.338568890e-01	-2.306525777e-04	2.145614690e-10
-2.610000000e-02	1.338568828e-01	-2.292584454e-04	4.094054452e-10
-2.620000000e-02	1.338568767e-01	-2.278643043e-04	3.848306115e-10
-2.630000000e-02	1.338568705e-01	-2.264701546e-04	5.140660600e-10
-2.640000000e-02	1.338568643e-01	-2.250759963e-04	5.232650443e-10
-2.650000000e-02	1.338568582e-01	-2.236818294e-04	4.023747157e-10
-2.660000000e-02	1.338568520e-01	-2.222876540e-04	1.298795332e-10
-2.670000000e-02	1.338568457e-01	-2.208934701e-04	3.175745874e-10
-2.680000000e-02	1.338568395e-01	-2.194992778e-04	5.806255040e-11
-2.690000000e-02	1.338568333e-01	-2.181050770e-04	2.933932559e-10
-2.700000000e-02	1.338568270e-01	-2.167108679e-04	1.768036767e-10
-2.720000000e-02	1.338568145e-01	-2.139224249e-04	2.107220048e-10
-2.740000000e-02	1.338568019e-01	-2.111339490e-04	1.684881061e-10
-2.750000000e-02	1.338567956e-01	-2.097396989e-04	1.335094441e-10
-2.760000000e-02	1.338567893e-01	-2.083454407e-04	2.828005014e-10
-2.790000000e-02	1.338567703e-01	-2.041626181e-04	1.653763763e-10
-2.800000000e-02	1.338567639e-01	-2.027683281e-04	6.371935226e-11
-2.820000000e-02	1.338567511e-01	-1.999797246e-04	1.570957011e-10
-2.830000000e-02	1.338567447e-01	-1.985854112e-04	1.605728735e-10
-2.840000000e-02	1.338567383e-01	-1.971910901e-04	1.493127190e-10
-2.860000000e-02	1.338567254e-01	-1.944024249e-04	1.062942535e-10
-2.870000000e-02	1.338567190e-01	-1.930080810e-04	1.195348492e-10
-2.890000000e-02	1.338567061e-01	-1.902193706e-04	1.727896432e-10
-2.900000000e-02	1.338566996e-01	-1.888250043e-04	3.755532483e-10
-2.910000000e-02	1.338566931e-01	-1.874306306e-04	5.657521761e-11
-2.920000000e-02	1.338566866e-01	-1.860362496e-04	3.004772093e-10
-2.940000000e-02	1.338566735e-01	-1.832474657e-04	3.047198350e-10
-2.950000000e-02	1.338566670e-01	-1.818530630e-04	3.755140436e-10
-2.960000000e-02	1.338566604e-01	-1.804586531e-04	1.374507957e-10
-2.980000000e-02	1.338566473e-01	-1.776698121e-04	2.679967363e-10
-2.990000000e-02	1.338566407e-01	-1.762753811e-04	3.199416988e-10
-3.000000000e-02	1.338566341e-01	-1.748809432e-04	9.113467981e-11
-3.010000000e-02	1.338566275e-01	-1.734864983e-04	6.069376759e-11
-3.030000000e-02	1.338566142e-01	-1.706975881e-04	8.329217042e-11
-3.040000000e-02	1.338566076e-01	-1.693031228e-04	5.200655635e-11
-3.050000000e-02	1.338566009e-01	-1.679086508e-04	6.580957225e-11
-3.060000000e-02	1.338565943e-01	-1.665141722e-04	1.887672140e-10
-3.070000000e-02	1.338565876e-01	-1.651196869e-04	9.591715499e-11
-3.080000000e-02	1.338565809e-01	-1.637251951e-04	4.668479811e-11
-3.110000000e-02	1.338565608e-01	-1.595416806e-04	4.082559140e-10
-3.120000000e-02	1.338565540e-01	-1.581471630e-04	8.223896413e-11
-3.130000000e-02	1.338565473e-01	-1.567526390e-04	3.044142521e-10
-3.140000000e-02	1.338565405e-01	-1.553581087e-04	8.662164470e-10
-3.150000000e-02	1.338565338e-01	-1.539635723e-04	1.098952550e-10
-3.160000000e-02	1.338565270e-01	-1.525690296e-04	1.962794174e-10
-3.170000000e-02	1.338565202e-01	-1.511744808e-04	2.154333817e-10
-3.180000000e-02	1.338565134e-01	-1.497799259e-04	2.107554514e-10
-3.190000000e-02	1.338565066e-01	-1.483853649e-04	1.866138227e-10
-3.210000000e-02	1.338564929e-01	-1.455962251e-04	5.794704467e-11
-3.220000000e-02	1.338564861e-01	-1.442016463e-04	1.165926846e-10
-3.230000000e-02	1.338564792e-01	-1.428070617e-04	1.013694317e-10
-3.240000000e-02	1.338564723e-01	-1.414124713e-04	2.678403631e-10
-3.250000000e-02	1.338564655e-01	-1.400178751e-04	2.294743253e-10
-3.260000000e-02	1.338564586e-01	-1.386232732e-04	2.534854921e-10
-3.270000000e-02	1.338564517e-01	-1.372286656e-04	1.294508754e-11
-3.300000000e-02	1.338564309e-01	-1.330448096e-04	3.570638510e-11
-3.310000000e-02	1.338564240e-01	-1.316501799e-04	3.893641096e-11
-3.330000000e-02	1.338564100e-01	-1.288609044e-04	1.992825682e-10
-3.340000000e-02	1.338564031e-01	-1.274662586e-04	5.348630361e-11
-3.350000000e-02	1.338563961e-01	-1.260716076e-04	6.991259597e-11
-3.360000000e-02	1.338563891e-01	-1.246769513e-04	1.082857598e-10
-3.370000000e-02	1.338563821e-01	-1.232822899e-04	3.040571655e-10
-3.380000000e-02	1.338563750e-01	-1.218876234e-04	8.315072117e-11
-3.390000000e-02	1.338563680e-01	-1.204929518e-04	4.830412093e-10
-3.400000000e-02	1.338563610e-01	-1.190982752e-04	9.188035865e-10
-3.410000000e-02	1.338563539e-01	-1.177035936e-04	3.223551960e-10
-3.420000000e-02	1.338563468e-01	-1.163089070e-04	8.009591198e-11
-3.440000000e-02	1.338563327e-01	-1.135195194e-04	2.606642132e-10
-3.450000000e-02	1.338563256e-01	-1.121248184e-04	2.511960054e-10
-3.460000000e-02	1.338563185e-01	-1.107301127e-04	7.924946574e-11
-3.470000000e-02	1.338563113e-01	-1.093354023e-04	4.333557882e-11
-3.480000000e-02	1.338563042e-01	-1.079406873e-04	2.661273263e-10
-3.490000000e-02	1.338562971e-01	-1.065459677e-04	3.269168608e-10
-3.500000000e-02	1.338562899e-01	-1.051512436e-04	1.176632671e-10
-3.520000000e-02	1.338562756e-01	-1.023617819e-04	1.335926604e-10
-3.530000000e-02	1.338562684e-01	-1.009670445e-04	3.301501079e-10
-3.540000000e-02	1.338562612e-01	-9.957230277e-05	6.633787098e-11
-3.550000000e-02	1.338562540e-01	-9.817755674e-05	2.281385598e-10
-3.560000000e-02	1.338562468e-01	-9.678280647e-05	4.624454682e-10
-3.570000000e-02	1.338562396e-01	-9.538805202e-05	3.254836702e-10
-3.580000000e-02	1.338562323e-01	-9.399329344e-05	2.985248595e-10
-3.590000000e-02	1.338562251e-01	-9.259853078e-05	2.507219342e-10
-3.600000000e-02	1.338562178e-01	-9.120376408e-05	3.342102915e-10
-3.610000000e-02	1.338562105e-01	-8.980899340e-05	2.022999397e-09
-3.630000000e-02	1.338561960e-01	-8.701944028e-05	2.090470274e-10
-3.640000000e-02	1.338561887e-01	-8.562465794e-05	1.919291419e-10
-3.650000000e-02	1.338561814e-01	-8.422987182e-05	1.283718804e-10
-3.670000000e-02	1.338561667e-01	-8.144028842e-05	3.449507685e-10
-3.680000000e-02	1.338561594e-01	-8.004549124e-05	4.127869369e-10
-3.690000000e-02	1.338561520e-01	-7.865069048e-05	4.619880476e-10
-3.700000000e-02	1.338561446e-01	-7.725588618e-05	4.293113942e-10
-3.710000000e-02	1.338561373e-01	-7.586107839e-05	1.317948168e-10
-3.720000000e-02	1.338561299e-01	-7.446626717e-05	4.560224893e-10
-3.740000000e-02	1.338561151e-01	-7.167663462e-05	1.876194065e-10
-3.750000000e-02	1.338561077e-01	-7.028181339e-05	8.881850780e-11
-3.760000000e-02	1.338561002e-01	-6.888698892e-05	4.050820280e-10
-3.790000000e-02	1.338560779e-01	-6.470249661e-05	3.709128487e-10
-3.820000000e-02	1.338560554e-01	-6.051797699e-05	3.441630822e-10
-3.830000000e-02	1.338560479e-01	-5.912313127e-05	3.132020467e-11
-3.840000000e-02	1.338560404e-01	-5.772828273e-05	1.985066493e-10
-3.860000000e-02	1.338560254e-01	-5.493857733e-05	2.078875558e-10
-3.870000000e-02	1.338560178e-01	-5.354372058e-05	1.003450443e-10
-3.880000000e-02	1.338560103e-01	-5.214886120e-05	2.113162941e-10
-3.900000000e-02	1.338559951e-01	-4.935913473e-05	2.873584612e-10
-3.920000000e-02	1.338559800e-01	-4.656939834e-05	1.065516674e-11
-3.940000000e-02	1.338559647e-01	-4.377965242e-05	1.276923377e-10
-3.950000000e-02	1.338559571e-01	-4.238477601e-05	3.153077645e-10
-3.960000000e-02	1.338559495e-01	-4.098989738e-05	3.603324207e-10
-3.970000000e-02	1.338559418e-01	-3.959501656e-05	5.943305961e-10
-3.980000000e-02	1.338559342e-01	-3.820013362e-05	3.426710990e-11
-3.990000000e-02	1.338559265e-01	-3.680524859e-05	5.847615038e-10
-4.000000000e-02	1.338559188e-01	-3.541036154e-05	2.148507299e-10
-4.010000000e-02	1.338559111e-01	-3.401547251e-05	2.768989464e-11
