# Im(epsi1)     Re(omega/c)      Im(omega/c)      Eq(det).Opt det CON kz, R=0.5 \mum, mu_c=0.3, Re(epsi1)=3.90solve_det_conkz_vs_kz.py
0.000000000e+00	1.340075791e-01	-4.862689209e-04	7.162762171e-12
-1.000000000e-04	1.340075869e-01	-4.849082502e-04	1.015308017e-11
-2.000000000e-04	1.340075946e-01	-4.835475789e-04	1.130901916e-11
-3.000000000e-04	1.340076023e-01	-4.821869073e-04	1.213294208e-11
-4.000000000e-04	1.340076100e-01	-4.808262351e-04	8.799709460e-12
-5.000000000e-04	1.340076176e-01	-4.794655625e-04	1.097515923e-11
-6.000000000e-04	1.340076252e-01	-4.781048895e-04	1.906121941e-11
-7.000000000e-04	1.340076327e-01	-4.767442160e-04	8.670210019e-12
-8.000000000e-04	1.340076402e-01	-4.753835420e-04	1.393221873e-11
-9.000000000e-04	1.340076477e-01	-4.740228676e-04	9.049067086e-12
-1.000000000e-03	1.340076551e-01	-4.726621927e-04	7.048641185e-12
-1.100000000e-03	1.340076625e-01	-4.713015174e-04	1.352569544e-11
-1.200000000e-03	1.340076698e-01	-4.699408416e-04	2.439759872e-11
-1.300000000e-03	1.340076771e-01	-4.685801654e-04	1.943415861e-11
-1.400000000e-03	1.340076843e-01	-4.672194888e-04	1.795905151e-11
-1.500000000e-03	1.340076915e-01	-4.658588117e-04	1.052651529e-10
-1.600000000e-03	1.340076987e-01	-4.644981342e-04	4.254204165e-11
-1.700000000e-03	1.340077058e-01	-4.631374562e-04	1.576524502e-11
-1.800000000e-03	1.340077129e-01	-4.617767778e-04	4.747798806e-12
-1.900000000e-03	1.340077200e-01	-4.604160990e-04	1.377840859e-11
-2.000000000e-03	1.340077270e-01	-4.590554197e-04	9.700017953e-12
-2.100000000e-03	1.340077339e-01	-4.576947400e-04	1.240715691e-11
-2.200000000e-03	1.340077409e-01	-4.563340599e-04	9.341963305e-12
-2.300000000e-03	1.340077477e-01	-4.549733794e-04	7.728325717e-12
-2.400000000e-03	1.340077546e-01	-4.536126984e-04	1.164045642e-11
-2.500000000e-03	1.340077614e-01	-4.522520171e-04	1.088169410e-11
-2.600000000e-03	1.340077681e-01	-4.508913353e-04	2.560075216e-11
-2.700000000e-03	1.340077748e-01	-4.495306531e-04	1.200981262e-11
-2.800000000e-03	1.340077815e-01	-4.481699704e-04	9.836972389e-12
-2.900000000e-03	1.340077881e-01	-4.468092874e-04	2.636519062e-11
-3.000000000e-03	1.340077947e-01	-4.454486040e-04	1.000783479e-11
-3.100000000e-03	1.340078013e-01	-4.440879201e-04	1.624107036e-11
-3.200000000e-03	1.340078078e-01	-4.427272359e-04	2.863298806e-11
-3.300000000e-03	1.340078142e-01	-4.413665512e-04	1.232266544e-11
-3.400000000e-03	1.340078207e-01	-4.400058662e-04	3.419867924e-11
-3.500000000e-03	1.340078270e-01	-4.386451807e-04	1.129810956e-11
-3.600000000e-03	1.340078334e-01	-4.372844949e-04	5.417748755e-12
-3.700000000e-03	1.340078397e-01	-4.359238086e-04	3.205548708e-11
-3.800000000e-03	1.340078459e-01	-4.345631220e-04	1.405876059e-11
-3.900000000e-03	1.340078522e-01	-4.332024350e-04	8.453540244e-12
-4.000000000e-03	1.340078583e-01	-4.318417476e-04	1.276783327e-11
-4.100000000e-03	1.340078645e-01	-4.304810598e-04	1.992763590e-11
-4.200000000e-03	1.340078706e-01	-4.291203716e-04	6.464042135e-12
-4.300000000e-03	1.340078766e-01	-4.277596830e-04	2.761664385e-11
-4.400000000e-03	1.340078826e-01	-4.263989941e-04	1.777032103e-11
-4.500000000e-03	1.340078886e-01	-4.250383048e-04	7.630496472e-12
-4.600000000e-03	1.340078945e-01	-4.236776151e-04	2.313739254e-11
-4.700000000e-03	1.340079004e-01	-4.223169250e-04	1.554088964e-11
-4.800000000e-03	1.340079063e-01	-4.209562346e-04	7.000465659e-12
-4.900000000e-03	1.340079121e-01	-4.195955438e-04	2.833739500e-11
-5.000000000e-03	1.340079178e-01	-4.182348526e-04	9.638735441e-12
-5.100000000e-03	1.340079235e-01	-4.168741611e-04	1.312400171e-11
-5.200000000e-03	1.340079292e-01	-4.155134692e-04	3.050819754e-11
-5.300000000e-03	1.340079349e-01	-4.141527769e-04	1.701866998e-11
-5.400000000e-03	1.340079405e-01	-4.127920843e-04	1.369574537e-11
-5.500000000e-03	1.340079460e-01	-4.114313913e-04	1.162699857e-11
-5.600000000e-03	1.340079515e-01	-4.100706980e-04	7.321957370e-12
-5.700000000e-03	1.340079570e-01	-4.087100043e-04	8.608616633e-12
-5.800000000e-03	1.340079624e-01	-4.073493102e-04	4.109735179e-11
-5.900000000e-03	1.340079678e-01	-4.059886159e-04	1.946123096e-11
-6.000000000e-03	1.340079732e-01	-4.046279211e-04	8.569612530e-12
-6.100000000e-03	1.340079785e-01	-4.032672261e-04	1.028314675e-11
-6.200000000e-03	1.340079838e-01	-4.019065306e-04	9.631847862e-11
-6.300000000e-03	1.340079890e-01	-4.005458349e-04	1.069129980e-10
-6.400000000e-03	1.340079942e-01	-3.991851388e-04	1.033132298e-11
-6.500000000e-03	1.340079993e-01	-3.978244424e-04	1.381686362e-11
-6.600000000e-03	1.340080044e-01	-3.964637456e-04	8.642239705e-12
-6.700000000e-03	1.340080095e-01	-3.951030485e-04	1.035835698e-11
-6.800000000e-03	1.340080145e-01	-3.937423511e-04	1.455458177e-11
-6.900000000e-03	1.340080195e-01	-3.923816534e-04	1.619068942e-11
-7.000000000e-03	1.340080244e-01	-3.910209553e-04	1.703956104e-11
-7.100000000e-03	1.340080293e-01	-3.896602569e-04	6.826054428e-12
-7.200000000e-03	1.340080341e-01	-3.882995581e-04	1.002137983e-10
-7.300000000e-03	1.340080390e-01	-3.869388591e-04	7.966980766e-12
-7.400000000e-03	1.340080437e-01	-3.855781598e-04	1.679810539e-11
-7.500000000e-03	1.340080485e-01	-3.842174601e-04	3.474836044e-11
-7.600000000e-03	1.340080531e-01	-3.828567601e-04	1.088591294e-11
-7.700000000e-03	1.340080578e-01	-3.814960598e-04	1.395202385e-11
-7.800000000e-03	1.340080624e-01	-3.801353592e-04	2.227330484e-11
-7.900000000e-03	1.340080670e-01	-3.787746583e-04	1.476202322e-11
-8.000000000e-03	1.340080715e-01	-3.774139571e-04	7.456117150e-12
-8.100000000e-03	1.340080760e-01	-3.760532556e-04	1.070072039e-11
-8.200000000e-03	1.340080804e-01	-3.746925538e-04	2.361980954e-11
-8.300000000e-03	1.340080848e-01	-3.733318517e-04	1.359990230e-11
-8.400000000e-03	1.340080892e-01	-3.719711493e-04	1.855040532e-11
-8.500000000e-03	1.340080935e-01	-3.706104466e-04	4.645259663e-11
-8.600000000e-03	1.340080978e-01	-3.692497436e-04	7.838414647e-12
-8.700000000e-03	1.340081020e-01	-3.678890403e-04	7.856281066e-12
-8.800000000e-03	1.340081062e-01	-3.665283367e-04	1.542004969e-11
-8.900000000e-03	1.340081103e-01	-3.651676328e-04	3.064380014e-11
-9.000000000e-03	1.340081144e-01	-3.638069287e-04	1.608456406e-11
-9.100000000e-03	1.340081185e-01	-3.624462243e-04	1.652352091e-11
-9.200000000e-03	1.340081225e-01	-3.610855196e-04	1.393126366e-11
-9.300000000e-03	1.340081265e-01	-3.597248146e-04	5.124187655e-11
-9.400000000e-03	1.340081305e-01	-3.583641093e-04	4.946029383e-11
-9.500000000e-03	1.340081344e-01	-3.570034038e-04	6.081102816e-12
-9.600000000e-03	1.340081382e-01	-3.556426980e-04	8.158047580e-12
-9.700000000e-03	1.340081420e-01	-3.542819920e-04	4.083433409e-12
-9.800000000e-03	1.340081458e-01	-3.529212856e-04	1.940339543e-11
-9.900000000e-03	1.340081496e-01	-3.515605790e-04	1.176801647e-11
-1.000000000e-02	1.340081533e-01	-3.501998722e-04	6.267457543e-12
-1.010000000e-02	1.340081569e-01	-3.488391651e-04	8.787975721e-12
-1.020000000e-02	1.340081605e-01	-3.474784577e-04	6.531516286e-11
-1.030000000e-02	1.340081641e-01	-3.461177500e-04	8.237008452e-12
-1.040000000e-02	1.340081676e-01	-3.447570422e-04	1.131420162e-11
-1.050000000e-02	1.340081711e-01	-3.433963340e-04	2.419613236e-11
-1.060000000e-02	1.340081746e-01	-3.420356256e-04	2.037235971e-11
-1.070000000e-02	1.340081780e-01	-3.406749170e-04	1.068943319e-11
-1.080000000e-02	1.340081813e-01	-3.393142081e-04	1.484436216e-11
-1.090000000e-02	1.340081847e-01	-3.379534990e-04	2.174402035e-11
-1.100000000e-02	1.340081879e-01	-3.365927896e-04	1.553195416e-11
-1.110000000e-02	1.340081912e-01	-3.352320800e-04	3.755892235e-11
-1.120000000e-02	1.340081944e-01	-3.338713701e-04	3.984760197e-12
-1.130000000e-02	1.340081975e-01	-3.325106601e-04	1.518797629e-11
-1.140000000e-02	1.340082007e-01	-3.311499497e-04	3.393577394e-11
-1.150000000e-02	1.340082037e-01	-3.297892392e-04	8.816542520e-12
-1.160000000e-02	1.340082068e-01	-3.284285284e-04	1.721075842e-11
-1.170000000e-02	1.340082098e-01	-3.270678174e-04	3.169385347e-11
-1.180000000e-02	1.340082127e-01	-3.257071062e-04	2.865127747e-11
-1.190000000e-02	1.340082156e-01	-3.243463947e-04	1.624013021e-11
-1.200000000e-02	1.340082185e-01	-3.229856831e-04	1.232691958e-11
-1.210000000e-02	1.340082213e-01	-3.216249712e-04	3.483173977e-11
-1.220000000e-02	1.340082241e-01	-3.202642590e-04	2.970751936e-11
-1.230000000e-02	1.340082269e-01	-3.189035467e-04	9.339275474e-12
-1.240000000e-02	1.340082296e-01	-3.175428342e-04	7.598908425e-12
-1.250000000e-02	1.340082322e-01	-3.161821214e-04	1.136852298e-11
-1.260000000e-02	1.340082348e-01	-3.148214085e-04	2.861200840e-11
-1.270000000e-02	1.340082374e-01	-3.134606953e-04	7.380136832e-12
-1.280000000e-02	1.340082400e-01	-3.120999820e-04	1.198356578e-11
-1.290000000e-02	1.340082425e-01	-3.107392684e-04	1.341127530e-11
-1.300000000e-02	1.340082449e-01	-3.093785546e-04	1.991626230e-11
-1.310000000e-02	1.340082473e-01	-3.080178407e-04	1.998790133e-11
-1.320000000e-02	1.340082497e-01	-3.066571265e-04	1.452572060e-11
-1.330000000e-02	1.340082520e-01	-3.052964121e-04	1.690341697e-11
-1.340000000e-02	1.340082543e-01	-3.039356976e-04	1.450189854e-11
-1.350000000e-02	1.340082566e-01	-3.025749829e-04	1.163471993e-11
-1.360000000e-02	1.340082588e-01	-3.012142679e-04	2.420007939e-11
-1.370000000e-02	1.340082610e-01	-2.998535528e-04	1.380897767e-11
-1.380000000e-02	1.340082631e-01	-2.984928375e-04	7.987055384e-12
-1.390000000e-02	1.340082652e-01	-2.971321221e-04	8.301566671e-12
-1.400000000e-02	1.340082672e-01	-2.957714064e-04	1.416006491e-11
-1.410000000e-02	1.340082692e-01	-2.944106906e-04	2.460539011e-11
-1.420000000e-02	1.340082712e-01	-2.930499746e-04	4.473485364e-11
-1.430000000e-02	1.340082731e-01	-2.916892584e-04	3.942978958e-11
-1.440000000e-02	1.340082750e-01	-2.903285421e-04	2.162287713e-11
-1.450000000e-02	1.340082768e-01	-2.889678255e-04	7.101365101e-12
-1.460000000e-02	1.340082786e-01	-2.876071089e-04	2.034645657e-11
-1.470000000e-02	1.340082804e-01	-2.862463920e-04	1.659581230e-11
-1.480000000e-02	1.340082821e-01	-2.848856750e-04	8.674392025e-12
-1.490000000e-02	1.340082837e-01	-2.835249578e-04	9.569028282e-12
-1.500000000e-02	1.340082854e-01	-2.821642405e-04	9.536601186e-12
-1.510000000e-02	1.340082870e-01	-2.808035230e-04	6.989026123e-12
-1.520000000e-02	1.340082885e-01	-2.794428054e-04	4.693466164e-11
-1.530000000e-02	1.340082900e-01	-2.780820876e-04	1.561325220e-11
-1.540000000e-02	1.340082915e-01	-2.767213696e-04	7.200137421e-12
-1.550000000e-02	1.340082929e-01	-2.753606516e-04	5.306432963e-12
-1.560000000e-02	1.340082943e-01	-2.739999333e-04	2.096828812e-11
-1.570000000e-02	1.340082956e-01	-2.726392150e-04	6.090383315e-11
-1.580000000e-02	1.340082969e-01	-2.712784964e-04	1.781723978e-11
-1.590000000e-02	1.340082982e-01	-2.699177778e-04	1.128015038e-11
-1.600000000e-02	1.340082994e-01	-2.685570590e-04	2.098827857e-11
-1.610000000e-02	1.340083006e-01	-2.671963400e-04	6.651454595e-12
-1.620000000e-02	1.340083017e-01	-2.658356210e-04	7.505250525e-12
-1.630000000e-02	1.340083028e-01	-2.644749018e-04	7.948229176e-12
-1.640000000e-02	1.340083038e-01	-2.631141824e-04	2.015631774e-11
-1.650000000e-02	1.340083048e-01	-2.617534630e-04	1.125322852e-11
-1.660000000e-02	1.340083058e-01	-2.603927434e-04	1.136584383e-11
-1.670000000e-02	1.340083067e-01	-2.590320237e-04	1.388633855e-11
-1.680000000e-02	1.340083076e-01	-2.576713039e-04	2.618903410e-11
-1.690000000e-02	1.340083085e-01	-2.563105840e-04	6.034435828e-11
-1.700000000e-02	1.340083093e-01	-2.549498639e-04	1.422139380e-11
-1.710000000e-02	1.340083100e-01	-2.535891437e-04	1.328155000e-11
-1.720000000e-02	1.340083108e-01	-2.522284235e-04	1.256455439e-11
-1.730000000e-02	1.340083114e-01	-2.508677031e-04	9.939984005e-12
-1.740000000e-02	1.340083121e-01	-2.495069826e-04	1.782845527e-11
-1.750000000e-02	1.340083127e-01	-2.481462620e-04	6.428257246e-12
-1.760000000e-02	1.340083132e-01	-2.467855412e-04	8.505643928e-12
-1.770000000e-02	1.340083137e-01	-2.454248204e-04	5.968134685e-12
-1.780000000e-02	1.340083142e-01	-2.440640995e-04	1.388963422e-11
-1.790000000e-02	1.340083146e-01	-2.427033785e-04	1.622744489e-10
-1.800000000e-02	1.340083150e-01	-2.413426574e-04	1.280629564e-11
-1.810000000e-02	1.340083154e-01	-2.399819362e-04	3.849578396e-11
-1.820000000e-02	1.340083157e-01	-2.386212149e-04	1.313920913e-11
-1.830000000e-02	1.340083159e-01	-2.372604935e-04	1.024244947e-11
-1.840000000e-02	1.340083162e-01	-2.358997721e-04	2.226553005e-11
-1.850000000e-02	1.340083164e-01	-2.345390505e-04	3.945453050e-11
-1.860000000e-02	1.340083165e-01	-2.331783289e-04	1.182172862e-11
-1.870000000e-02	1.340083166e-01	-2.318176072e-04	8.264594380e-12
-1.880000000e-02	1.340083167e-01	-2.304568854e-04	5.674216877e-11
-1.890000000e-02	1.340083167e-01	-2.290961635e-04	4.068668701e-11
-1.900000000e-02	1.340083166e-01	-2.277354415e-04	6.179209447e-12
-1.910000000e-02	1.340083166e-01	-2.263747195e-04	1.645592275e-11
-1.920000000e-02	1.340083165e-01	-2.250139974e-04	1.365471736e-11
-1.930000000e-02	1.340083163e-01	-2.236532753e-04	1.249734887e-11
-1.940000000e-02	1.340083161e-01	-2.222925531e-04	4.604497265e-11
-1.950000000e-02	1.340083159e-01	-2.209318308e-04	9.063054644e-12
-1.960000000e-02	1.340083156e-01	-2.195711084e-04	2.207792229e-11
-1.970000000e-02	1.340083153e-01	-2.182103860e-04	7.458747872e-12
-1.980000000e-02	1.340083150e-01	-2.168496635e-04	1.767757983e-11
-1.990000000e-02	1.340083146e-01	-2.154889410e-04	2.437507289e-11
-2.000000000e-02	1.340083141e-01	-2.141282184e-04	9.279365429e-12
-2.010000000e-02	1.340083137e-01	-2.127674958e-04	5.590418420e-12
-2.020000000e-02	1.340083131e-01	-2.114067731e-04	1.618584332e-11
-2.030000000e-02	1.340083126e-01	-2.100460504e-04	3.099043691e-11
-2.040000000e-02	1.340083120e-01	-2.086853276e-04	6.336034379e-12
-2.050000000e-02	1.340083113e-01	-2.073246048e-04	1.287709317e-11
-2.060000000e-02	1.340083106e-01	-2.059638819e-04	2.499158207e-11
-2.070000000e-02	1.340083099e-01	-2.046031590e-04	3.826433027e-11
-2.080000000e-02	1.340083092e-01	-2.032424361e-04	8.968980507e-12
-2.090000000e-02	1.340083083e-01	-2.018817131e-04	1.159731811e-11
-2.100000000e-02	1.340083075e-01	-2.005209901e-04	8.034293470e-12
-2.110000000e-02	1.340083066e-01	-1.991602671e-04	1.729783670e-11
-2.120000000e-02	1.340083057e-01	-1.977995440e-04	1.035860380e-11
-2.130000000e-02	1.340083047e-01	-1.964388209e-04	1.209089246e-11
-2.140000000e-02	1.340083037e-01	-1.950780978e-04	3.354743661e-11
-2.150000000e-02	1.340083026e-01	-1.937173747e-04	6.376919903e-12
-2.160000000e-02	1.340083015e-01	-1.923566516e-04	1.101964749e-10
-2.170000000e-02	1.340083004e-01	-1.909959284e-04	2.518761171e-11
-2.180000000e-02	1.340082992e-01	-1.896352052e-04	9.715538201e-12
-2.190000000e-02	1.340082980e-01	-1.882744820e-04	1.487914637e-11
-2.200000000e-02	1.340082967e-01	-1.869137587e-04	7.771986393e-12
-2.210000000e-02	1.340082954e-01	-1.855530355e-04	7.159128305e-12
-2.220000000e-02	1.340082941e-01	-1.841923123e-04	6.514304103e-12
-2.230000000e-02	1.340082927e-01	-1.828315890e-04	7.663285738e-12
-2.240000000e-02	1.340082912e-01	-1.814708658e-04	1.139878774e-11
-2.250000000e-02	1.340082898e-01	-1.801101425e-04	9.970304254e-12
-2.260000000e-02	1.340082883e-01	-1.787494193e-04	8.653449303e-12
-2.270000000e-02	1.340082867e-01	-1.773886960e-04	1.304208144e-11
-2.280000000e-02	1.340082851e-01	-1.760279728e-04	1.733768974e-11
-2.290000000e-02	1.340082835e-01	-1.746672496e-04	1.045551789e-11
-2.300000000e-02	1.340082818e-01	-1.733065263e-04	1.615989691e-11
-2.310000000e-02	1.340082801e-01	-1.719458031e-04	1.686510591e-11
-2.320000000e-02	1.340082783e-01	-1.705850799e-04	2.243509037e-11
-2.330000000e-02	1.340082765e-01	-1.692243567e-04	9.909685194e-12
-2.340000000e-02	1.340082747e-01	-1.678636336e-04	1.217849452e-11
-2.350000000e-02	1.340082728e-01	-1.665029104e-04	8.251247338e-12
-2.360000000e-02	1.340082709e-01	-1.651421873e-04	6.503704347e-12
-2.370000000e-02	1.340082689e-01	-1.637814642e-04	2.452885284e-11
-2.380000000e-02	1.340082669e-01	-1.624207411e-04	1.078193470e-11
-2.390000000e-02	1.340082648e-01	-1.610600180e-04	2.017082780e-11
-2.400000000e-02	1.340082628e-01	-1.596992950e-04	5.994168428e-12
-2.410000000e-02	1.340082606e-01	-1.583385720e-04	9.447393512e-12
-2.420000000e-02	1.340082584e-01	-1.569778491e-04	7.100353567e-12
-2.430000000e-02	1.340082562e-01	-1.556171261e-04	1.539304098e-11
-2.440000000e-02	1.340082540e-01	-1.542564033e-04	1.386297690e-11
-2.450000000e-02	1.340082517e-01	-1.528956804e-04	5.997237743e-12
-2.460000000e-02	1.340082493e-01	-1.515349576e-04	8.331176010e-12
-2.470000000e-02	1.340082470e-01	-1.501742349e-04	1.541492397e-11
-2.480000000e-02	1.340082445e-01	-1.488135121e-04	8.634836611e-12
-2.490000000e-02	1.340082421e-01	-1.474527895e-04	6.378942360e-12
-2.500000000e-02	1.340082396e-01	-1.460920669e-04	5.058220320e-11
-2.510000000e-02	1.340082370e-01	-1.447313443e-04	2.281736642e-11
-2.520000000e-02	1.340082344e-01	-1.433706218e-04	1.600749590e-11
-2.530000000e-02	1.340082318e-01	-1.420098994e-04	2.367828350e-11
-2.540000000e-02	1.340082291e-01	-1.406491770e-04	3.518255857e-11
-2.550000000e-02	1.340082264e-01	-1.392884546e-04	8.128002989e-12
-2.560000000e-02	1.340082237e-01	-1.379277324e-04	7.315473779e-12
-2.570000000e-02	1.340082209e-01	-1.365670102e-04	1.135425148e-11
-2.580000000e-02	1.340082181e-01	-1.352062880e-04	1.216954282e-11
-2.590000000e-02	1.340082152e-01	-1.338455660e-04	3.381335871e-11
-2.600000000e-02	1.340082123e-01	-1.324848440e-04	1.211173999e-11
-2.610000000e-02	1.340082093e-01	-1.311241221e-04	1.716557616e-11
-2.620000000e-02	1.340082063e-01	-1.297634002e-04	8.810945579e-12
-2.630000000e-02	1.340082033e-01	-1.284026785e-04	1.031966244e-11
-2.640000000e-02	1.340082002e-01	-1.270419568e-04	1.330336891e-11
-2.650000000e-02	1.340081971e-01	-1.256812352e-04	5.976047817e-12
-2.660000000e-02	1.340081939e-01	-1.243205136e-04	1.199053401e-11
-2.670000000e-02	1.340081907e-01	-1.229597922e-04	2.169230652e-11
-2.680000000e-02	1.340081874e-01	-1.215990709e-04	1.135960731e-11
-2.690000000e-02	1.340081841e-01	-1.202383496e-04	1.189212247e-11
-2.700000000e-02	1.340081808e-01	-1.188776284e-04	1.347468646e-11
-2.710000000e-02	1.340081774e-01	-1.175169074e-04	1.008220221e-11
-2.720000000e-02	1.340081740e-01	-1.161561864e-04	7.479982888e-12
-2.730000000e-02	1.340081706e-01	-1.147954655e-04	5.909765276e-12
-2.740000000e-02	1.340081671e-01	-1.134347447e-04	2.440877005e-11
-2.750000000e-02	1.340081635e-01	-1.120740241e-04	6.278530491e-11
-2.760000000e-02	1.340081600e-01	-1.107133035e-04	1.023193333e-11
-2.770000000e-02	1.340081563e-01	-1.093525830e-04	7.747214956e-12
-2.780000000e-02	1.340081527e-01	-1.079918627e-04	1.303942411e-11
-2.790000000e-02	1.340081490e-01	-1.066311424e-04	7.873511151e-12
-2.800000000e-02	1.340081452e-01	-1.052704223e-04	3.438402561e-11
-2.810000000e-02	1.340081415e-01	-1.039097023e-04	6.376154469e-12
-2.820000000e-02	1.340081376e-01	-1.025489824e-04	2.104880372e-11
-2.830000000e-02	1.340081338e-01	-1.011882626e-04	1.333828550e-11
-2.840000000e-02	1.340081298e-01	-9.982754298e-05	1.471885787e-11
-2.850000000e-02	1.340081259e-01	-9.846682346e-05	5.159776932e-11
-2.860000000e-02	1.340081219e-01	-9.710610404e-05	1.028872774e-11
-2.870000000e-02	1.340081179e-01	-9.574538476e-05	1.095851761e-11
-2.880000000e-02	1.340081138e-01	-9.438466562e-05	6.970574167e-12
-2.890000000e-02	1.340081097e-01	-9.302394660e-05	1.741880410e-11
-2.900000000e-02	1.340081055e-01	-9.166322772e-05	2.246059349e-11
-2.910000000e-02	1.340081013e-01	-9.030250898e-05	2.305785296e-11
-2.920000000e-02	1.340080971e-01	-8.894179037e-05	1.426038020e-11
-2.930000000e-02	1.340080928e-01	-8.758107189e-05	1.773326245e-11
-2.940000000e-02	1.340080885e-01	-8.622035357e-05	8.675448235e-12
-2.950000000e-02	1.340080841e-01	-8.485963539e-05	1.030552982e-11
-2.960000000e-02	1.340080797e-01	-8.349891736e-05	1.472135563e-11
-2.970000000e-02	1.340080753e-01	-8.213819947e-05	8.149470699e-12
-2.980000000e-02	1.340080708e-01	-8.077748174e-05	3.989694385e-11
-2.990000000e-02	1.340080662e-01	-7.941676415e-05	1.664207241e-11
-3.000000000e-02	1.340080617e-01	-7.805604672e-05	5.138491175e-12
