# Im(epsi1)     Re(omega/c)      Im(omega/c)      Eq(det).Opt det CON kz, R=0.5 \mum, mu_c=0.3, Re(epsi1)=3.90solve_det_conkz_vs_kz.py
0.000000000e+00	1.339975729e-01	-5.435555655e-04	8.118284441e-12
-1.000000000e-04	1.339975824e-01	-5.421962956e-04	1.355124153e-11
-2.000000000e-04	1.339975918e-01	-5.408370251e-04	2.670411741e-11
-3.000000000e-04	1.339976012e-01	-5.394777540e-04	2.303253101e-11
-4.000000000e-04	1.339976106e-01	-5.381184824e-04	1.006860535e-11
-5.000000000e-04	1.339976200e-01	-5.367592103e-04	1.116379367e-11
-6.000000000e-04	1.339976292e-01	-5.353999376e-04	5.556122424e-12
-7.000000000e-04	1.339976385e-01	-5.340406643e-04	1.879406994e-11
-8.000000000e-04	1.339976477e-01	-5.326813905e-04	9.882416350e-12
-9.000000000e-04	1.339976569e-01	-5.313221162e-04	2.759974582e-11
-1.000000000e-03	1.339976660e-01	-5.299628413e-04	1.102829433e-11
-1.100000000e-03	1.339976751e-01	-5.286035659e-04	1.387471001e-11
-1.200000000e-03	1.339976841e-01	-5.272442900e-04	2.335404306e-11
-1.300000000e-03	1.339976932e-01	-5.258850135e-04	2.745847150e-11
-1.400000000e-03	1.339977021e-01	-5.245257365e-04	1.972877741e-11
-1.500000000e-03	1.339977110e-01	-5.231664589e-04	1.090604775e-11
-1.600000000e-03	1.339977199e-01	-5.218071809e-04	2.275047499e-11
-1.700000000e-03	1.339977288e-01	-5.204479023e-04	1.169330775e-11
-1.800000000e-03	1.339977376e-01	-5.190886232e-04	1.351504640e-11
-1.900000000e-03	1.339977463e-01	-5.177293435e-04	1.188619694e-11
-2.000000000e-03	1.339977550e-01	-5.163700634e-04	1.660052906e-11
-2.100000000e-03	1.339977637e-01	-5.150107827e-04	1.874972645e-11
-2.200000000e-03	1.339977723e-01	-5.136515016e-04	5.999086421e-12
-2.300000000e-03	1.339977809e-01	-5.122922199e-04	1.185916947e-11
-2.400000000e-03	1.339977895e-01	-5.109329377e-04	7.529809559e-12
-2.500000000e-03	1.339977980e-01	-5.095736550e-04	1.364585449e-11
-2.600000000e-03	1.339978065e-01	-5.082143717e-04	1.119976535e-11
-2.700000000e-03	1.339978149e-01	-5.068550880e-04	3.332453437e-11
-2.800000000e-03	1.339978233e-01	-5.054958038e-04	1.927323922e-11
-2.900000000e-03	1.339978316e-01	-5.041365191e-04	1.060404219e-11
-3.000000000e-03	1.339978399e-01	-5.027772339e-04	1.722069146e-11
-3.100000000e-03	1.339978482e-01	-5.014179482e-04	7.673382691e-12
-3.200000000e-03	1.339978564e-01	-5.000586619e-04	2.553355254e-11
-3.300000000e-03	1.339978646e-01	-4.986993753e-04	2.635804888e-11
-3.400000000e-03	1.339978727e-01	-4.973400881e-04	4.549733146e-11
-3.500000000e-03	1.339978808e-01	-4.959808004e-04	8.054666027e-12
-3.600000000e-03	1.339978889e-01	-4.946215122e-04	4.168848466e-11
-3.700000000e-03	1.339978969e-01	-4.932622236e-04	3.427519364e-11
-3.800000000e-03	1.339979049e-01	-4.919029345e-04	1.012394836e-11
-3.900000000e-03	1.339979128e-01	-4.905436449e-04	6.764577923e-12
-4.000000000e-03	1.339979207e-01	-4.891843548e-04	1.340522534e-11
-4.100000000e-03	1.339979286e-01	-4.878250642e-04	2.436606673e-11
-4.200000000e-03	1.339979364e-01	-4.864657732e-04	1.670803107e-11
-4.300000000e-03	1.339979441e-01	-4.851064817e-04	3.624511881e-11
-4.400000000e-03	1.339979519e-01	-4.837471898e-04	3.600205003e-11
-4.500000000e-03	1.339979596e-01	-4.823878973e-04	9.878766002e-12
-4.600000000e-03	1.339979672e-01	-4.810286044e-04	1.289587586e-11
-4.700000000e-03	1.339979748e-01	-4.796693111e-04	1.048045538e-11
-4.800000000e-03	1.339979824e-01	-4.783100173e-04	1.387637020e-11
-4.900000000e-03	1.339979899e-01	-4.769507230e-04	3.229676016e-11
-5.000000000e-03	1.339979974e-01	-4.755914283e-04	8.957945090e-12
-5.100000000e-03	1.339980048e-01	-4.742321331e-04	6.555781643e-12
-5.200000000e-03	1.339980122e-01	-4.728728374e-04	1.083602470e-11
-5.300000000e-03	1.339980196e-01	-4.715135413e-04	2.754852567e-11
-5.400000000e-03	1.339980269e-01	-4.701542448e-04	8.503086232e-11
-5.500000000e-03	1.339980342e-01	-4.687949478e-04	1.691325661e-11
-5.600000000e-03	1.339980414e-01	-4.674356504e-04	9.100753273e-12
-5.700000000e-03	1.339980486e-01	-4.660763526e-04	1.920800058e-11
-5.800000000e-03	1.339980557e-01	-4.647170543e-04	2.362377812e-11
-5.900000000e-03	1.339980628e-01	-4.633577555e-04	7.115047151e-12
-6.000000000e-03	1.339980699e-01	-4.619984563e-04	2.244294521e-11
-6.100000000e-03	1.339980769e-01	-4.606391567e-04	1.902613208e-11
-6.200000000e-03	1.339980839e-01	-4.592798567e-04	6.986305161e-12
-6.300000000e-03	1.339980909e-01	-4.579205562e-04	8.056219659e-11
-6.400000000e-03	1.339980978e-01	-4.565612553e-04	2.140512620e-11
-6.500000000e-03	1.339981046e-01	-4.552019540e-04	1.036774514e-11
-6.600000000e-03	1.339981115e-01	-4.538426523e-04	2.032138541e-11
-6.700000000e-03	1.339981182e-01	-4.524833501e-04	1.560097643e-11
-6.800000000e-03	1.339981250e-01	-4.511240475e-04	2.104489163e-11
-6.900000000e-03	1.339981317e-01	-4.497647445e-04	5.777458595e-12
-7.000000000e-03	1.339981383e-01	-4.484054411e-04	8.385829732e-12
-7.100000000e-03	1.339981449e-01	-4.470461373e-04	7.957530266e-12
-7.200000000e-03	1.339981515e-01	-4.456868331e-04	1.518939761e-11
-7.300000000e-03	1.339981580e-01	-4.443275284e-04	7.664877713e-12
-7.400000000e-03	1.339981645e-01	-4.429682234e-04	7.360236835e-12
-7.500000000e-03	1.339981710e-01	-4.416089179e-04	1.896823245e-11
-7.600000000e-03	1.339981774e-01	-4.402496121e-04	2.241487617e-11
-7.700000000e-03	1.339981838e-01	-4.388903058e-04	7.800478192e-12
-7.800000000e-03	1.339981901e-01	-4.375309992e-04	1.898330330e-11
-7.900000000e-03	1.339981964e-01	-4.361716921e-04	9.766229275e-12
-8.000000000e-03	1.339982026e-01	-4.348123847e-04	1.372681142e-11
-8.100000000e-03	1.339982088e-01	-4.334530768e-04	4.876689888e-12
-8.200000000e-03	1.339982150e-01	-4.320937686e-04	1.045792831e-11
-8.300000000e-03	1.339982211e-01	-4.307344600e-04	7.108729311e-12
-8.400000000e-03	1.339982272e-01	-4.293751510e-04	2.243938183e-11
-8.500000000e-03	1.339982332e-01	-4.280158417e-04	7.599256021e-12
-8.600000000e-03	1.339982392e-01	-4.266565319e-04	1.071087355e-11
-8.700000000e-03	1.339982452e-01	-4.252972218e-04	8.431746317e-12
-8.800000000e-03	1.339982511e-01	-4.239379112e-04	2.408623702e-11
-8.900000000e-03	1.339982570e-01	-4.225786004e-04	2.346658615e-11
-9.000000000e-03	1.339982628e-01	-4.212192891e-04	1.359076708e-11
-9.100000000e-03	1.339982686e-01	-4.198599775e-04	1.222103433e-11
-9.200000000e-03	1.339982743e-01	-4.185006655e-04	1.124975473e-11
-9.300000000e-03	1.339982800e-01	-4.171413531e-04	9.203410434e-12
-9.400000000e-03	1.339982857e-01	-4.157820404e-04	1.055732319e-11
-9.500000000e-03	1.339982913e-01	-4.144227273e-04	1.417811498e-11
-9.600000000e-03	1.339982969e-01	-4.130634138e-04	2.726599104e-11
-9.700000000e-03	1.339983025e-01	-4.117041000e-04	8.294773074e-12
-9.800000000e-03	1.339983080e-01	-4.103447859e-04	2.877131444e-11
-9.900000000e-03	1.339983134e-01	-4.089854713e-04	1.754305524e-11
-1.000000000e-02	1.339983189e-01	-4.076261565e-04	2.538629774e-11
-1.010000000e-02	1.339983242e-01	-4.062668412e-04	1.475789138e-11
-1.020000000e-02	1.339983296e-01	-4.049075257e-04	1.240491827e-11
-1.030000000e-02	1.339983349e-01	-4.035482098e-04	1.241656309e-11
-1.040000000e-02	1.339983401e-01	-4.021888935e-04	1.555059310e-11
-1.050000000e-02	1.339983453e-01	-4.008295769e-04	1.456375675e-11
-1.060000000e-02	1.339983505e-01	-3.994702600e-04	1.494506295e-11
-1.070000000e-02	1.339983556e-01	-3.981109427e-04	1.941853670e-11
-1.080000000e-02	1.339983607e-01	-3.967516251e-04	2.376972089e-11
-1.090000000e-02	1.339983658e-01	-3.953923071e-04	1.114993205e-11
-1.100000000e-02	1.339983708e-01	-3.940329889e-04	1.716247704e-11
-1.110000000e-02	1.339983758e-01	-3.926736703e-04	4.247998500e-11
-1.120000000e-02	1.339983807e-01	-3.913143513e-04	4.377829199e-11
-1.130000000e-02	1.339983856e-01	-3.899550321e-04	8.252021213e-12
-1.140000000e-02	1.339983904e-01	-3.885957125e-04	2.112336111e-11
-1.150000000e-02	1.339983952e-01	-3.872363926e-04	8.734932080e-12
-1.160000000e-02	1.339984000e-01	-3.858770724e-04	1.008333073e-11
-1.170000000e-02	1.339984047e-01	-3.845177518e-04	2.085502553e-11
-1.180000000e-02	1.339984094e-01	-3.831584310e-04	5.578010863e-12
-1.190000000e-02	1.339984140e-01	-3.817991098e-04	1.724338980e-11
-1.200000000e-02	1.339984186e-01	-3.804397884e-04	1.018914093e-11
-1.210000000e-02	1.339984232e-01	-3.790804666e-04	1.914509426e-11
-1.220000000e-02	1.339984277e-01	-3.777211445e-04	2.000409998e-11
-1.230000000e-02	1.339984321e-01	-3.763618221e-04	1.279498504e-11
-1.240000000e-02	1.339984366e-01	-3.750024994e-04	3.083906804e-11
-1.250000000e-02	1.339984410e-01	-3.736431764e-04	1.799164621e-11
-1.260000000e-02	1.339984453e-01	-3.722838531e-04	2.493676497e-11
-1.270000000e-02	1.339984496e-01	-3.709245295e-04	1.278325046e-11
-1.280000000e-02	1.339984539e-01	-3.695652057e-04	6.283604711e-12
-1.290000000e-02	1.339984581e-01	-3.682058815e-04	1.885660663e-11
-1.300000000e-02	1.339984623e-01	-3.668465570e-04	3.109936708e-11
-1.310000000e-02	1.339984664e-01	-3.654872323e-04	1.318061871e-11
-1.320000000e-02	1.339984705e-01	-3.641279073e-04	9.139460302e-12
-1.330000000e-02	1.339984746e-01	-3.627685819e-04	1.122307432e-11
-1.340000000e-02	1.339984786e-01	-3.614092563e-04	1.998285544e-11
-1.350000000e-02	1.339984826e-01	-3.600499305e-04	2.268629269e-11
-1.360000000e-02	1.339984865e-01	-3.586906043e-04	8.435001050e-11
-1.370000000e-02	1.339984904e-01	-3.573312779e-04	7.286549795e-12
-1.380000000e-02	1.339984943e-01	-3.559719512e-04	1.180830926e-11
-1.390000000e-02	1.339984981e-01	-3.546126242e-04	9.468582892e-12
-1.400000000e-02	1.339985019e-01	-3.532532970e-04	1.870065554e-11
-1.410000000e-02	1.339985056e-01	-3.518939695e-04	9.789270209e-12
-1.420000000e-02	1.339985093e-01	-3.505346417e-04	1.085063284e-11
-1.430000000e-02	1.339985129e-01	-3.491753137e-04	1.219800699e-11
-1.440000000e-02	1.339985165e-01	-3.478159854e-04	1.006351205e-11
-1.450000000e-02	1.339985201e-01	-3.464566568e-04	1.329423135e-11
-1.460000000e-02	1.339985236e-01	-3.450973280e-04	1.541271825e-11
-1.470000000e-02	1.339985271e-01	-3.437379990e-04	1.932636131e-11
-1.480000000e-02	1.339985306e-01	-3.423786697e-04	4.204381091e-11
-1.490000000e-02	1.339985340e-01	-3.410193401e-04	1.065649544e-11
-1.500000000e-02	1.339985373e-01	-3.396600103e-04	1.201059862e-11
-1.510000000e-02	1.339985406e-01	-3.383006802e-04	1.767526272e-11
-1.520000000e-02	1.339985439e-01	-3.369413499e-04	1.371931465e-11
-1.530000000e-02	1.339985472e-01	-3.355820194e-04	2.194768864e-11
-1.540000000e-02	1.339985504e-01	-3.342226886e-04	1.119352828e-11
-1.550000000e-02	1.339985535e-01	-3.328633576e-04	1.879084267e-11
-1.560000000e-02	1.339985566e-01	-3.315040263e-04	2.128976686e-11
-1.570000000e-02	1.339985597e-01	-3.301446949e-04	3.207273928e-11
-1.580000000e-02	1.339985627e-01	-3.287853631e-04	6.624449031e-12
-1.590000000e-02	1.339985657e-01	-3.274260312e-04	5.708356668e-11
-1.600000000e-02	1.339985687e-01	-3.260666990e-04	1.398955976e-11
-1.610000000e-02	1.339985716e-01	-3.247073666e-04	1.143763944e-11
-1.620000000e-02	1.339985744e-01	-3.233480340e-04	3.976241209e-11
-1.630000000e-02	1.339985773e-01	-3.219887012e-04	9.991335520e-12
-1.640000000e-02	1.339985800e-01	-3.206293681e-04	1.265695677e-11
-1.650000000e-02	1.339985828e-01	-3.192700348e-04	1.238673477e-11
-1.660000000e-02	1.339985855e-01	-3.179107013e-04	1.946044059e-11
-1.670000000e-02	1.339985881e-01	-3.165513676e-04	1.259023042e-11
-1.680000000e-02	1.339985908e-01	-3.151920337e-04	2.889195253e-11
-1.690000000e-02	1.339985933e-01	-3.138326996e-04	1.677576423e-11
-1.700000000e-02	1.339985959e-01	-3.124733653e-04	1.091220587e-11
-1.710000000e-02	1.339985984e-01	-3.111140307e-04	3.918185561e-11
-1.720000000e-02	1.339986008e-01	-3.097546960e-04	1.200915422e-11
-1.730000000e-02	1.339986032e-01	-3.083953611e-04	1.404780730e-11
-1.740000000e-02	1.339986056e-01	-3.070360259e-04	7.932570114e-12
-1.750000000e-02	1.339986079e-01	-3.056766906e-04	3.723335229e-11
-1.760000000e-02	1.339986102e-01	-3.043173551e-04	2.111018433e-11
-1.770000000e-02	1.339986125e-01	-3.029580194e-04	1.076408996e-11
-1.780000000e-02	1.339986147e-01	-3.015986835e-04	7.859793094e-12
-1.790000000e-02	1.339986168e-01	-3.002393474e-04	1.151258740e-11
-1.800000000e-02	1.339986190e-01	-2.988800111e-04	1.207046961e-11
-1.810000000e-02	1.339986210e-01	-2.975206746e-04	2.420700200e-11
-1.820000000e-02	1.339986231e-01	-2.961613380e-04	1.220649155e-11
-1.830000000e-02	1.339986251e-01	-2.948020012e-04	2.042748243e-11
-1.840000000e-02	1.339986270e-01	-2.934426642e-04	8.433279332e-12
-1.850000000e-02	1.339986290e-01	-2.920833270e-04	2.091122933e-11
-1.860000000e-02	1.339986308e-01	-2.907239897e-04	1.091096743e-11
-1.870000000e-02	1.339986327e-01	-2.893646521e-04	3.187541159e-11
-1.880000000e-02	1.339986345e-01	-2.880053145e-04	1.515261211e-11
-1.890000000e-02	1.339986362e-01	-2.866459766e-04	1.063216624e-11
-1.900000000e-02	1.339986379e-01	-2.852866386e-04	7.609432437e-12
-1.910000000e-02	1.339986396e-01	-2.839273004e-04	4.026394023e-11
-1.920000000e-02	1.339986412e-01	-2.825679621e-04	9.288693009e-12
-1.930000000e-02	1.339986428e-01	-2.812086236e-04	1.803933654e-11
-1.940000000e-02	1.339986444e-01	-2.798492849e-04	1.523377350e-11
-1.950000000e-02	1.339986459e-01	-2.784899461e-04	1.219345097e-11
-1.960000000e-02	1.339986473e-01	-2.771306072e-04	1.024378260e-11
-1.970000000e-02	1.339986488e-01	-2.757712681e-04	1.333133070e-11
-1.980000000e-02	1.339986501e-01	-2.744119288e-04	1.621684395e-11
-1.990000000e-02	1.339986515e-01	-2.730525894e-04	1.637295012e-11
-2.000000000e-02	1.339986528e-01	-2.716932499e-04	1.099873772e-11
-2.010000000e-02	1.339986540e-01	-2.703339102e-04	1.842704771e-11
-2.020000000e-02	1.339986553e-01	-2.689745703e-04	7.476546152e-12
-2.030000000e-02	1.339986564e-01	-2.676152304e-04	1.174979371e-11
-2.040000000e-02	1.339986576e-01	-2.662558903e-04	1.446403542e-11
-2.050000000e-02	1.339986587e-01	-2.648965500e-04	2.494810869e-11
-2.060000000e-02	1.339986597e-01	-2.635372097e-04	9.803245116e-12
-2.070000000e-02	1.339986607e-01	-2.621778692e-04	2.029305602e-10
-2.080000000e-02	1.339986617e-01	-2.608185286e-04	1.129040770e-11
-2.090000000e-02	1.339986626e-01	-2.594591878e-04	1.786964087e-11
-2.100000000e-02	1.339986635e-01	-2.580998469e-04	1.537483528e-11
-2.110000000e-02	1.339986644e-01	-2.567405060e-04	1.215188876e-11
-2.120000000e-02	1.339986652e-01	-2.553811648e-04	1.059108822e-11
-2.130000000e-02	1.339986659e-01	-2.540218236e-04	2.578524110e-11
-2.140000000e-02	1.339986666e-01	-2.526624823e-04	1.950390977e-11
-2.150000000e-02	1.339986673e-01	-2.513031408e-04	2.210537353e-11
-2.160000000e-02	1.339986680e-01	-2.499437993e-04	7.792504451e-12
-2.170000000e-02	1.339986686e-01	-2.485844576e-04	8.789601066e-12
-2.180000000e-02	1.339986691e-01	-2.472251158e-04	2.759809077e-11
-2.190000000e-02	1.339986696e-01	-2.458657739e-04	2.662793348e-11
-2.200000000e-02	1.339986701e-01	-2.445064320e-04	2.212734007e-11
-2.210000000e-02	1.339986705e-01	-2.431470899e-04	9.431893143e-12
-2.220000000e-02	1.339986709e-01	-2.417877477e-04	1.620849196e-11
-2.230000000e-02	1.339986713e-01	-2.404284054e-04	8.605284000e-12
-2.240000000e-02	1.339986716e-01	-2.390690631e-04	9.462280108e-12
-2.250000000e-02	1.339986719e-01	-2.377097206e-04	3.969598005e-11
-2.260000000e-02	1.339986721e-01	-2.363503780e-04	9.157215766e-12
-2.270000000e-02	1.339986723e-01	-2.349910354e-04	1.809105415e-11
-2.280000000e-02	1.339986724e-01	-2.336316927e-04	7.534767593e-12
-2.290000000e-02	1.339986725e-01	-2.322723499e-04	3.416781161e-11
-2.300000000e-02	1.339986726e-01	-2.309130070e-04	3.118344456e-11
-2.310000000e-02	1.339986726e-01	-2.295536640e-04	1.577295296e-11
-2.320000000e-02	1.339986726e-01	-2.281943210e-04	9.733911094e-12
-2.330000000e-02	1.339986725e-01	-2.268349778e-04	1.808585828e-11
-2.340000000e-02	1.339986724e-01	-2.254756346e-04	8.574635537e-12
-2.350000000e-02	1.339986723e-01	-2.241162914e-04	1.093968494e-11
-2.360000000e-02	1.339986721e-01	-2.227569480e-04	8.458116731e-12
-2.370000000e-02	1.339986719e-01	-2.213976046e-04	1.182283964e-11
-2.380000000e-02	1.339986716e-01	-2.200382612e-04	7.627235902e-12
-2.390000000e-02	1.339986713e-01	-2.186789177e-04	1.125579208e-11
-2.400000000e-02	1.339986710e-01	-2.173195741e-04	1.120290475e-11
-2.410000000e-02	1.339986706e-01	-2.159602304e-04	7.026492089e-12
-2.420000000e-02	1.339986701e-01	-2.146008867e-04	3.818424985e-11
-2.430000000e-02	1.339986697e-01	-2.132415430e-04	1.093876228e-11
-2.440000000e-02	1.339986692e-01	-2.118821992e-04	8.584799910e-12
-2.450000000e-02	1.339986686e-01	-2.105228553e-04	3.460516564e-11
-2.460000000e-02	1.339986680e-01	-2.091635114e-04	3.338410814e-11
-2.470000000e-02	1.339986674e-01	-2.078041674e-04	1.585202223e-11
-2.480000000e-02	1.339986667e-01	-2.064448234e-04	1.222219737e-11
-2.490000000e-02	1.339986660e-01	-2.050854794e-04	1.246339264e-11
-2.500000000e-02	1.339986652e-01	-2.037261353e-04	6.569216771e-12
-2.510000000e-02	1.339986644e-01	-2.023667912e-04	9.829809891e-12
-2.520000000e-02	1.339986636e-01	-2.010074471e-04	1.764830468e-11
-2.530000000e-02	1.339986627e-01	-1.996481029e-04	7.129316540e-12
-2.540000000e-02	1.339986618e-01	-1.982887587e-04	1.913939354e-11
-2.550000000e-02	1.339986608e-01	-1.969294144e-04	1.359827207e-11
-2.560000000e-02	1.339986598e-01	-1.955700701e-04	1.410730627e-11
-2.570000000e-02	1.339986587e-01	-1.942107258e-04	9.142097032e-12
-2.580000000e-02	1.339986576e-01	-1.928513815e-04	1.425887127e-11
-2.590000000e-02	1.339986565e-01	-1.914920372e-04	2.323808861e-11
-2.600000000e-02	1.339986553e-01	-1.901326928e-04	9.903119786e-12
-2.610000000e-02	1.339986541e-01	-1.887733485e-04	1.306063861e-11
-2.620000000e-02	1.339986529e-01	-1.874140041e-04	1.818851036e-11
-2.630000000e-02	1.339986516e-01	-1.860546597e-04	1.388164472e-11
-2.640000000e-02	1.339986502e-01	-1.846953152e-04	6.488287877e-12
-2.650000000e-02	1.339986488e-01	-1.833359708e-04	2.490844875e-11
-2.660000000e-02	1.339986474e-01	-1.819766264e-04	2.475370429e-11
-2.670000000e-02	1.339986460e-01	-1.806172820e-04	2.898160254e-11
-2.680000000e-02	1.339986445e-01	-1.792579375e-04	2.449566863e-11
-2.690000000e-02	1.339986429e-01	-1.778985931e-04	1.235842661e-11
-2.700000000e-02	1.339986413e-01	-1.765392487e-04	1.488024756e-11
-2.710000000e-02	1.339986397e-01	-1.751799042e-04	8.324585079e-11
-2.720000000e-02	1.339986380e-01	-1.738205598e-04	4.020028102e-11
-2.730000000e-02	1.339986363e-01	-1.724612154e-04	9.162642446e-12
-2.740000000e-02	1.339986346e-01	-1.711018710e-04	1.818954381e-11
-2.750000000e-02	1.339986328e-01	-1.697425266e-04	1.039359568e-11
-2.760000000e-02	1.339986310e-01	-1.683831822e-04	2.132709361e-11
-2.770000000e-02	1.339986291e-01	-1.670238378e-04	1.044615972e-11
-2.780000000e-02	1.339986272e-01	-1.656644935e-04	1.916467326e-11
-2.790000000e-02	1.339986252e-01	-1.643051492e-04	1.729667447e-11
-2.800000000e-02	1.339986232e-01	-1.629458049e-04	1.776412570e-11
-2.810000000e-02	1.339986212e-01	-1.615864606e-04	2.520948318e-11
-2.820000000e-02	1.339986191e-01	-1.602271164e-04	9.835144706e-12
-2.830000000e-02	1.339986170e-01	-1.588677721e-04	2.660529119e-11
-2.840000000e-02	1.339986148e-01	-1.575084280e-04	2.110617140e-11
-2.850000000e-02	1.339986126e-01	-1.561490838e-04	2.519488811e-11
-2.860000000e-02	1.339986104e-01	-1.547897397e-04	1.181948389e-11
-2.870000000e-02	1.339986081e-01	-1.534303956e-04	1.147480548e-11
-2.880000000e-02	1.339986058e-01	-1.520710516e-04	2.843460589e-11
-2.890000000e-02	1.339986034e-01	-1.507117076e-04	2.870431178e-11
-2.900000000e-02	1.339986010e-01	-1.493523636e-04	6.985077917e-12
-2.910000000e-02	1.339985985e-01	-1.479930197e-04	3.729652829e-12
-2.920000000e-02	1.339985960e-01	-1.466336758e-04	7.273918973e-12
-2.930000000e-02	1.339985935e-01	-1.452743320e-04	1.713034763e-11
-2.940000000e-02	1.339985909e-01	-1.439149883e-04	1.223988090e-11
-2.950000000e-02	1.339985883e-01	-1.425556445e-04	1.065571202e-11
-2.960000000e-02	1.339985857e-01	-1.411963009e-04	1.796512138e-11
-2.970000000e-02	1.339985830e-01	-1.398369573e-04	1.051499284e-11
-2.980000000e-02	1.339985802e-01	-1.384776138e-04	1.807514261e-11
-2.990000000e-02	1.339985774e-01	-1.371182703e-04	6.181560581e-12
-3.000000000e-02	1.339985746e-01	-1.357589269e-04	1.254789020e-11
