# Im(epsi1)     Re(omega/c)      Im(omega/c)      Eq(det).Opt det CON kz, R=0.5 \mum, mu_c=0.3, Re(epsi1)=3.90solve_det_conkz_vs_kz.py
0.000000000e+00	1.340121112e-01	-5.129864563e-04	8.047255968e-12
-1.000000000e-04	1.340121198e-01	-5.116265880e-04	2.212565614e-11
-2.000000000e-04	1.340121284e-01	-5.102667191e-04	1.810607554e-11
-3.000000000e-04	1.340121369e-01	-5.089068497e-04	2.070701522e-11
-4.000000000e-04	1.340121454e-01	-5.075469798e-04	1.576134954e-11
-5.000000000e-04	1.340121538e-01	-5.061871095e-04	8.622706759e-12
-6.000000000e-04	1.340121622e-01	-5.048272386e-04	1.522256496e-11
-7.000000000e-04	1.340121706e-01	-5.034673672e-04	2.882830744e-11
-8.000000000e-04	1.340121789e-01	-5.021074953e-04	7.627824472e-12
-9.000000000e-04	1.340121871e-01	-5.007476229e-04	2.240644711e-11
-1.000000000e-03	1.340121954e-01	-4.993877501e-04	9.869219630e-12
-1.100000000e-03	1.340122036e-01	-4.980278767e-04	1.136079611e-11
-1.200000000e-03	1.340122117e-01	-4.966680029e-04	1.631663854e-11
-1.300000000e-03	1.340122198e-01	-4.953081286e-04	1.197544197e-11
-1.400000000e-03	1.340122279e-01	-4.939482537e-04	1.075062760e-11
-1.500000000e-03	1.340122359e-01	-4.925883785e-04	1.889914793e-11
-1.600000000e-03	1.340122439e-01	-4.912285027e-04	9.934847991e-12
-1.700000000e-03	1.340122518e-01	-4.898686264e-04	1.339417429e-11
-1.800000000e-03	1.340122597e-01	-4.885087497e-04	1.098877523e-11
-1.900000000e-03	1.340122676e-01	-4.871488725e-04	2.551926721e-11
-2.000000000e-03	1.340122754e-01	-4.857889949e-04	1.758785933e-11
-2.100000000e-03	1.340122832e-01	-4.844291167e-04	9.209431581e-12
-2.200000000e-03	1.340122909e-01	-4.830692381e-04	1.259251544e-11
-2.300000000e-03	1.340122986e-01	-4.817093591e-04	1.654249521e-11
-2.400000000e-03	1.340123063e-01	-4.803494795e-04	1.755048185e-11
-2.500000000e-03	1.340123139e-01	-4.789895996e-04	1.912281316e-11
-2.600000000e-03	1.340123214e-01	-4.776297191e-04	8.387303006e-12
-2.700000000e-03	1.340123290e-01	-4.762698382e-04	8.690493369e-12
-2.800000000e-03	1.340123364e-01	-4.749099569e-04	1.151395111e-11
-2.900000000e-03	1.340123439e-01	-4.735500750e-04	6.568156115e-12
-3.000000000e-03	1.340123513e-01	-4.721901928e-04	2.428774756e-10
-3.100000000e-03	1.340123587e-01	-4.708303101e-04	8.015396477e-12
-3.200000000e-03	1.340123660e-01	-4.694704269e-04	8.886265754e-12
-3.300000000e-03	1.340123733e-01	-4.681105433e-04	1.222064846e-11
-3.400000000e-03	1.340123805e-01	-4.667506593e-04	9.451099031e-12
-3.500000000e-03	1.340123877e-01	-4.653907748e-04	2.024617892e-11
-3.600000000e-03	1.340123948e-01	-4.640308899e-04	8.548417655e-12
-3.700000000e-03	1.340124020e-01	-4.626710046e-04	1.733546764e-11
-3.800000000e-03	1.340124090e-01	-4.613111188e-04	1.271521475e-11
-3.900000000e-03	1.340124161e-01	-4.599512326e-04	2.152011284e-11
-4.000000000e-03	1.340124231e-01	-4.585913459e-04	1.047149013e-11
-4.100000000e-03	1.340124300e-01	-4.572314589e-04	8.541637453e-12
-4.200000000e-03	1.340124369e-01	-4.558715714e-04	1.600631737e-11
-4.300000000e-03	1.340124438e-01	-4.545116834e-04	1.639326457e-11
-4.400000000e-03	1.340124506e-01	-4.531517951e-04	1.323174390e-11
-4.500000000e-03	1.340124574e-01	-4.517919063e-04	1.354721191e-11
-4.600000000e-03	1.340124641e-01	-4.504320172e-04	8.716495242e-12
-4.700000000e-03	1.340124708e-01	-4.490721276e-04	5.561752317e-12
-4.800000000e-03	1.340124775e-01	-4.477122376e-04	1.077408496e-11
-4.900000000e-03	1.340124841e-01	-4.463523472e-04	7.991372125e-12
-5.000000000e-03	1.340124907e-01	-4.449924564e-04	1.264631699e-11
-5.100000000e-03	1.340124972e-01	-4.436325651e-04	7.300930460e-12
-5.200000000e-03	1.340125037e-01	-4.422726735e-04	8.683406161e-12
-5.300000000e-03	1.340125102e-01	-4.409127815e-04	1.096478318e-11
-5.400000000e-03	1.340125166e-01	-4.395528890e-04	8.266941059e-12
-5.500000000e-03	1.340125230e-01	-4.381929962e-04	1.630873196e-11
-5.600000000e-03	1.340125293e-01	-4.368331030e-04	1.647973595e-11
-5.700000000e-03	1.340125356e-01	-4.354732094e-04	1.024465632e-11
-5.800000000e-03	1.340125418e-01	-4.341133154e-04	7.032084246e-12
-5.900000000e-03	1.340125480e-01	-4.327534210e-04	1.243585464e-11
-6.000000000e-03	1.340125542e-01	-4.313935262e-04	1.643166305e-11
-6.100000000e-03	1.340125603e-01	-4.300336310e-04	1.296789178e-11
-6.200000000e-03	1.340125664e-01	-4.286737354e-04	1.422216751e-11
-6.300000000e-03	1.340125725e-01	-4.273138395e-04	6.005017024e-12
-6.400000000e-03	1.340125785e-01	-4.259539432e-04	1.174406004e-11
-6.500000000e-03	1.340125844e-01	-4.245940465e-04	1.095545150e-11
-6.600000000e-03	1.340125903e-01	-4.232341494e-04	6.793667021e-12
-6.700000000e-03	1.340125962e-01	-4.218742520e-04	8.232924861e-12
-6.800000000e-03	1.340126020e-01	-4.205143542e-04	3.020486792e-11
-6.900000000e-03	1.340126078e-01	-4.191544560e-04	7.819149547e-12
-7.000000000e-03	1.340126136e-01	-4.177945574e-04	2.516632812e-11
-7.100000000e-03	1.340126193e-01	-4.164346585e-04	1.371406696e-11
-7.200000000e-03	1.340126250e-01	-4.150747593e-04	1.277833076e-11
-7.300000000e-03	1.340126306e-01	-4.137148596e-04	7.447451442e-12
-7.400000000e-03	1.340126362e-01	-4.123549596e-04	1.307996588e-11
-7.500000000e-03	1.340126417e-01	-4.109950593e-04	2.208335135e-11
-7.600000000e-03	1.340126472e-01	-4.096351586e-04	1.105688733e-11
-7.700000000e-03	1.340126527e-01	-4.082752575e-04	9.151330202e-12
-7.800000000e-03	1.340126581e-01	-4.069153561e-04	1.943754076e-11
-7.900000000e-03	1.340126635e-01	-4.055554544e-04	9.317918200e-12
-8.000000000e-03	1.340126688e-01	-4.041955523e-04	3.562317447e-11
-8.100000000e-03	1.340126741e-01	-4.028356498e-04	1.418688471e-11
-8.200000000e-03	1.340126794e-01	-4.014757470e-04	7.190213753e-12
-8.300000000e-03	1.340126846e-01	-4.001158439e-04	1.415620139e-11
-8.400000000e-03	1.340126898e-01	-3.987559405e-04	1.699171435e-11
-8.500000000e-03	1.340126949e-01	-3.973960367e-04	7.447736271e-11
-8.600000000e-03	1.340127000e-01	-3.960361325e-04	1.559563157e-11
-8.700000000e-03	1.340127051e-01	-3.946762281e-04	9.128041180e-12
-8.800000000e-03	1.340127101e-01	-3.933163233e-04	8.953045550e-12
-8.900000000e-03	1.340127150e-01	-3.919564182e-04	1.614450302e-11
-9.000000000e-03	1.340127200e-01	-3.905965127e-04	2.409344758e-11
-9.100000000e-03	1.340127248e-01	-3.892366070e-04	2.319485401e-11
-9.200000000e-03	1.340127297e-01	-3.878767009e-04	1.384846099e-11
-9.300000000e-03	1.340127345e-01	-3.865167945e-04	3.241207989e-11
-9.400000000e-03	1.340127393e-01	-3.851568877e-04	6.143994915e-11
-9.500000000e-03	1.340127440e-01	-3.837969807e-04	1.141493718e-11
-9.600000000e-03	1.340127487e-01	-3.824370734e-04	9.079463754e-12
-9.700000000e-03	1.340127533e-01	-3.810771657e-04	1.203301783e-11
-9.800000000e-03	1.340127579e-01	-3.797172577e-04	1.432274793e-11
-9.900000000e-03	1.340127624e-01	-3.783573495e-04	2.218283265e-11
-1.000000000e-02	1.340127670e-01	-3.769974409e-04	1.043578773e-11
-1.010000000e-02	1.340127714e-01	-3.756375320e-04	1.027807610e-11
-1.020000000e-02	1.340127759e-01	-3.742776228e-04	1.258851121e-11
-1.030000000e-02	1.340127802e-01	-3.729177134e-04	2.282948652e-11
-1.040000000e-02	1.340127846e-01	-3.715578036e-04	2.268707709e-11
-1.050000000e-02	1.340127889e-01	-3.701978935e-04	1.582150580e-11
-1.060000000e-02	1.340127932e-01	-3.688379832e-04	8.675258122e-12
-1.070000000e-02	1.340127974e-01	-3.674780725e-04	1.593910717e-11
-1.080000000e-02	1.340128016e-01	-3.661181616e-04	9.756016677e-12
-1.090000000e-02	1.340128057e-01	-3.647582504e-04	1.015720025e-11
-1.100000000e-02	1.340128098e-01	-3.633983389e-04	8.111776497e-12
-1.110000000e-02	1.340128139e-01	-3.620384271e-04	1.427372769e-11
-1.120000000e-02	1.340128179e-01	-3.606785150e-04	9.243692362e-12
-1.130000000e-02	1.340128219e-01	-3.593186027e-04	6.242653221e-12
-1.140000000e-02	1.340128258e-01	-3.579586901e-04	1.204172354e-11
-1.150000000e-02	1.340128297e-01	-3.565987772e-04	1.285636129e-11
-1.160000000e-02	1.340128336e-01	-3.552388640e-04	3.593899875e-11
-1.170000000e-02	1.340128374e-01	-3.538789506e-04	1.109594171e-11
-1.180000000e-02	1.340128411e-01	-3.525190369e-04	4.783530618e-12
-1.190000000e-02	1.340128449e-01	-3.511591229e-04	1.938465883e-11
-1.200000000e-02	1.340128486e-01	-3.497992087e-04	1.982724938e-11
-1.210000000e-02	1.340128522e-01	-3.484392942e-04	2.086790287e-11
-1.220000000e-02	1.340128558e-01	-3.470793795e-04	1.552614381e-11
-1.230000000e-02	1.340128594e-01	-3.457194645e-04	2.380704783e-11
-1.240000000e-02	1.340128629e-01	-3.443595492e-04	9.546631153e-12
-1.250000000e-02	1.340128664e-01	-3.429996337e-04	1.730629257e-11
-1.260000000e-02	1.340128698e-01	-3.416397180e-04	2.052211208e-11
-1.270000000e-02	1.340128732e-01	-3.402798020e-04	1.172502456e-11
-1.280000000e-02	1.340128766e-01	-3.389198857e-04	1.620012107e-11
-1.290000000e-02	1.340128799e-01	-3.375599693e-04	3.367614860e-11
-1.300000000e-02	1.340128832e-01	-3.362000525e-04	3.264892732e-11
-1.310000000e-02	1.340128864e-01	-3.348401356e-04	9.916245417e-12
-1.320000000e-02	1.340128896e-01	-3.334802184e-04	2.055680339e-11
-1.330000000e-02	1.340128927e-01	-3.321203009e-04	2.605090712e-11
-1.340000000e-02	1.340128959e-01	-3.307603832e-04	6.278392297e-11
-1.350000000e-02	1.340128989e-01	-3.294004653e-04	4.840712859e-12
-1.360000000e-02	1.340129020e-01	-3.280405472e-04	1.046031932e-11
-1.370000000e-02	1.340129049e-01	-3.266806288e-04	6.968973216e-12
-1.380000000e-02	1.340129079e-01	-3.253207102e-04	5.584677308e-12
-1.390000000e-02	1.340129108e-01	-3.239607914e-04	2.125865840e-11
-1.400000000e-02	1.340129137e-01	-3.226008724e-04	9.800271695e-11
-1.410000000e-02	1.340129165e-01	-3.212409531e-04	8.233490351e-12
-1.420000000e-02	1.340129193e-01	-3.198810337e-04	7.408099028e-12
-1.430000000e-02	1.340129220e-01	-3.185211140e-04	5.818178444e-12
-1.440000000e-02	1.340129247e-01	-3.171611941e-04	1.962667437e-11
-1.450000000e-02	1.340129273e-01	-3.158012740e-04	1.195101067e-11
-1.460000000e-02	1.340129300e-01	-3.144413537e-04	1.031023339e-11
-1.470000000e-02	1.340129325e-01	-3.130814332e-04	1.355280360e-11
-1.480000000e-02	1.340129351e-01	-3.117215124e-04	1.254462377e-11
-1.490000000e-02	1.340129376e-01	-3.103615915e-04	3.720753952e-11
-1.500000000e-02	1.340129400e-01	-3.090016704e-04	4.379704912e-11
-1.510000000e-02	1.340129424e-01	-3.076417491e-04	1.630616359e-11
-1.520000000e-02	1.340129448e-01	-3.062818275e-04	2.161655023e-11
-1.530000000e-02	1.340129471e-01	-3.049219058e-04	5.584942740e-12
-1.540000000e-02	1.340129494e-01	-3.035619839e-04	7.793917128e-12
-1.550000000e-02	1.340129516e-01	-3.022020618e-04	9.205579028e-12
-1.560000000e-02	1.340129538e-01	-3.008421395e-04	1.093822357e-11
-1.570000000e-02	1.340129560e-01	-2.994822171e-04	1.885910419e-11
-1.580000000e-02	1.340129581e-01	-2.981222944e-04	4.098825888e-11
-1.590000000e-02	1.340129602e-01	-2.967623716e-04	1.306496442e-11
-1.600000000e-02	1.340129622e-01	-2.954024486e-04	2.142375305e-11
-1.610000000e-02	1.340129642e-01	-2.940425254e-04	1.135999428e-11
-1.620000000e-02	1.340129662e-01	-2.926826020e-04	3.515312295e-11
-1.630000000e-02	1.340129681e-01	-2.913226785e-04	2.092073624e-11
-1.640000000e-02	1.340129700e-01	-2.899627548e-04	7.852139605e-12
-1.650000000e-02	1.340129718e-01	-2.886028309e-04	7.033106902e-12
-1.660000000e-02	1.340129736e-01	-2.872429069e-04	1.437438052e-11
-1.670000000e-02	1.340129753e-01	-2.858829827e-04	2.209019065e-11
-1.680000000e-02	1.340129770e-01	-2.845230583e-04	2.247362016e-12
-1.690000000e-02	1.340129787e-01	-2.831631338e-04	9.652303149e-12
-1.700000000e-02	1.340129803e-01	-2.818032091e-04	1.026633508e-11
-1.710000000e-02	1.340129819e-01	-2.804432843e-04	3.068757252e-11
-1.720000000e-02	1.340129835e-01	-2.790833593e-04	8.835096745e-12
-1.730000000e-02	1.340129850e-01	-2.777234341e-04	2.870787913e-11
-1.740000000e-02	1.340129864e-01	-2.763635088e-04	1.199090737e-11
-1.750000000e-02	1.340129878e-01	-2.750035834e-04	1.063214726e-11
-1.760000000e-02	1.340129892e-01	-2.736436578e-04	1.581092063e-11
-1.770000000e-02	1.340129905e-01	-2.722837320e-04	1.903695462e-11
-1.780000000e-02	1.340129918e-01	-2.709238062e-04	8.220925832e-12
-1.790000000e-02	1.340129931e-01	-2.695638801e-04	1.002172476e-11
-1.800000000e-02	1.340129943e-01	-2.682039540e-04	1.344430503e-11
-1.810000000e-02	1.340129955e-01	-2.668440277e-04	1.882323408e-11
-1.820000000e-02	1.340129966e-01	-2.654841013e-04	9.671831695e-12
-1.830000000e-02	1.340129977e-01	-2.641241747e-04	8.220635181e-11
-1.840000000e-02	1.340129987e-01	-2.627642480e-04	9.535830767e-12
-1.850000000e-02	1.340129997e-01	-2.614043212e-04	1.366525870e-11
-1.860000000e-02	1.340130007e-01	-2.600443943e-04	2.344829412e-11
-1.870000000e-02	1.340130016e-01	-2.586844672e-04	7.931833352e-12
-1.880000000e-02	1.340130025e-01	-2.573245401e-04	6.192539268e-12
-1.890000000e-02	1.340130033e-01	-2.559646128e-04	1.233855339e-11
-1.900000000e-02	1.340130041e-01	-2.546046853e-04	1.375804179e-11
-1.910000000e-02	1.340130049e-01	-2.532447578e-04	1.210816999e-10
-1.920000000e-02	1.340130056e-01	-2.518848302e-04	6.169168903e-12
-1.930000000e-02	1.340130063e-01	-2.505249024e-04	1.968193189e-11
-1.940000000e-02	1.340130069e-01	-2.491649746e-04	4.631147195e-12
-1.950000000e-02	1.340130075e-01	-2.478050466e-04	6.054521347e-11
-1.960000000e-02	1.340130081e-01	-2.464451185e-04	1.300970443e-11
-1.970000000e-02	1.340130086e-01	-2.450851904e-04	5.167243170e-12
-1.980000000e-02	1.340130090e-01	-2.437252621e-04	2.405998612e-11
-1.990000000e-02	1.340130095e-01	-2.423653337e-04	4.826193249e-12
-2.000000000e-02	1.340130098e-01	-2.410054053e-04	1.034972339e-11
-2.010000000e-02	1.340130102e-01	-2.396454767e-04	1.025579119e-11
-2.020000000e-02	1.340130105e-01	-2.382855480e-04	2.576247159e-11
-2.030000000e-02	1.340130108e-01	-2.369256193e-04	1.055697749e-11
-2.040000000e-02	1.340130110e-01	-2.355656905e-04	2.062996178e-11
-2.050000000e-02	1.340130112e-01	-2.342057616e-04	1.211787696e-11
-2.060000000e-02	1.340130113e-01	-2.328458326e-04	5.869467091e-12
-2.070000000e-02	1.340130114e-01	-2.314859035e-04	1.242669386e-11
-2.080000000e-02	1.340130114e-01	-2.301259743e-04	1.084062380e-11
-2.090000000e-02	1.340130115e-01	-2.287660451e-04	1.380785525e-11
-2.100000000e-02	1.340130114e-01	-2.274061158e-04	6.100924381e-12
-2.110000000e-02	1.340130114e-01	-2.260461864e-04	1.278927530e-11
-2.120000000e-02	1.340130113e-01	-2.246862570e-04	5.870399741e-12
-2.130000000e-02	1.340130111e-01	-2.233263274e-04	1.960395893e-11
-2.140000000e-02	1.340130109e-01	-2.219663979e-04	1.749678235e-11
-2.150000000e-02	1.340130107e-01	-2.206064682e-04	1.264996967e-11
-2.160000000e-02	1.340130104e-01	-2.192465385e-04	1.102791409e-11
-2.170000000e-02	1.340130101e-01	-2.178866087e-04	1.699895484e-11
-2.180000000e-02	1.340130097e-01	-2.165266789e-04	5.491349944e-12
-2.190000000e-02	1.340130093e-01	-2.151667490e-04	2.061267898e-11
-2.200000000e-02	1.340130089e-01	-2.138068190e-04	2.411763872e-11
-2.210000000e-02	1.340130084e-01	-2.124468891e-04	1.696616220e-11
-2.220000000e-02	1.340130079e-01	-2.110869590e-04	2.286638083e-11
-2.230000000e-02	1.340130073e-01	-2.097270289e-04	1.248035595e-11
-2.240000000e-02	1.340130067e-01	-2.083670988e-04	2.382851974e-11
-2.250000000e-02	1.340130061e-01	-2.070071686e-04	1.296890539e-11
-2.260000000e-02	1.340130054e-01	-2.056472384e-04	7.704483264e-12
-2.270000000e-02	1.340130046e-01	-2.042873081e-04	1.189308830e-11
-2.280000000e-02	1.340130039e-01	-2.029273778e-04	1.392324506e-11
-2.290000000e-02	1.340130031e-01	-2.015674475e-04	2.281553819e-11
-2.300000000e-02	1.340130022e-01	-2.002075171e-04	9.413592899e-12
-2.310000000e-02	1.340130013e-01	-1.988475867e-04	1.626125250e-11
-2.320000000e-02	1.340130004e-01	-1.974876563e-04	1.104246087e-11
-2.330000000e-02	1.340129994e-01	-1.961277258e-04	4.119815231e-11
-2.340000000e-02	1.340129984e-01	-1.947677953e-04	1.621761204e-11
-2.350000000e-02	1.340129973e-01	-1.934078648e-04	2.622154378e-11
-2.360000000e-02	1.340129962e-01	-1.920479343e-04	2.674995633e-11
-2.370000000e-02	1.340129951e-01	-1.906880038e-04	1.703856459e-11
-2.380000000e-02	1.340129939e-01	-1.893280732e-04	1.096803566e-11
-2.390000000e-02	1.340129927e-01	-1.879681426e-04	1.012114998e-11
-2.400000000e-02	1.340129914e-01	-1.866082120e-04	8.818383408e-12
-2.410000000e-02	1.340129901e-01	-1.852482814e-04	1.817368971e-11
-2.420000000e-02	1.340129888e-01	-1.838883508e-04	8.703954687e-12
-2.430000000e-02	1.340129874e-01	-1.825284202e-04	1.147834583e-11
-2.440000000e-02	1.340129859e-01	-1.811684896e-04	1.642865085e-11
-2.450000000e-02	1.340129845e-01	-1.798085590e-04	7.898384156e-12
-2.460000000e-02	1.340129829e-01	-1.784486284e-04	9.231542582e-12
-2.470000000e-02	1.340129814e-01	-1.770886978e-04	1.505337053e-11
-2.480000000e-02	1.340129798e-01	-1.757287672e-04	3.291206036e-11
-2.490000000e-02	1.340129782e-01	-1.743688366e-04	1.247956089e-11
-2.500000000e-02	1.340129765e-01	-1.730089060e-04	1.538099744e-11
-2.510000000e-02	1.340129748e-01	-1.716489754e-04	2.134850865e-11
-2.520000000e-02	1.340129730e-01	-1.702890448e-04	1.697583994e-11
-2.530000000e-02	1.340129712e-01	-1.689291142e-04	1.135017391e-11
-2.540000000e-02	1.340129693e-01	-1.675691837e-04	1.711113664e-11
-2.550000000e-02	1.340129675e-01	-1.662092532e-04	1.112849372e-11
-2.560000000e-02	1.340129655e-01	-1.648493227e-04	1.185789418e-11
-2.570000000e-02	1.340129636e-01	-1.634893922e-04	8.161195165e-12
-2.580000000e-02	1.340129616e-01	-1.621294617e-04	1.227654160e-11
-2.590000000e-02	1.340129595e-01	-1.607695313e-04	2.258981553e-11
-2.600000000e-02	1.340129574e-01	-1.594096009e-04	2.275160331e-11
-2.610000000e-02	1.340129553e-01	-1.580496706e-04	1.202792123e-11
-2.620000000e-02	1.340129531e-01	-1.566897402e-04	4.261547967e-11
-2.630000000e-02	1.340129509e-01	-1.553298099e-04	1.387723105e-11
-2.640000000e-02	1.340129486e-01	-1.539698797e-04	9.068105046e-12
-2.650000000e-02	1.340129463e-01	-1.526099494e-04	6.159035342e-11
-2.660000000e-02	1.340129440e-01	-1.512500193e-04	8.024990059e-12
-2.670000000e-02	1.340129416e-01	-1.498900891e-04	1.905238723e-11
-2.680000000e-02	1.340129392e-01	-1.485301590e-04	1.311501632e-11
-2.690000000e-02	1.340129367e-01	-1.471702290e-04	2.410055430e-11
-2.700000000e-02	1.340129342e-01	-1.458102990e-04	1.252307543e-11
-2.710000000e-02	1.340129317e-01	-1.444503691e-04	2.405436240e-11
-2.720000000e-02	1.340129291e-01	-1.430904392e-04	4.363041190e-11
-2.730000000e-02	1.340129265e-01	-1.417305094e-04	1.015517969e-11
-2.740000000e-02	1.340129238e-01	-1.403705796e-04	9.733226705e-12
-2.750000000e-02	1.340129211e-01	-1.390106499e-04	6.746734404e-12
-2.760000000e-02	1.340129183e-01	-1.376507202e-04	1.410767733e-11
-2.770000000e-02	1.340129155e-01	-1.362907907e-04	1.159500429e-11
-2.780000000e-02	1.340129127e-01	-1.349308612e-04	7.605089883e-12
-2.790000000e-02	1.340129098e-01	-1.335709317e-04	7.373288734e-12
-2.800000000e-02	1.340129069e-01	-1.322110023e-04	2.421438660e-11
-2.810000000e-02	1.340129040e-01	-1.308510730e-04	8.377884924e-12
-2.820000000e-02	1.340129010e-01	-1.294911438e-04	3.027675306e-11
-2.830000000e-02	1.340128979e-01	-1.281312147e-04	1.127394194e-11
-2.840000000e-02	1.340128948e-01	-1.267712856e-04	9.632342977e-12
-2.850000000e-02	1.340128917e-01	-1.254113566e-04	8.079201336e-12
-2.860000000e-02	1.340128885e-01	-1.240514277e-04	2.390434064e-11
-2.870000000e-02	1.340128853e-01	-1.226914989e-04	1.602871259e-11
-2.880000000e-02	1.340128821e-01	-1.213315701e-04	7.677093218e-12
-2.890000000e-02	1.340128788e-01	-1.199716415e-04	1.772952471e-11
-2.900000000e-02	1.340128755e-01	-1.186117130e-04	2.231042277e-11
-2.910000000e-02	1.340128721e-01	-1.172517845e-04	1.381916487e-11
-2.920000000e-02	1.340128687e-01	-1.158918561e-04	9.522429341e-12
-2.930000000e-02	1.340128652e-01	-1.145319279e-04	8.181669118e-12
-2.940000000e-02	1.340128617e-01	-1.131719997e-04	4.186135982e-11
-2.950000000e-02	1.340128582e-01	-1.118120717e-04	2.454401087e-10
-2.960000000e-02	1.340128546e-01	-1.104521437e-04	1.693526876e-11
-2.970000000e-02	1.340128510e-01	-1.090922159e-04	5.373182142e-11
-2.980000000e-02	1.340128473e-01	-1.077322881e-04	2.581256481e-11
-2.990000000e-02	1.340128436e-01	-1.063723605e-04	1.636598528e-11
-3.000000000e-02	1.340128399e-01	-1.050124330e-04	1.147499711e-11
