# Im(epsi1)     Re(omega/c)      Im(omega/c)      Eq(det).Opt det CON kz, R=0.5 \mum, mu_c=0.3, Re(epsi1)=3.90solve_det_conkz_vs_kz.py
0.000000000e+00	1.340053743e-01	-5.342988323e-04	2.258629539e-11
-1.000000000e-04	1.340053835e-01	-5.329394953e-04	1.270745953e-11
-2.000000000e-04	1.340053927e-01	-5.315801578e-04	8.042841760e-12
-3.000000000e-04	1.340054019e-01	-5.302208197e-04	7.026314729e-12
-4.000000000e-04	1.340054110e-01	-5.288614811e-04	1.139065839e-11
-5.000000000e-04	1.340054201e-01	-5.275021420e-04	8.692845674e-12
-6.000000000e-04	1.340054291e-01	-5.261428023e-04	1.644107005e-11
-7.000000000e-04	1.340054381e-01	-5.247834621e-04	1.500508834e-11
-8.000000000e-04	1.340054470e-01	-5.234241213e-04	1.166348001e-11
-9.000000000e-04	1.340054559e-01	-5.220647801e-04	4.417544179e-11
-1.000000000e-03	1.340054648e-01	-5.207054383e-04	1.434860721e-11
-1.100000000e-03	1.340054736e-01	-5.193460960e-04	2.532124211e-11
-1.200000000e-03	1.340054824e-01	-5.179867532e-04	1.721237982e-11
-1.300000000e-03	1.340054912e-01	-5.166274098e-04	1.238215825e-11
-1.400000000e-03	1.340054999e-01	-5.152680660e-04	9.902819471e-12
-1.500000000e-03	1.340055085e-01	-5.139087216e-04	8.770251668e-12
-1.600000000e-03	1.340055171e-01	-5.125493767e-04	1.090033947e-11
-1.700000000e-03	1.340055257e-01	-5.111900313e-04	1.006714947e-11
-1.800000000e-03	1.340055343e-01	-5.098306854e-04	1.403014232e-11
-1.900000000e-03	1.340055427e-01	-5.084713390e-04	1.293233035e-11
-2.000000000e-03	1.340055512e-01	-5.071119921e-04	9.175728494e-12
-2.100000000e-03	1.340055596e-01	-5.057526447e-04	3.735466767e-11
-2.200000000e-03	1.340055680e-01	-5.043932967e-04	8.938002347e-12
-2.300000000e-03	1.340055763e-01	-5.030339483e-04	9.594293943e-12
-2.400000000e-03	1.340055846e-01	-5.016745994e-04	3.676836370e-11
-2.500000000e-03	1.340055928e-01	-5.003152500e-04	5.028410166e-12
-2.600000000e-03	1.340056011e-01	-4.989559001e-04	2.125154998e-11
-2.700000000e-03	1.340056092e-01	-4.975965498e-04	8.779839831e-12
-2.800000000e-03	1.340056173e-01	-4.962371989e-04	5.507866846e-12
-2.900000000e-03	1.340056254e-01	-4.948778475e-04	6.913637423e-12
-3.000000000e-03	1.340056335e-01	-4.935184957e-04	7.969749427e-12
-3.100000000e-03	1.340056415e-01	-4.921591434e-04	7.959050755e-12
-3.200000000e-03	1.340056494e-01	-4.907997906e-04	1.012198939e-11
-3.300000000e-03	1.340056573e-01	-4.894404373e-04	6.254173009e-12
-3.400000000e-03	1.340056652e-01	-4.880810836e-04	1.879360655e-11
-3.500000000e-03	1.340056731e-01	-4.867217294e-04	8.322611557e-12
-3.600000000e-03	1.340056808e-01	-4.853623747e-04	1.111839205e-11
-3.700000000e-03	1.340056886e-01	-4.840030195e-04	8.134371646e-12
-3.800000000e-03	1.340056963e-01	-4.826436639e-04	9.210910186e-12
-3.900000000e-03	1.340057040e-01	-4.812843078e-04	6.169797964e-12
-4.000000000e-03	1.340057116e-01	-4.799249513e-04	7.750503414e-12
-4.100000000e-03	1.340057192e-01	-4.785655943e-04	4.822122843e-11
-4.200000000e-03	1.340057267e-01	-4.772062368e-04	1.158770452e-11
-4.300000000e-03	1.340057342e-01	-4.758468789e-04	3.512331897e-11
-4.400000000e-03	1.340057417e-01	-4.744875205e-04	7.699636321e-12
-4.500000000e-03	1.340057491e-01	-4.731281617e-04	1.694748706e-11
-4.600000000e-03	1.340057565e-01	-4.717688024e-04	1.500098035e-11
-4.700000000e-03	1.340057639e-01	-4.704094427e-04	6.711825287e-12
-4.800000000e-03	1.340057712e-01	-4.690500825e-04	5.521857989e-11
-4.900000000e-03	1.340057784e-01	-4.676907219e-04	8.753235463e-12
-5.000000000e-03	1.340057856e-01	-4.663313609e-04	9.596300963e-12
-5.100000000e-03	1.340057928e-01	-4.649719994e-04	6.836505726e-12
-5.200000000e-03	1.340057999e-01	-4.636126374e-04	2.912242842e-11
-5.300000000e-03	1.340058070e-01	-4.622532751e-04	1.630736783e-11
-5.400000000e-03	1.340058141e-01	-4.608939123e-04	5.590292234e-12
-5.500000000e-03	1.340058211e-01	-4.595345491e-04	6.460396414e-11
-5.600000000e-03	1.340058281e-01	-4.581751854e-04	6.052057537e-12
-5.700000000e-03	1.340058350e-01	-4.568158213e-04	9.868608217e-12
-5.800000000e-03	1.340058419e-01	-4.554564568e-04	7.237468178e-12
-5.900000000e-03	1.340058487e-01	-4.540970919e-04	1.229546695e-11
-6.000000000e-03	1.340058555e-01	-4.527377265e-04	9.597693861e-12
-6.100000000e-03	1.340058623e-01	-4.513783608e-04	1.289163264e-11
-6.200000000e-03	1.340058690e-01	-4.500189946e-04	1.213768447e-11
-6.300000000e-03	1.340058757e-01	-4.486596280e-04	1.221194439e-11
-6.400000000e-03	1.340058823e-01	-4.473002610e-04	1.121347528e-11
-6.500000000e-03	1.340058889e-01	-4.459408936e-04	1.783446585e-11
-6.600000000e-03	1.340058955e-01	-4.445815257e-04	1.425368841e-11
-6.700000000e-03	1.340059020e-01	-4.432221575e-04	1.186050374e-11
-6.800000000e-03	1.340059085e-01	-4.418627889e-04	1.663756401e-10
-6.900000000e-03	1.340059149e-01	-4.405034198e-04	9.846926618e-12
-7.000000000e-03	1.340059213e-01	-4.391440504e-04	1.947485143e-11
-7.100000000e-03	1.340059276e-01	-4.377846806e-04	1.960662230e-11
-7.200000000e-03	1.340059339e-01	-4.364253103e-04	8.345882265e-12
-7.300000000e-03	1.340059402e-01	-4.350659397e-04	1.551570997e-11
-7.400000000e-03	1.340059464e-01	-4.337065687e-04	2.632640370e-11
-7.500000000e-03	1.340059526e-01	-4.323471973e-04	9.898748482e-12
-7.600000000e-03	1.340059588e-01	-4.309878255e-04	1.623856014e-11
-7.700000000e-03	1.340059649e-01	-4.296284533e-04	1.089724839e-11
-7.800000000e-03	1.340059709e-01	-4.282690808e-04	7.558652604e-12
-7.900000000e-03	1.340059770e-01	-4.269097078e-04	3.902118628e-11
-8.000000000e-03	1.340059829e-01	-4.255503345e-04	1.142682972e-10
-8.100000000e-03	1.340059889e-01	-4.241909608e-04	8.892573265e-12
-8.200000000e-03	1.340059948e-01	-4.228315868e-04	1.004985420e-11
-8.300000000e-03	1.340060006e-01	-4.214722123e-04	8.312358177e-12
-8.400000000e-03	1.340060064e-01	-4.201128375e-04	1.141432880e-11
-8.500000000e-03	1.340060122e-01	-4.187534623e-04	1.400367564e-11
-8.600000000e-03	1.340060179e-01	-4.173940868e-04	1.557833650e-11
-8.700000000e-03	1.340060236e-01	-4.160347109e-04	7.879344458e-12
-8.800000000e-03	1.340060293e-01	-4.146753346e-04	1.752588360e-11
-8.900000000e-03	1.340060349e-01	-4.133159580e-04	1.843113111e-11
-9.000000000e-03	1.340060405e-01	-4.119565810e-04	1.624927422e-11
-9.100000000e-03	1.340060460e-01	-4.105972036e-04	2.656862465e-11
-9.200000000e-03	1.340060515e-01	-4.092378259e-04	7.859976639e-12
-9.300000000e-03	1.340060569e-01	-4.078784479e-04	2.494958294e-11
-9.400000000e-03	1.340060623e-01	-4.065190695e-04	1.144723965e-11
-9.500000000e-03	1.340060677e-01	-4.051596907e-04	1.265476114e-11
-9.600000000e-03	1.340060730e-01	-4.038003116e-04	1.273387401e-11
-9.700000000e-03	1.340060783e-01	-4.024409322e-04	4.024489165e-11
-9.800000000e-03	1.340060835e-01	-4.010815524e-04	1.119084911e-11
-9.900000000e-03	1.340060887e-01	-3.997221723e-04	1.015570357e-11
-1.000000000e-02	1.340060939e-01	-3.983627919e-04	2.405363657e-11
-1.010000000e-02	1.340060990e-01	-3.970034111e-04	7.213419558e-12
-1.020000000e-02	1.340061040e-01	-3.956440300e-04	1.242857340e-11
-1.030000000e-02	1.340061091e-01	-3.942846485e-04	1.411942078e-11
-1.040000000e-02	1.340061141e-01	-3.929252667e-04	2.302253793e-11
-1.050000000e-02	1.340061190e-01	-3.915658846e-04	1.293466364e-11
-1.060000000e-02	1.340061239e-01	-3.902065022e-04	7.955098435e-12
-1.070000000e-02	1.340061288e-01	-3.888471194e-04	8.310477836e-12
-1.080000000e-02	1.340061336e-01	-3.874877363e-04	1.520876769e-11
-1.090000000e-02	1.340061384e-01	-3.861283530e-04	2.148211415e-11
-1.100000000e-02	1.340061431e-01	-3.847689692e-04	1.030054356e-11
-1.110000000e-02	1.340061478e-01	-3.834095852e-04	1.316078638e-11
-1.120000000e-02	1.340061525e-01	-3.820502009e-04	1.192444969e-11
-1.130000000e-02	1.340061571e-01	-3.806908162e-04	1.191272262e-11
-1.140000000e-02	1.340061617e-01	-3.793314313e-04	3.486628991e-11
-1.150000000e-02	1.340061662e-01	-3.779720460e-04	1.679461649e-11
-1.160000000e-02	1.340061707e-01	-3.766126605e-04	6.852875863e-12
-1.170000000e-02	1.340061752e-01	-3.752532746e-04	8.656613705e-12
-1.180000000e-02	1.340061796e-01	-3.738938884e-04	2.341898318e-10
-1.190000000e-02	1.340061840e-01	-3.725345020e-04	4.019738361e-11
-1.200000000e-02	1.340061883e-01	-3.711751152e-04	1.139989386e-11
-1.210000000e-02	1.340061926e-01	-3.698157282e-04	1.242711502e-11
-1.220000000e-02	1.340061968e-01	-3.684563408e-04	1.201608763e-11
-1.230000000e-02	1.340062010e-01	-3.670969532e-04	1.981888433e-11
-1.240000000e-02	1.340062052e-01	-3.657375653e-04	5.399712795e-12
-1.250000000e-02	1.340062093e-01	-3.643781771e-04	9.912376449e-12
-1.260000000e-02	1.340062134e-01	-3.630187886e-04	9.024176608e-12
-1.270000000e-02	1.340062174e-01	-3.616593998e-04	2.833282490e-11
-1.280000000e-02	1.340062214e-01	-3.603000108e-04	4.969658844e-11
-1.290000000e-02	1.340062254e-01	-3.589406214e-04	1.513532112e-11
-1.300000000e-02	1.340062293e-01	-3.575812318e-04	1.442387578e-11
-1.310000000e-02	1.340062332e-01	-3.562218420e-04	1.234175955e-11
-1.320000000e-02	1.340062370e-01	-3.548624518e-04	1.657067238e-11
-1.330000000e-02	1.340062408e-01	-3.535030614e-04	2.128540761e-11
-1.340000000e-02	1.340062446e-01	-3.521436707e-04	2.441014813e-11
-1.350000000e-02	1.340062483e-01	-3.507842798e-04	1.461789610e-11
-1.360000000e-02	1.340062520e-01	-3.494248886e-04	1.250716825e-11
-1.370000000e-02	1.340062556e-01	-3.480654971e-04	2.497460336e-11
-1.380000000e-02	1.340062592e-01	-3.467061054e-04	1.052440960e-11
-1.390000000e-02	1.340062627e-01	-3.453467134e-04	1.586035426e-11
-1.400000000e-02	1.340062662e-01	-3.439873212e-04	1.480551237e-11
-1.410000000e-02	1.340062697e-01	-3.426279287e-04	8.977659814e-12
-1.420000000e-02	1.340062731e-01	-3.412685360e-04	1.541323204e-11
-1.430000000e-02	1.340062765e-01	-3.399091430e-04	1.195444440e-11
-1.440000000e-02	1.340062798e-01	-3.385497498e-04	1.730571318e-11
-1.450000000e-02	1.340062831e-01	-3.371903563e-04	1.435865633e-11
-1.460000000e-02	1.340062864e-01	-3.358309626e-04	9.358301326e-12
-1.470000000e-02	1.340062896e-01	-3.344715687e-04	3.874370921e-11
-1.480000000e-02	1.340062928e-01	-3.331121745e-04	8.735902491e-12
-1.490000000e-02	1.340062959e-01	-3.317527801e-04	3.475637250e-11
-1.500000000e-02	1.340062990e-01	-3.303933854e-04	6.464652206e-12
-1.510000000e-02	1.340063020e-01	-3.290339905e-04	7.184788652e-12
-1.520000000e-02	1.340063051e-01	-3.276745954e-04	6.424414789e-12
-1.530000000e-02	1.340063080e-01	-3.263152001e-04	6.526025876e-12
-1.540000000e-02	1.340063110e-01	-3.249558045e-04	1.436609369e-11
-1.550000000e-02	1.340063138e-01	-3.235964087e-04	1.259003057e-11
-1.560000000e-02	1.340063167e-01	-3.222370127e-04	8.603548280e-12
-1.570000000e-02	1.340063195e-01	-3.208776165e-04	5.987066749e-12
-1.580000000e-02	1.340063223e-01	-3.195182200e-04	5.053564900e-12
-1.590000000e-02	1.340063250e-01	-3.181588234e-04	8.062751905e-12
-1.600000000e-02	1.340063277e-01	-3.167994265e-04	9.686032354e-12
-1.610000000e-02	1.340063303e-01	-3.154400294e-04	1.070095362e-11
-1.620000000e-02	1.340063329e-01	-3.140806321e-04	5.322195135e-12
-1.630000000e-02	1.340063354e-01	-3.127212346e-04	9.238574441e-12
-1.640000000e-02	1.340063380e-01	-3.113618369e-04	1.171319689e-11
-1.650000000e-02	1.340063404e-01	-3.100024390e-04	4.771183641e-11
-1.660000000e-02	1.340063429e-01	-3.086430409e-04	1.646348961e-11
-1.670000000e-02	1.340063453e-01	-3.072836426e-04	1.163080475e-11
-1.680000000e-02	1.340063476e-01	-3.059242442e-04	9.565577856e-12
-1.690000000e-02	1.340063499e-01	-3.045648455e-04	1.187299224e-11
-1.700000000e-02	1.340063522e-01	-3.032054466e-04	3.424255808e-11
-1.710000000e-02	1.340063544e-01	-3.018460475e-04	1.741551640e-11
-1.720000000e-02	1.340063566e-01	-3.004866483e-04	2.290402151e-11
-1.730000000e-02	1.340063587e-01	-2.991272488e-04	1.110777402e-11
-1.740000000e-02	1.340063608e-01	-2.977678492e-04	1.282059077e-11
-1.750000000e-02	1.340063629e-01	-2.964084494e-04	1.957992612e-11
-1.760000000e-02	1.340063649e-01	-2.950490494e-04	6.683991650e-12
-1.770000000e-02	1.340063669e-01	-2.936896493e-04	7.478677190e-12
-1.780000000e-02	1.340063688e-01	-2.923302489e-04	1.142038043e-11
-1.790000000e-02	1.340063707e-01	-2.909708484e-04	1.238962480e-11
-1.800000000e-02	1.340063726e-01	-2.896114478e-04	6.980093372e-12
-1.810000000e-02	1.340063744e-01	-2.882520469e-04	4.647739274e-12
-1.820000000e-02	1.340063762e-01	-2.868926459e-04	6.495030385e-12
-1.830000000e-02	1.340063779e-01	-2.855332447e-04	1.573979710e-11
-1.840000000e-02	1.340063796e-01	-2.841738434e-04	1.212174639e-11
-1.850000000e-02	1.340063813e-01	-2.828144419e-04	1.639816306e-11
-1.860000000e-02	1.340063829e-01	-2.814550402e-04	7.051810808e-12
-1.870000000e-02	1.340063844e-01	-2.800956384e-04	8.651491248e-12
-1.880000000e-02	1.340063860e-01	-2.787362364e-04	1.548672011e-11
-1.890000000e-02	1.340063874e-01	-2.773768343e-04	1.062574687e-11
-1.900000000e-02	1.340063889e-01	-2.760174321e-04	6.968500639e-11
-1.910000000e-02	1.340063903e-01	-2.746580296e-04	1.488436830e-11
-1.920000000e-02	1.340063916e-01	-2.732986271e-04	9.657266027e-12
-1.930000000e-02	1.340063930e-01	-2.719392244e-04	4.552706933e-11
-1.940000000e-02	1.340063942e-01	-2.705798215e-04	1.100179839e-11
-1.950000000e-02	1.340063955e-01	-2.692204185e-04	9.752478869e-12
-1.960000000e-02	1.340063967e-01	-2.678610154e-04	1.209832629e-11
-1.970000000e-02	1.340063978e-01	-2.665016122e-04	7.342833600e-12
-1.980000000e-02	1.340063989e-01	-2.651422088e-04	7.331376970e-12
-1.990000000e-02	1.340064000e-01	-2.637828053e-04	2.019174219e-11
-2.000000000e-02	1.340064010e-01	-2.624234016e-04	5.707216666e-12
-2.010000000e-02	1.340064020e-01	-2.610639978e-04	6.037841909e-12
-2.020000000e-02	1.340064030e-01	-2.597045939e-04	2.119097989e-11
-2.030000000e-02	1.340064039e-01	-2.583451899e-04	8.334486548e-12
-2.040000000e-02	1.340064047e-01	-2.569857857e-04	9.613971009e-11
-2.050000000e-02	1.340064056e-01	-2.556263815e-04	1.325601243e-11
-2.060000000e-02	1.340064064e-01	-2.542669771e-04	1.313947680e-11
-2.070000000e-02	1.340064071e-01	-2.529075726e-04	2.939106178e-11
-2.080000000e-02	1.340064078e-01	-2.515481680e-04	2.500467472e-11
-2.090000000e-02	1.340064085e-01	-2.501887633e-04	9.085124889e-12
-2.100000000e-02	1.340064091e-01	-2.488293585e-04	1.914147298e-11
-2.110000000e-02	1.340064097e-01	-2.474699535e-04	5.233703319e-12
-2.120000000e-02	1.340064102e-01	-2.461105485e-04	1.548624617e-11
-2.130000000e-02	1.340064107e-01	-2.447511433e-04	1.544136227e-11
-2.140000000e-02	1.340064111e-01	-2.433917381e-04	4.778344854e-12
-2.150000000e-02	1.340064115e-01	-2.420323328e-04	9.129306247e-12
-2.160000000e-02	1.340064119e-01	-2.406729273e-04	2.305312270e-11
-2.170000000e-02	1.340064122e-01	-2.393135218e-04	1.891217645e-11
-2.180000000e-02	1.340064125e-01	-2.379541162e-04	1.548853983e-11
-2.190000000e-02	1.340064128e-01	-2.365947105e-04	1.503413452e-11
-2.200000000e-02	1.340064130e-01	-2.352353047e-04	5.883729475e-12
-2.210000000e-02	1.340064132e-01	-2.338758988e-04	5.880224830e-12
-2.220000000e-02	1.340064133e-01	-2.325164929e-04	1.260608608e-11
-2.230000000e-02	1.340064134e-01	-2.311570868e-04	2.488512909e-11
-2.240000000e-02	1.340064134e-01	-2.297976807e-04	1.061399428e-11
-2.250000000e-02	1.340064134e-01	-2.284382745e-04	1.109253683e-11
-2.260000000e-02	1.340064134e-01	-2.270788682e-04	8.459156607e-12
-2.270000000e-02	1.340064133e-01	-2.257194619e-04	1.523443144e-11
-2.280000000e-02	1.340064131e-01	-2.243600555e-04	1.267379958e-11
-2.290000000e-02	1.340064130e-01	-2.230006490e-04	1.251078816e-11
-2.300000000e-02	1.340064128e-01	-2.216412424e-04	8.447774677e-12
-2.310000000e-02	1.340064125e-01	-2.202818358e-04	2.545256876e-11
-2.320000000e-02	1.340064122e-01	-2.189224291e-04	2.437734007e-11
-2.330000000e-02	1.340064119e-01	-2.175630224e-04	1.803841461e-11
-2.340000000e-02	1.340064115e-01	-2.162036156e-04	1.553037279e-11
-2.350000000e-02	1.340064111e-01	-2.148442087e-04	1.696147863e-11
-2.360000000e-02	1.340064107e-01	-2.134848018e-04	1.373017072e-11
-2.370000000e-02	1.340064102e-01	-2.121253949e-04	1.718823103e-11
-2.380000000e-02	1.340064096e-01	-2.107659879e-04	1.562774267e-11
-2.390000000e-02	1.340064091e-01	-2.094065808e-04	8.944574298e-12
-2.400000000e-02	1.340064084e-01	-2.080471737e-04	9.202747031e-12
-2.410000000e-02	1.340064078e-01	-2.066877666e-04	1.606700556e-10
-2.420000000e-02	1.340064071e-01	-2.053283594e-04	2.470242863e-11
-2.430000000e-02	1.340064063e-01	-2.039689521e-04	2.419381646e-11
-2.440000000e-02	1.340064055e-01	-2.026095449e-04	2.114683629e-11
-2.450000000e-02	1.340064047e-01	-2.012501376e-04	7.112825473e-12
-2.460000000e-02	1.340064039e-01	-1.998907302e-04	9.448344191e-12
-2.470000000e-02	1.340064030e-01	-1.985313229e-04	5.393604111e-12
-2.480000000e-02	1.340064020e-01	-1.971719155e-04	6.990876062e-12
-2.490000000e-02	1.340064010e-01	-1.958125081e-04	7.136558117e-12
-2.500000000e-02	1.340064000e-01	-1.944531006e-04	3.425810610e-11
-2.510000000e-02	1.340063989e-01	-1.930936931e-04	2.056681546e-11
-2.520000000e-02	1.340063978e-01	-1.917342857e-04	1.311704379e-11
-2.530000000e-02	1.340063966e-01	-1.903748781e-04	1.027968650e-11
-2.540000000e-02	1.340063954e-01	-1.890154706e-04	1.582222452e-11
-2.550000000e-02	1.340063942e-01	-1.876560631e-04	9.767047324e-12
-2.560000000e-02	1.340063929e-01	-1.862966555e-04	1.130962559e-11
-2.570000000e-02	1.340063916e-01	-1.849372480e-04	5.502197268e-12
-2.580000000e-02	1.340063902e-01	-1.835778404e-04	1.931306219e-11
-2.590000000e-02	1.340063888e-01	-1.822184328e-04	1.456983887e-11
-2.600000000e-02	1.340063874e-01	-1.808590252e-04	1.121273897e-11
-2.610000000e-02	1.340063859e-01	-1.794996177e-04	1.306800655e-11
-2.620000000e-02	1.340063844e-01	-1.781402101e-04	1.482502128e-11
-2.630000000e-02	1.340063828e-01	-1.767808025e-04	9.794902827e-12
-2.640000000e-02	1.340063812e-01	-1.754213949e-04	1.980334142e-11
-2.650000000e-02	1.340063796e-01	-1.740619874e-04	9.778907213e-12
-2.660000000e-02	1.340063779e-01	-1.727025798e-04	5.159659580e-11
-2.670000000e-02	1.340063761e-01	-1.713431722e-04	9.942320753e-12
-2.680000000e-02	1.340063744e-01	-1.699837647e-04	3.095211935e-11
-2.690000000e-02	1.340063725e-01	-1.686243572e-04	9.932353737e-11
-2.700000000e-02	1.340063707e-01	-1.672649497e-04	1.175171257e-11
-2.710000000e-02	1.340063688e-01	-1.659055422e-04	2.424776365e-11
-2.720000000e-02	1.340063669e-01	-1.645461347e-04	5.073910982e-11
-2.730000000e-02	1.340063649e-01	-1.631867273e-04	1.590499526e-11
-2.740000000e-02	1.340063628e-01	-1.618273199e-04	2.203766507e-11
-2.750000000e-02	1.340063608e-01	-1.604679125e-04	8.790358884e-12
-2.760000000e-02	1.340063587e-01	-1.591085051e-04	1.337306761e-11
-2.770000000e-02	1.340063565e-01	-1.577490978e-04	1.085758010e-10
-2.780000000e-02	1.340063544e-01	-1.563896905e-04	1.912072944e-11
-2.790000000e-02	1.340063521e-01	-1.550302832e-04	1.193923977e-11
-2.800000000e-02	1.340063499e-01	-1.536708760e-04	7.254591439e-12
-2.810000000e-02	1.340063475e-01	-1.523114688e-04	7.527923406e-12
-2.820000000e-02	1.340063452e-01	-1.509520617e-04	9.400492177e-12
-2.830000000e-02	1.340063428e-01	-1.495926546e-04	1.632420067e-11
-2.840000000e-02	1.340063404e-01	-1.482332475e-04	1.023088897e-11
-2.850000000e-02	1.340063379e-01	-1.468738405e-04	1.404041388e-11
-2.860000000e-02	1.340063354e-01	-1.455144335e-04	1.268779633e-11
-2.870000000e-02	1.340063328e-01	-1.441550266e-04	1.499884650e-11
-2.880000000e-02	1.340063302e-01	-1.427956198e-04	1.650336541e-11
-2.890000000e-02	1.340063276e-01	-1.414362130e-04	3.529170769e-11
-2.900000000e-02	1.340063249e-01	-1.400768063e-04	3.041801763e-11
-2.910000000e-02	1.340063222e-01	-1.387173996e-04	3.358341172e-11
-2.920000000e-02	1.340063194e-01	-1.373579930e-04	1.622525130e-11
-2.930000000e-02	1.340063166e-01	-1.359985864e-04	1.082474277e-11
-2.940000000e-02	1.340063138e-01	-1.346391799e-04	1.978428997e-11
-2.950000000e-02	1.340063109e-01	-1.332797735e-04	1.214105570e-11
-2.960000000e-02	1.340063079e-01	-1.319203672e-04	1.020721242e-11
-2.970000000e-02	1.340063050e-01	-1.305609609e-04	1.158034824e-11
-2.980000000e-02	1.340063020e-01	-1.292015547e-04	1.295914622e-11
-2.990000000e-02	1.340062989e-01	-1.278421486e-04	1.115716121e-11
-3.000000000e-02	1.340062958e-01	-1.264827426e-04	1.123570055e-11
