# Im(epsi1)     Re(omega/c)      Im(omega/c)      Eq(det).Opt det CON kz, R=0.5 \mum, mu_c=0.3, Re(epsi1)=3.90solve_det_conkz_vs_kz.py
0.000000000e+00	1.340062932e-01	-4.828273492e-04	7.188800076e-12
-1.000000000e-04	1.340063008e-01	-4.814665773e-04	6.033281298e-12
-2.000000000e-04	1.340063085e-01	-4.801058048e-04	1.656950852e-10
-3.000000000e-04	1.340063161e-01	-4.787450320e-04	1.487170168e-11
-4.000000000e-04	1.340063236e-01	-4.773842587e-04	9.236655831e-12
-5.000000000e-04	1.340063312e-01	-4.760234849e-04	2.288745025e-11
-6.000000000e-04	1.340063386e-01	-4.746627106e-04	1.060022975e-11
-7.000000000e-04	1.340063461e-01	-4.733019359e-04	3.386854595e-11
-8.000000000e-04	1.340063535e-01	-4.719411608e-04	1.514387197e-11
-9.000000000e-04	1.340063608e-01	-4.705803852e-04	1.825374397e-11
-1.000000000e-03	1.340063681e-01	-4.692196092e-04	3.521701367e-11
-1.100000000e-03	1.340063754e-01	-4.678588327e-04	2.158555082e-11
-1.200000000e-03	1.340063826e-01	-4.664980558e-04	1.076379399e-11
-1.300000000e-03	1.340063898e-01	-4.651372784e-04	2.580418737e-11
-1.400000000e-03	1.340063969e-01	-4.637765006e-04	1.892769934e-11
-1.500000000e-03	1.340064041e-01	-4.624157224e-04	2.744483697e-11
-1.600000000e-03	1.340064111e-01	-4.610549438e-04	1.589835024e-11
-1.700000000e-03	1.340064181e-01	-4.596941647e-04	1.674101325e-11
-1.800000000e-03	1.340064251e-01	-4.583333852e-04	4.956452022e-12
-1.900000000e-03	1.340064321e-01	-4.569726052e-04	3.378502840e-11
-2.000000000e-03	1.340064390e-01	-4.556118248e-04	1.058362682e-11
-2.100000000e-03	1.340064458e-01	-4.542510441e-04	5.564921781e-12
-2.200000000e-03	1.340064526e-01	-4.528902628e-04	9.035322724e-12
-2.300000000e-03	1.340064594e-01	-4.515294812e-04	2.457634225e-11
-2.400000000e-03	1.340064661e-01	-4.501686992e-04	1.012211466e-11
-2.500000000e-03	1.340064728e-01	-4.488079167e-04	8.394149574e-12
-2.600000000e-03	1.340064795e-01	-4.474471339e-04	7.234834445e-12
-2.700000000e-03	1.340064861e-01	-4.460863506e-04	9.224940677e-12
-2.800000000e-03	1.340064926e-01	-4.447255669e-04	1.021795411e-11
-2.900000000e-03	1.340064992e-01	-4.433647828e-04	1.206555184e-11
-3.000000000e-03	1.340065057e-01	-4.420039983e-04	1.132978784e-11
-3.100000000e-03	1.340065121e-01	-4.406432134e-04	1.064332654e-11
-3.200000000e-03	1.340065185e-01	-4.392824281e-04	2.181034450e-11
-3.300000000e-03	1.340065249e-01	-4.379216424e-04	9.799582372e-12
-3.400000000e-03	1.340065312e-01	-4.365608563e-04	3.221217104e-11
-3.500000000e-03	1.340065375e-01	-4.352000698e-04	2.837959246e-11
-3.600000000e-03	1.340065437e-01	-4.338392830e-04	1.779389864e-11
-3.700000000e-03	1.340065499e-01	-4.324784957e-04	2.457941778e-11
-3.800000000e-03	1.340065560e-01	-4.311177081e-04	5.793707467e-12
-3.900000000e-03	1.340065621e-01	-4.297569200e-04	1.096227485e-11
-4.000000000e-03	1.340065682e-01	-4.283961316e-04	1.563839272e-11
-4.100000000e-03	1.340065742e-01	-4.270353428e-04	2.206380016e-11
-4.200000000e-03	1.340065802e-01	-4.256745537e-04	5.907556377e-12
-4.300000000e-03	1.340065862e-01	-4.243137641e-04	9.785302919e-12
-4.400000000e-03	1.340065921e-01	-4.229529742e-04	1.730111585e-11
-4.500000000e-03	1.340065980e-01	-4.215921839e-04	1.013967769e-11
-4.600000000e-03	1.340066038e-01	-4.202313932e-04	9.841316316e-12
-4.700000000e-03	1.340066096e-01	-4.188706022e-04	1.493185328e-11
-4.800000000e-03	1.340066153e-01	-4.175098108e-04	2.110285889e-11
-4.900000000e-03	1.340066210e-01	-4.161490190e-04	7.578027650e-12
-5.000000000e-03	1.340066266e-01	-4.147882269e-04	4.805659934e-11
-5.100000000e-03	1.340066323e-01	-4.134274344e-04	1.039704097e-11
-5.200000000e-03	1.340066378e-01	-4.120666416e-04	2.351842171e-11
-5.300000000e-03	1.340066434e-01	-4.107058484e-04	2.305976448e-11
-5.400000000e-03	1.340066489e-01	-4.093450549e-04	8.619909700e-12
-5.500000000e-03	1.340066543e-01	-4.079842610e-04	9.408818333e-12
-5.600000000e-03	1.340066597e-01	-4.066234667e-04	1.564967086e-11
-5.700000000e-03	1.340066651e-01	-4.052626721e-04	1.317317086e-11
-5.800000000e-03	1.340066704e-01	-4.039018772e-04	1.055533068e-11
-5.900000000e-03	1.340066757e-01	-4.025410819e-04	1.656956803e-11
-6.000000000e-03	1.340066809e-01	-4.011802863e-04	7.132681357e-12
-6.100000000e-03	1.340066862e-01	-3.998194903e-04	9.433663457e-12
-6.200000000e-03	1.340066913e-01	-3.984586940e-04	1.758654388e-11
-6.300000000e-03	1.340066964e-01	-3.970978974e-04	1.106239305e-11
-6.400000000e-03	1.340067015e-01	-3.957371004e-04	7.363042933e-12
-6.500000000e-03	1.340067065e-01	-3.943763031e-04	2.496838753e-11
-6.600000000e-03	1.340067115e-01	-3.930155055e-04	1.214030504e-11
-6.700000000e-03	1.340067165e-01	-3.916547075e-04	3.615476664e-11
-6.800000000e-03	1.340067214e-01	-3.902939093e-04	1.324674448e-11
-6.900000000e-03	1.340067263e-01	-3.889331107e-04	6.768230186e-12
-7.000000000e-03	1.340067311e-01	-3.875723117e-04	1.140626658e-11
-7.100000000e-03	1.340067359e-01	-3.862115125e-04	1.003692460e-11
-7.200000000e-03	1.340067406e-01	-3.848507130e-04	8.530230329e-12
-7.300000000e-03	1.340067454e-01	-3.834899131e-04	1.284093207e-11
-7.400000000e-03	1.340067500e-01	-3.821291129e-04	9.292760382e-12
-7.500000000e-03	1.340067546e-01	-3.807683124e-04	7.640104365e-12
-7.600000000e-03	1.340067592e-01	-3.794075116e-04	7.110580898e-12
-7.700000000e-03	1.340067638e-01	-3.780467106e-04	2.561131891e-11
-7.800000000e-03	1.340067683e-01	-3.766859092e-04	1.004656098e-11
-7.900000000e-03	1.340067727e-01	-3.753251074e-04	1.174922705e-11
-8.000000000e-03	1.340067771e-01	-3.739643055e-04	2.073199867e-11
-8.100000000e-03	1.340067815e-01	-3.726035032e-04	6.314020066e-12
-8.200000000e-03	1.340067859e-01	-3.712427006e-04	1.337391766e-11
-8.300000000e-03	1.340067901e-01	-3.698818977e-04	1.638274679e-11
-8.400000000e-03	1.340067944e-01	-3.685210945e-04	3.049607621e-11
-8.500000000e-03	1.340067986e-01	-3.671602910e-04	2.346024856e-11
-8.600000000e-03	1.340068028e-01	-3.657994873e-04	1.549686019e-11
-8.700000000e-03	1.340068069e-01	-3.644386832e-04	1.727838450e-11
-8.800000000e-03	1.340068110e-01	-3.630778789e-04	8.127461527e-12
-8.900000000e-03	1.340068150e-01	-3.617170743e-04	6.203574491e-12
-9.000000000e-03	1.340068190e-01	-3.603562695e-04	1.163845807e-11
-9.100000000e-03	1.340068230e-01	-3.589954643e-04	1.325398208e-11
-9.200000000e-03	1.340068269e-01	-3.576346589e-04	9.603512329e-12
-9.300000000e-03	1.340068308e-01	-3.562738532e-04	1.938796198e-11
-9.400000000e-03	1.340068346e-01	-3.549130472e-04	8.404776778e-12
-9.500000000e-03	1.340068384e-01	-3.535522410e-04	1.155524120e-11
-9.600000000e-03	1.340068422e-01	-3.521914345e-04	1.853708832e-11
-9.700000000e-03	1.340068459e-01	-3.508306277e-04	2.002600405e-10
-9.800000000e-03	1.340068496e-01	-3.494698207e-04	2.823058381e-11
-9.900000000e-03	1.340068532e-01	-3.481090134e-04	1.280090111e-11
-1.000000000e-02	1.340068568e-01	-3.467482059e-04	1.129816460e-11
-1.010000000e-02	1.340068604e-01	-3.453873981e-04	4.981630443e-12
-1.020000000e-02	1.340068639e-01	-3.440265900e-04	7.185956197e-12
-1.030000000e-02	1.340068673e-01	-3.426657817e-04	8.984519355e-12
-1.040000000e-02	1.340068708e-01	-3.413049732e-04	1.696491837e-11
-1.050000000e-02	1.340068741e-01	-3.399441644e-04	2.839760180e-11
-1.060000000e-02	1.340068775e-01	-3.385833553e-04	1.329928543e-11
-1.070000000e-02	1.340068808e-01	-3.372225461e-04	1.160483780e-11
-1.080000000e-02	1.340068840e-01	-3.358617365e-04	2.339485215e-11
-1.090000000e-02	1.340068873e-01	-3.345009268e-04	5.452943651e-12
-1.100000000e-02	1.340068904e-01	-3.331401168e-04	2.884632790e-11
-1.110000000e-02	1.340068936e-01	-3.317793065e-04	9.488083597e-12
-1.120000000e-02	1.340068967e-01	-3.304184961e-04	4.207832412e-11
-1.130000000e-02	1.340068997e-01	-3.290576854e-04	5.288638024e-11
-1.140000000e-02	1.340069027e-01	-3.276968745e-04	5.539784833e-11
-1.150000000e-02	1.340069057e-01	-3.263360633e-04	3.849597950e-11
-1.160000000e-02	1.340069086e-01	-3.249752519e-04	1.454887271e-11
-1.170000000e-02	1.340069115e-01	-3.236144403e-04	1.052471039e-11
-1.180000000e-02	1.340069144e-01	-3.222536285e-04	7.685424903e-12
-1.190000000e-02	1.340069172e-01	-3.208928165e-04	6.776162306e-12
-1.200000000e-02	1.340069199e-01	-3.195320042e-04	1.939066056e-11
-1.210000000e-02	1.340069227e-01	-3.181711918e-04	1.288922830e-11
-1.220000000e-02	1.340069253e-01	-3.168103791e-04	1.838198822e-11
-1.230000000e-02	1.340069280e-01	-3.154495662e-04	2.521858459e-11
-1.240000000e-02	1.340069306e-01	-3.140887531e-04	1.346973844e-11
-1.250000000e-02	1.340069331e-01	-3.127279399e-04	1.553525739e-11
-1.260000000e-02	1.340069356e-01	-3.113671264e-04	2.356582595e-11
-1.270000000e-02	1.340069381e-01	-3.100063127e-04	1.263445603e-11
-1.280000000e-02	1.340069406e-01	-3.086454988e-04	9.107200727e-12
-1.290000000e-02	1.340069429e-01	-3.072846847e-04	1.300149155e-11
-1.300000000e-02	1.340069453e-01	-3.059238704e-04	1.786624247e-11
-1.310000000e-02	1.340069476e-01	-3.045630559e-04	1.208873323e-11
-1.320000000e-02	1.340069499e-01	-3.032022412e-04	1.056027007e-11
-1.330000000e-02	1.340069521e-01	-3.018414264e-04	1.940781044e-11
-1.340000000e-02	1.340069543e-01	-3.004806113e-04	1.207559307e-11
-1.350000000e-02	1.340069564e-01	-2.991197961e-04	1.432373311e-11
-1.360000000e-02	1.340069585e-01	-2.977589807e-04	7.163624421e-12
-1.370000000e-02	1.340069606e-01	-2.963981651e-04	8.509833761e-11
-1.380000000e-02	1.340069626e-01	-2.950373493e-04	1.096589932e-11
-1.390000000e-02	1.340069646e-01	-2.936765334e-04	7.627441886e-12
-1.400000000e-02	1.340069665e-01	-2.923157173e-04	1.041431839e-11
-1.410000000e-02	1.340069684e-01	-2.909549010e-04	1.210458611e-11
-1.420000000e-02	1.340069703e-01	-2.895940845e-04	1.213749091e-11
-1.430000000e-02	1.340069721e-01	-2.882332679e-04	2.537644867e-11
-1.440000000e-02	1.340069739e-01	-2.868724511e-04	1.555384470e-10
-1.450000000e-02	1.340069756e-01	-2.855116341e-04	1.213901126e-11
-1.460000000e-02	1.340069773e-01	-2.841508170e-04	2.476397766e-11
-1.470000000e-02	1.340069789e-01	-2.827899997e-04	1.160408205e-11
-1.480000000e-02	1.340069805e-01	-2.814291823e-04	7.466366118e-12
-1.490000000e-02	1.340069821e-01	-2.800683647e-04	1.039827916e-11
-1.500000000e-02	1.340069836e-01	-2.787075470e-04	2.892420121e-11
-1.510000000e-02	1.340069851e-01	-2.773467291e-04	1.079468034e-11
-1.520000000e-02	1.340069865e-01	-2.759859111e-04	7.133170057e-12
-1.530000000e-02	1.340069879e-01	-2.746250929e-04	1.821005887e-11
-1.540000000e-02	1.340069893e-01	-2.732642745e-04	2.017465111e-11
-1.550000000e-02	1.340069906e-01	-2.719034561e-04	1.697050055e-11
-1.560000000e-02	1.340069919e-01	-2.705426374e-04	7.562509340e-12
-1.570000000e-02	1.340069931e-01	-2.691818187e-04	9.302261421e-12
-1.580000000e-02	1.340069943e-01	-2.678209998e-04	2.112364139e-11
-1.590000000e-02	1.340069955e-01	-2.664601808e-04	8.538627863e-12
-1.600000000e-02	1.340069966e-01	-2.650993616e-04	1.565755937e-11
-1.610000000e-02	1.340069976e-01	-2.637385423e-04	1.328201298e-11
-1.620000000e-02	1.340069987e-01	-2.623777229e-04	1.313307707e-11
-1.630000000e-02	1.340069997e-01	-2.610169034e-04	3.907033301e-11
-1.640000000e-02	1.340070006e-01	-2.596560837e-04	8.571650716e-12
-1.650000000e-02	1.340070015e-01	-2.582952639e-04	6.161152801e-12
-1.660000000e-02	1.340070024e-01	-2.569344440e-04	4.052441153e-11
-1.670000000e-02	1.340070032e-01	-2.555736240e-04	2.827051417e-11
-1.680000000e-02	1.340070040e-01	-2.542128039e-04	2.169462758e-11
-1.690000000e-02	1.340070047e-01	-2.528519836e-04	5.949778439e-12
-1.700000000e-02	1.340070054e-01	-2.514911633e-04	2.104409883e-10
-1.710000000e-02	1.340070061e-01	-2.501303428e-04	2.367638487e-11
-1.720000000e-02	1.340070067e-01	-2.487695222e-04	1.840237166e-11
-1.730000000e-02	1.340070072e-01	-2.474087016e-04	1.513493118e-11
-1.740000000e-02	1.340070078e-01	-2.460478808e-04	7.091963191e-11
-1.750000000e-02	1.340070083e-01	-2.446870599e-04	7.824106653e-12
-1.760000000e-02	1.340070087e-01	-2.433262389e-04	6.286916187e-12
-1.770000000e-02	1.340070091e-01	-2.419654178e-04	9.806915977e-12
-1.780000000e-02	1.340070095e-01	-2.406045967e-04	1.714496441e-11
-1.790000000e-02	1.340070098e-01	-2.392437754e-04	2.457024965e-11
-1.800000000e-02	1.340070101e-01	-2.378829540e-04	1.592320330e-11
-1.810000000e-02	1.340070103e-01	-2.365221326e-04	6.503211329e-12
-1.820000000e-02	1.340070105e-01	-2.351613111e-04	3.492160808e-11
-1.830000000e-02	1.340070107e-01	-2.338004894e-04	1.517661505e-11
-1.840000000e-02	1.340070108e-01	-2.324396678e-04	8.955456354e-12
-1.850000000e-02	1.340070109e-01	-2.310788460e-04	6.160042705e-12
-1.860000000e-02	1.340070109e-01	-2.297180241e-04	1.110033635e-11
-1.870000000e-02	1.340070109e-01	-2.283572022e-04	1.611964914e-11
-1.880000000e-02	1.340070109e-01	-2.269963802e-04	1.372365701e-11
-1.890000000e-02	1.340070108e-01	-2.256355581e-04	2.311986226e-11
-1.900000000e-02	1.340070107e-01	-2.242747360e-04	1.065399552e-11
-1.910000000e-02	1.340070105e-01	-2.229139138e-04	1.047278816e-11
-1.920000000e-02	1.340070103e-01	-2.215530915e-04	2.728695712e-11
-1.930000000e-02	1.340070100e-01	-2.201922691e-04	1.137142395e-11
-1.940000000e-02	1.340070097e-01	-2.188314467e-04	1.123200000e-11
-1.950000000e-02	1.340070094e-01	-2.174706243e-04	2.202845778e-11
-1.960000000e-02	1.340070090e-01	-2.161098018e-04	1.043738247e-11
-1.970000000e-02	1.340070086e-01	-2.147489792e-04	9.370751743e-12
-1.980000000e-02	1.340070081e-01	-2.133881566e-04	8.105454308e-12
-1.990000000e-02	1.340070076e-01	-2.120273339e-04	7.968909803e-12
-2.000000000e-02	1.340070071e-01	-2.106665112e-04	3.984087767e-11
-2.010000000e-02	1.340070065e-01	-2.093056884e-04	4.579341796e-11
-2.020000000e-02	1.340070059e-01	-2.079448656e-04	1.663126391e-11
-2.030000000e-02	1.340070052e-01	-2.065840428e-04	9.078266211e-12
-2.040000000e-02	1.340070045e-01	-2.052232199e-04	5.045720699e-12
-2.050000000e-02	1.340070037e-01	-2.038623969e-04	2.514107912e-11
-2.060000000e-02	1.340070030e-01	-2.025015739e-04	2.888366443e-11
-2.070000000e-02	1.340070021e-01	-2.011407509e-04	1.215121530e-11
-2.080000000e-02	1.340070012e-01	-1.997799279e-04	1.638606190e-11
-2.090000000e-02	1.340070003e-01	-1.984191049e-04	2.754822224e-11
-2.100000000e-02	1.340069994e-01	-1.970582818e-04	1.398000119e-11
-2.110000000e-02	1.340069984e-01	-1.956974586e-04	1.023331398e-11
-2.120000000e-02	1.340069973e-01	-1.943366355e-04	9.529633429e-11
-2.130000000e-02	1.340069963e-01	-1.929758123e-04	1.659925906e-11
-2.140000000e-02	1.340069951e-01	-1.916149892e-04	9.742391129e-12
-2.150000000e-02	1.340069940e-01	-1.902541660e-04	1.152793811e-11
-2.160000000e-02	1.340069928e-01	-1.888933427e-04	2.191158938e-11
-2.170000000e-02	1.340069915e-01	-1.875325195e-04	1.961177000e-11
-2.180000000e-02	1.340069902e-01	-1.861716963e-04	2.682749085e-11
-2.190000000e-02	1.340069889e-01	-1.848108730e-04	8.095499202e-12
-2.200000000e-02	1.340069875e-01	-1.834500498e-04	3.329910444e-11
-2.210000000e-02	1.340069861e-01	-1.820892265e-04	3.122002860e-12
-2.220000000e-02	1.340069847e-01	-1.807284033e-04	3.138251902e-11
-2.230000000e-02	1.340069832e-01	-1.793675800e-04	7.282244433e-12
-2.240000000e-02	1.340069816e-01	-1.780067567e-04	1.183821012e-11
-2.250000000e-02	1.340069801e-01	-1.766459335e-04	1.182341006e-11
-2.260000000e-02	1.340069784e-01	-1.752851102e-04	5.925545260e-12
-2.270000000e-02	1.340069768e-01	-1.739242870e-04	1.401396505e-11
-2.280000000e-02	1.340069751e-01	-1.725634638e-04	1.754822797e-11
-2.290000000e-02	1.340069733e-01	-1.712026406e-04	8.664162230e-12
-2.300000000e-02	1.340069716e-01	-1.698418174e-04	1.071933052e-11
-2.310000000e-02	1.340069697e-01	-1.684809942e-04	1.052926288e-11
-2.320000000e-02	1.340069679e-01	-1.671201710e-04	1.162659531e-11
-2.330000000e-02	1.340069660e-01	-1.657593478e-04	2.687623675e-11
-2.340000000e-02	1.340069640e-01	-1.643985247e-04	1.006179411e-11
-2.350000000e-02	1.340069620e-01	-1.630377016e-04	1.217837768e-11
-2.360000000e-02	1.340069600e-01	-1.616768785e-04	1.136351170e-11
-2.370000000e-02	1.340069579e-01	-1.603160555e-04	1.628061955e-11
-2.380000000e-02	1.340069558e-01	-1.589552325e-04	1.199796196e-11
-2.390000000e-02	1.340069536e-01	-1.575944095e-04	1.341742013e-11
-2.400000000e-02	1.340069514e-01	-1.562335865e-04	5.507332358e-11
-2.410000000e-02	1.340069492e-01	-1.548727636e-04	1.916535387e-11
-2.420000000e-02	1.340069469e-01	-1.535119408e-04	2.341939622e-11
-2.430000000e-02	1.340069446e-01	-1.521511179e-04	2.634236304e-11
-2.440000000e-02	1.340069422e-01	-1.507902951e-04	1.343748614e-11
-2.450000000e-02	1.340069398e-01	-1.494294724e-04	9.443268441e-12
-2.460000000e-02	1.340069374e-01	-1.480686497e-04	2.986788935e-11
-2.470000000e-02	1.340069349e-01	-1.467078270e-04	1.571203413e-11
-2.480000000e-02	1.340069324e-01	-1.453470045e-04	8.683219988e-12
-2.490000000e-02	1.340069298e-01	-1.439861819e-04	1.311669788e-11
-2.500000000e-02	1.340069272e-01	-1.426253594e-04	4.783406074e-12
-2.510000000e-02	1.340069245e-01	-1.412645370e-04	1.523762357e-11
-2.520000000e-02	1.340069218e-01	-1.399037146e-04	1.592260177e-11
-2.530000000e-02	1.340069191e-01	-1.385428924e-04	2.364758592e-10
-2.540000000e-02	1.340069163e-01	-1.371820701e-04	5.732853305e-12
-2.550000000e-02	1.340069135e-01	-1.358212479e-04	3.676158286e-11
-2.560000000e-02	1.340069107e-01	-1.344604258e-04	1.305757892e-11
-2.570000000e-02	1.340069078e-01	-1.330996038e-04	2.624840097e-11
-2.580000000e-02	1.340069048e-01	-1.317387818e-04	1.689169972e-11
-2.590000000e-02	1.340069018e-01	-1.303779599e-04	1.172287094e-11
-2.600000000e-02	1.340068988e-01	-1.290171381e-04	1.567506571e-11
-2.610000000e-02	1.340068957e-01	-1.276563164e-04	1.640591949e-11
-2.620000000e-02	1.340068926e-01	-1.262954948e-04	9.540127369e-12
-2.630000000e-02	1.340068895e-01	-1.249346732e-04	1.238038398e-11
-2.640000000e-02	1.340068863e-01	-1.235738517e-04	2.596893757e-11
-2.650000000e-02	1.340068831e-01	-1.222130303e-04	3.045946508e-11
-2.660000000e-02	1.340068798e-01	-1.208522090e-04	1.649628962e-11
-2.670000000e-02	1.340068765e-01	-1.194913878e-04	2.687047722e-11
-2.680000000e-02	1.340068731e-01	-1.181305667e-04	1.586162443e-11
-2.690000000e-02	1.340068697e-01	-1.167697456e-04	1.124941569e-11
-2.700000000e-02	1.340068663e-01	-1.154089247e-04	1.422168999e-11
-2.710000000e-02	1.340068628e-01	-1.140481039e-04	4.684358035e-11
-2.720000000e-02	1.340068593e-01	-1.126872832e-04	3.506291244e-11
-2.730000000e-02	1.340068557e-01	-1.113264625e-04	8.116937066e-12
-2.740000000e-02	1.340068521e-01	-1.099656420e-04	2.186625668e-11
-2.750000000e-02	1.340068485e-01	-1.086048216e-04	6.711316196e-12
-2.760000000e-02	1.340068448e-01	-1.072440013e-04	7.886745418e-12
-2.770000000e-02	1.340068411e-01	-1.058831811e-04	7.672754543e-12
-2.780000000e-02	1.340068373e-01	-1.045223611e-04	2.034909738e-11
-2.790000000e-02	1.340068335e-01	-1.031615411e-04	7.673401659e-12
-2.800000000e-02	1.340068297e-01	-1.018007213e-04	1.105827192e-11
-2.810000000e-02	1.340068258e-01	-1.004399016e-04	1.398818608e-11
-2.820000000e-02	1.340068218e-01	-9.907908197e-05	7.128049126e-12
-2.830000000e-02	1.340068179e-01	-9.771826251e-05	1.495209981e-11
-2.840000000e-02	1.340068138e-01	-9.635744317e-05	1.069263367e-11
-2.850000000e-02	1.340068098e-01	-9.499662396e-05	1.720996347e-11
-2.860000000e-02	1.340068057e-01	-9.363580488e-05	8.882110758e-12
-2.870000000e-02	1.340068015e-01	-9.227498593e-05	9.721997634e-12
-2.880000000e-02	1.340067974e-01	-9.091416712e-05	1.929505019e-11
-2.890000000e-02	1.340067931e-01	-8.955334844e-05	9.580396648e-12
-2.900000000e-02	1.340067889e-01	-8.819252990e-05	9.519291480e-12
-2.910000000e-02	1.340067846e-01	-8.683171151e-05	1.293472551e-11
-2.920000000e-02	1.340067802e-01	-8.547089326e-05	6.899429143e-12
-2.930000000e-02	1.340067758e-01	-8.411007516e-05	8.106507350e-12
-2.940000000e-02	1.340067714e-01	-8.274925720e-05	1.872679970e-11
-2.950000000e-02	1.340067669e-01	-8.138843940e-05	1.253402054e-11
-2.960000000e-02	1.340067624e-01	-8.002762174e-05	1.175541653e-11
-2.970000000e-02	1.340067579e-01	-7.866680425e-05	3.385229833e-11
-2.980000000e-02	1.340067533e-01	-7.730598689e-05	1.322342888e-11
-2.990000000e-02	1.340067486e-01	-7.594516982e-05	4.696022891e-10
-3.000000000e-02	1.340067440e-01	-7.458435269e-05	3.871054247e-11
