# Im(epsi1)     Re(omega/c)      Im(omega/c)      Eq(det).Opt det CON kz, R=0.5 \mum, mu_c=0.3, Re(epsi1)=3.90solve_det_conkz_vs_kz.py
0.000000000e+00	1.340053468e-01	-4.804931354e-04	1.101817661e-11
-1.000000000e-04	1.340053544e-01	-4.791322954e-04	2.396347540e-11
-2.000000000e-04	1.340053620e-01	-4.777714550e-04	1.098481074e-11
-3.000000000e-04	1.340053695e-01	-4.764106141e-04	1.679188787e-11
-4.000000000e-04	1.340053770e-01	-4.750497727e-04	1.349528090e-11
-5.000000000e-04	1.340053845e-01	-4.736889309e-04	3.050923386e-11
-6.000000000e-04	1.340053919e-01	-4.723280887e-04	1.624586795e-11
-7.000000000e-04	1.340053992e-01	-4.709672460e-04	2.407456978e-11
-8.000000000e-04	1.340054066e-01	-4.696064029e-04	8.599860234e-12
-9.000000000e-04	1.340054138e-01	-4.682455593e-04	1.426056914e-11
-1.000000000e-03	1.340054211e-01	-4.668847153e-04	1.851033584e-11
-1.100000000e-03	1.340054283e-01	-4.655238708e-04	2.895912977e-11
-1.200000000e-03	1.340054354e-01	-4.641630259e-04	9.826702389e-12
-1.300000000e-03	1.340054426e-01	-4.628021806e-04	1.694826808e-11
-1.400000000e-03	1.340054496e-01	-4.614413348e-04	3.421677161e-11
-1.500000000e-03	1.340054567e-01	-4.600804886e-04	1.439109352e-11
-1.600000000e-03	1.340054637e-01	-4.587196420e-04	1.263165914e-11
-1.700000000e-03	1.340054706e-01	-4.573587950e-04	6.471256880e-12
-1.800000000e-03	1.340054775e-01	-4.559979475e-04	1.809122485e-11
-1.900000000e-03	1.340054844e-01	-4.546370996e-04	1.319332834e-11
-2.000000000e-03	1.340054912e-01	-4.532762513e-04	5.829325518e-12
-2.100000000e-03	1.340054980e-01	-4.519154025e-04	2.981362348e-11
-2.200000000e-03	1.340055047e-01	-4.505545534e-04	2.546909580e-11
-2.300000000e-03	1.340055114e-01	-4.491937038e-04	1.538435558e-11
-2.400000000e-03	1.340055181e-01	-4.478328538e-04	1.290538860e-11
-2.500000000e-03	1.340055247e-01	-4.464720034e-04	2.168568542e-11
-2.600000000e-03	1.340055313e-01	-4.451111526e-04	1.641202890e-11
-2.700000000e-03	1.340055378e-01	-4.437503014e-04	7.998560134e-12
-2.800000000e-03	1.340055443e-01	-4.423894498e-04	1.105520137e-11
-2.900000000e-03	1.340055508e-01	-4.410285978e-04	3.701097241e-11
-3.000000000e-03	1.340055572e-01	-4.396677454e-04	3.122359853e-11
-3.100000000e-03	1.340055636e-01	-4.383068926e-04	6.969337957e-12
-3.200000000e-03	1.340055699e-01	-4.369460394e-04	2.712126091e-11
-3.300000000e-03	1.340055762e-01	-4.355851858e-04	2.295455083e-11
-3.400000000e-03	1.340055824e-01	-4.342243318e-04	9.918300502e-12
-3.500000000e-03	1.340055886e-01	-4.328634774e-04	9.722132336e-12
-3.600000000e-03	1.340055948e-01	-4.315026226e-04	1.595194835e-11
-3.700000000e-03	1.340056009e-01	-4.301417675e-04	1.505408633e-11
-3.800000000e-03	1.340056070e-01	-4.287809120e-04	1.619023076e-11
-3.900000000e-03	1.340056130e-01	-4.274200560e-04	7.699238238e-12
-4.000000000e-03	1.340056190e-01	-4.260591998e-04	1.101440921e-11
-4.100000000e-03	1.340056250e-01	-4.246983431e-04	1.047315145e-11
-4.200000000e-03	1.340056309e-01	-4.233374860e-04	1.616336239e-11
-4.300000000e-03	1.340056368e-01	-4.219766286e-04	6.682120620e-12
-4.400000000e-03	1.340056426e-01	-4.206157708e-04	4.407010070e-11
-4.500000000e-03	1.340056484e-01	-4.192549127e-04	2.961681613e-11
-4.600000000e-03	1.340056542e-01	-4.178940542e-04	7.590819725e-12
-4.700000000e-03	1.340056599e-01	-4.165331953e-04	2.253733846e-11
-4.800000000e-03	1.340056655e-01	-4.151723360e-04	1.572601951e-11
-4.900000000e-03	1.340056712e-01	-4.138114764e-04	1.645768557e-11
-5.000000000e-03	1.340056768e-01	-4.124506164e-04	2.289831816e-11
-5.100000000e-03	1.340056823e-01	-4.110897561e-04	9.777204804e-12
-5.200000000e-03	1.340056878e-01	-4.097288954e-04	6.424064389e-12
-5.300000000e-03	1.340056933e-01	-4.083680344e-04	1.282679687e-11
-5.400000000e-03	1.340056987e-01	-4.070071730e-04	9.085062298e-12
-5.500000000e-03	1.340057041e-01	-4.056463113e-04	7.642553931e-12
-5.600000000e-03	1.340057094e-01	-4.042854492e-04	1.031845026e-11
-5.700000000e-03	1.340057147e-01	-4.029245868e-04	3.149281495e-11
-5.800000000e-03	1.340057200e-01	-4.015637241e-04	1.020205705e-11
-5.900000000e-03	1.340057252e-01	-4.002028610e-04	7.912832976e-12
-6.000000000e-03	1.340057303e-01	-3.988419975e-04	1.191175007e-11
-6.100000000e-03	1.340057355e-01	-3.974811338e-04	7.321534331e-12
-6.200000000e-03	1.340057406e-01	-3.961202697e-04	1.494989840e-11
-6.300000000e-03	1.340057456e-01	-3.947594052e-04	7.722449462e-12
-6.400000000e-03	1.340057506e-01	-3.933985405e-04	4.356192824e-11
-6.500000000e-03	1.340057556e-01	-3.920376754e-04	1.866879532e-11
-6.600000000e-03	1.340057605e-01	-3.906768100e-04	4.149527115e-12
-6.700000000e-03	1.340057654e-01	-3.893159443e-04	9.845928081e-12
-6.800000000e-03	1.340057702e-01	-3.879550782e-04	1.348680003e-11
-6.900000000e-03	1.340057750e-01	-3.865942118e-04	1.571590618e-11
-7.000000000e-03	1.340057798e-01	-3.852333451e-04	2.967264194e-11
-7.100000000e-03	1.340057845e-01	-3.838724781e-04	9.698682027e-12
-7.200000000e-03	1.340057892e-01	-3.825116108e-04	2.701381972e-11
-7.300000000e-03	1.340057938e-01	-3.811507432e-04	3.320140528e-11
-7.400000000e-03	1.340057984e-01	-3.797898753e-04	1.855646530e-11
-7.500000000e-03	1.340058030e-01	-3.784290070e-04	2.422515413e-11
-7.600000000e-03	1.340058075e-01	-3.770681385e-04	2.317164100e-11
-7.700000000e-03	1.340058119e-01	-3.757072697e-04	1.427286782e-11
-7.800000000e-03	1.340058164e-01	-3.743464005e-04	1.821745609e-11
-7.900000000e-03	1.340058208e-01	-3.729855311e-04	1.496364721e-11
-8.000000000e-03	1.340058251e-01	-3.716246613e-04	9.787046540e-12
-8.100000000e-03	1.340058294e-01	-3.702637913e-04	1.833437857e-11
-8.200000000e-03	1.340058337e-01	-3.689029210e-04	2.868748437e-11
-8.300000000e-03	1.340058379e-01	-3.675420504e-04	4.136471626e-11
-8.400000000e-03	1.340058421e-01	-3.661811795e-04	2.986740659e-11
-8.500000000e-03	1.340058462e-01	-3.648203083e-04	1.073150668e-11
-8.600000000e-03	1.340058503e-01	-3.634594368e-04	1.338493789e-11
-8.700000000e-03	1.340058544e-01	-3.620985651e-04	1.424204715e-11
-8.800000000e-03	1.340058584e-01	-3.607376931e-04	1.838757977e-11
-8.900000000e-03	1.340058624e-01	-3.593768208e-04	2.085151599e-11
-9.000000000e-03	1.340058663e-01	-3.580159482e-04	1.638822494e-11
-9.100000000e-03	1.340058702e-01	-3.566550754e-04	1.855307347e-11
-9.200000000e-03	1.340058740e-01	-3.552942022e-04	1.538519661e-11
-9.300000000e-03	1.340058778e-01	-3.539333289e-04	6.088076772e-12
-9.400000000e-03	1.340058816e-01	-3.525724552e-04	2.483827221e-11
-9.500000000e-03	1.340058853e-01	-3.512115813e-04	2.025214836e-11
-9.600000000e-03	1.340058890e-01	-3.498507071e-04	1.073611342e-11
-9.700000000e-03	1.340058927e-01	-3.484898327e-04	8.381126785e-12
-9.800000000e-03	1.340058963e-01	-3.471289580e-04	2.580335477e-11
-9.900000000e-03	1.340058998e-01	-3.457680830e-04	6.186922746e-12
-1.000000000e-02	1.340059033e-01	-3.444072078e-04	4.041603632e-11
-1.010000000e-02	1.340059068e-01	-3.430463324e-04	6.984185308e-12
-1.020000000e-02	1.340059102e-01	-3.416854567e-04	1.848265396e-11
-1.030000000e-02	1.340059136e-01	-3.403245807e-04	1.843133479e-11
-1.040000000e-02	1.340059170e-01	-3.389637045e-04	1.487936625e-11
-1.050000000e-02	1.340059203e-01	-3.376028281e-04	1.157772866e-11
-1.060000000e-02	1.340059236e-01	-3.362419514e-04	1.465507445e-11
-1.070000000e-02	1.340059268e-01	-3.348810745e-04	1.812465506e-11
-1.080000000e-02	1.340059300e-01	-3.335201973e-04	1.044505603e-11
-1.090000000e-02	1.340059331e-01	-3.321593199e-04	8.386429867e-12
-1.100000000e-02	1.340059362e-01	-3.307984423e-04	1.265234048e-11
-1.110000000e-02	1.340059393e-01	-3.294375645e-04	1.459799057e-11
-1.120000000e-02	1.340059423e-01	-3.280766864e-04	1.192996261e-11
-1.130000000e-02	1.340059453e-01	-3.267158081e-04	7.118175363e-12
-1.140000000e-02	1.340059483e-01	-3.253549295e-04	1.384840264e-11
-1.150000000e-02	1.340059512e-01	-3.239940508e-04	9.399741323e-12
-1.160000000e-02	1.340059540e-01	-3.226331718e-04	2.965963745e-11
-1.170000000e-02	1.340059568e-01	-3.212722926e-04	1.000234165e-11
-1.180000000e-02	1.340059596e-01	-3.199114132e-04	9.657637675e-12
-1.190000000e-02	1.340059623e-01	-3.185505336e-04	1.646328857e-11
-1.200000000e-02	1.340059650e-01	-3.171896537e-04	1.372689350e-11
-1.210000000e-02	1.340059677e-01	-3.158287737e-04	2.628728328e-11
-1.220000000e-02	1.340059703e-01	-3.144678934e-04	9.589985044e-12
-1.230000000e-02	1.340059729e-01	-3.131070130e-04	1.101714284e-11
-1.240000000e-02	1.340059754e-01	-3.117461323e-04	3.627309430e-11
-1.250000000e-02	1.340059779e-01	-3.103852514e-04	2.579224343e-11
-1.260000000e-02	1.340059803e-01	-3.090243704e-04	9.678277233e-12
-1.270000000e-02	1.340059827e-01	-3.076634891e-04	1.011297253e-11
-1.280000000e-02	1.340059851e-01	-3.063026077e-04	1.306055842e-11
-1.290000000e-02	1.340059874e-01	-3.049417260e-04	1.113236866e-11
-1.300000000e-02	1.340059897e-01	-3.035808442e-04	1.133829636e-11
-1.310000000e-02	1.340059919e-01	-3.022199621e-04	1.305706612e-11
-1.320000000e-02	1.340059941e-01	-3.008590799e-04	7.545711622e-12
-1.330000000e-02	1.340059963e-01	-2.994981975e-04	1.272111559e-11
-1.340000000e-02	1.340059984e-01	-2.981373149e-04	6.997314550e-12
-1.350000000e-02	1.340060004e-01	-2.967764322e-04	1.080819455e-11
-1.360000000e-02	1.340060025e-01	-2.954155492e-04	1.629895378e-11
-1.370000000e-02	1.340060045e-01	-2.940546661e-04	7.260194401e-11
-1.380000000e-02	1.340060064e-01	-2.926937828e-04	1.676017736e-11
-1.390000000e-02	1.340060083e-01	-2.913328994e-04	8.121607763e-12
-1.400000000e-02	1.340060102e-01	-2.899720157e-04	6.880009906e-12
-1.410000000e-02	1.340060120e-01	-2.886111319e-04	6.513509979e-12
-1.420000000e-02	1.340060138e-01	-2.872502480e-04	8.228150580e-12
-1.430000000e-02	1.340060155e-01	-2.858893638e-04	6.491577176e-12
-1.440000000e-02	1.340060172e-01	-2.845284795e-04	1.329759058e-11
-1.450000000e-02	1.340060189e-01	-2.831675951e-04	1.130562589e-11
-1.460000000e-02	1.340060205e-01	-2.818067105e-04	6.820081350e-12
-1.470000000e-02	1.340060221e-01	-2.804458257e-04	1.302974460e-11
-1.480000000e-02	1.340060236e-01	-2.790849408e-04	1.865430946e-11
-1.490000000e-02	1.340060251e-01	-2.777240557e-04	1.008798854e-11
-1.500000000e-02	1.340060266e-01	-2.763631705e-04	7.654156288e-12
-1.510000000e-02	1.340060280e-01	-2.750022851e-04	8.470532407e-12
-1.520000000e-02	1.340060293e-01	-2.736413996e-04	1.049385289e-11
-1.530000000e-02	1.340060307e-01	-2.722805140e-04	1.067069182e-11
-1.540000000e-02	1.340060319e-01	-2.709196282e-04	1.744924670e-11
-1.550000000e-02	1.340060332e-01	-2.695587422e-04	1.500088473e-11
-1.560000000e-02	1.340060344e-01	-2.681978561e-04	1.682642081e-11
-1.570000000e-02	1.340060356e-01	-2.668369699e-04	9.660092675e-12
-1.580000000e-02	1.340060367e-01	-2.654760836e-04	7.045207010e-12
-1.590000000e-02	1.340060378e-01	-2.641151971e-04	1.853123567e-11
-1.600000000e-02	1.340060388e-01	-2.627543105e-04	1.239080067e-11
-1.610000000e-02	1.340060398e-01	-2.613934238e-04	2.266986699e-11
-1.620000000e-02	1.340060407e-01	-2.600325370e-04	3.398852320e-11
-1.630000000e-02	1.340060417e-01	-2.586716500e-04	1.119213968e-11
-1.640000000e-02	1.340060425e-01	-2.573107629e-04	1.716154931e-11
-1.650000000e-02	1.340060434e-01	-2.559498757e-04	1.083900317e-10
-1.660000000e-02	1.340060442e-01	-2.545889884e-04	1.068389428e-11
-1.670000000e-02	1.340060449e-01	-2.532281009e-04	7.466769807e-12
-1.680000000e-02	1.340060456e-01	-2.518672134e-04	1.823761491e-11
-1.690000000e-02	1.340060463e-01	-2.505063257e-04	7.449892376e-12
-1.700000000e-02	1.340060469e-01	-2.491454380e-04	1.178075946e-11
-1.710000000e-02	1.340060475e-01	-2.477845501e-04	2.553901034e-11
-1.720000000e-02	1.340060480e-01	-2.464236621e-04	8.460089431e-12
-1.730000000e-02	1.340060485e-01	-2.450627740e-04	1.136576448e-11
-1.740000000e-02	1.340060490e-01	-2.437018859e-04	4.673367422e-11
-1.750000000e-02	1.340060494e-01	-2.423409976e-04	5.358657792e-12
-1.760000000e-02	1.340060498e-01	-2.409801092e-04	3.172465664e-11
-1.770000000e-02	1.340060501e-01	-2.396192208e-04	8.457247990e-12
-1.780000000e-02	1.340060504e-01	-2.382583322e-04	1.666309881e-11
-1.790000000e-02	1.340060507e-01	-2.368974436e-04	1.637903972e-11
-1.800000000e-02	1.340060509e-01	-2.355365549e-04	1.177819180e-11
-1.810000000e-02	1.340060510e-01	-2.341756661e-04	2.185846223e-11
-1.820000000e-02	1.340060512e-01	-2.328147772e-04	1.268908887e-11
-1.830000000e-02	1.340060513e-01	-2.314538882e-04	6.520563365e-12
-1.840000000e-02	1.340060513e-01	-2.300929991e-04	1.240315504e-11
-1.850000000e-02	1.340060513e-01	-2.287321100e-04	4.027783697e-11
-1.860000000e-02	1.340060513e-01	-2.273712208e-04	1.214023319e-11
-1.870000000e-02	1.340060512e-01	-2.260103315e-04	1.313188266e-11
-1.880000000e-02	1.340060511e-01	-2.246494422e-04	5.227682871e-12
-1.890000000e-02	1.340060509e-01	-2.232885528e-04	1.171267271e-11
-1.900000000e-02	1.340060507e-01	-2.219276633e-04	1.267218754e-11
-1.910000000e-02	1.340060505e-01	-2.205667738e-04	1.096899141e-11
-1.920000000e-02	1.340060502e-01	-2.192058842e-04	7.566680384e-12
-1.930000000e-02	1.340060499e-01	-2.178449945e-04	1.360367215e-11
-1.940000000e-02	1.340060495e-01	-2.164841048e-04	4.638624091e-11
-1.950000000e-02	1.340060491e-01	-2.151232150e-04	4.495704705e-11
-1.960000000e-02	1.340060486e-01	-2.137623252e-04	9.230779127e-12
-1.970000000e-02	1.340060481e-01	-2.124014353e-04	6.273663472e-12
-1.980000000e-02	1.340060476e-01	-2.110405454e-04	1.120073742e-11
-1.990000000e-02	1.340060470e-01	-2.096796554e-04	1.348996513e-11
-2.000000000e-02	1.340060464e-01	-2.083187654e-04	2.536115389e-11
-2.010000000e-02	1.340060458e-01	-2.069578753e-04	1.063601880e-11
-2.020000000e-02	1.340060451e-01	-2.055969852e-04	1.926630491e-11
-2.030000000e-02	1.340060443e-01	-2.042360951e-04	9.630710029e-12
-2.040000000e-02	1.340060435e-01	-2.028752049e-04	2.841051925e-11
-2.050000000e-02	1.340060427e-01	-2.015143147e-04	1.567170859e-11
-2.060000000e-02	1.340060419e-01	-2.001534245e-04	1.413532856e-11
-2.070000000e-02	1.340060409e-01	-1.987925342e-04	8.036182027e-12
-2.080000000e-02	1.340060400e-01	-1.974316439e-04	1.465674054e-11
-2.090000000e-02	1.340060390e-01	-1.960707536e-04	1.560120154e-11
-2.100000000e-02	1.340060380e-01	-1.947098632e-04	1.230977334e-11
-2.110000000e-02	1.340060369e-01	-1.933489728e-04	1.076739613e-11
-2.120000000e-02	1.340060358e-01	-1.919880824e-04	1.445549841e-11
-2.130000000e-02	1.340060347e-01	-1.906271920e-04	8.905939508e-12
-2.140000000e-02	1.340060335e-01	-1.892663016e-04	9.577712837e-12
-2.150000000e-02	1.340060322e-01	-1.879054112e-04	1.949622876e-11
-2.160000000e-02	1.340060309e-01	-1.865445207e-04	1.048853915e-11
-2.170000000e-02	1.340060296e-01	-1.851836303e-04	1.001276078e-11
-2.180000000e-02	1.340060283e-01	-1.838227398e-04	1.947384517e-11
-2.190000000e-02	1.340060269e-01	-1.824618493e-04	2.006680241e-11
-2.200000000e-02	1.340060254e-01	-1.811009588e-04	8.648897215e-12
-2.210000000e-02	1.340060239e-01	-1.797400684e-04	8.685534576e-12
-2.220000000e-02	1.340060224e-01	-1.783791779e-04	9.441735241e-12
-2.230000000e-02	1.340060208e-01	-1.770182874e-04	1.692608353e-11
-2.240000000e-02	1.340060192e-01	-1.756573970e-04	1.488458153e-11
-2.250000000e-02	1.340060176e-01	-1.742965065e-04	1.592754933e-11
-2.260000000e-02	1.340060159e-01	-1.729356160e-04	1.754665070e-11
-2.270000000e-02	1.340060142e-01	-1.715747256e-04	1.187261364e-11
-2.280000000e-02	1.340060124e-01	-1.702138352e-04	1.857640604e-11
-2.290000000e-02	1.340060106e-01	-1.688529448e-04	1.016915528e-11
-2.300000000e-02	1.340060087e-01	-1.674920544e-04	1.816605699e-11
-2.310000000e-02	1.340060068e-01	-1.661311640e-04	8.927935139e-12
-2.320000000e-02	1.340060049e-01	-1.647702736e-04	3.988713782e-11
-2.330000000e-02	1.340060029e-01	-1.634093833e-04	9.045651748e-12
-2.340000000e-02	1.340060009e-01	-1.620484930e-04	1.266375343e-11
-2.350000000e-02	1.340059988e-01	-1.606876028e-04	1.308216633e-11
-2.360000000e-02	1.340059967e-01	-1.593267125e-04	9.543096874e-12
-2.370000000e-02	1.340059946e-01	-1.579658223e-04	7.634554866e-12
-2.380000000e-02	1.340059924e-01	-1.566049322e-04	4.166864624e-11
-2.390000000e-02	1.340059902e-01	-1.552440420e-04	2.867226293e-11
-2.400000000e-02	1.340059879e-01	-1.538831519e-04	1.332146805e-11
-2.410000000e-02	1.340059856e-01	-1.525222619e-04	7.095176149e-12
-2.420000000e-02	1.340059832e-01	-1.511613718e-04	1.964080252e-11
-2.430000000e-02	1.340059808e-01	-1.498004819e-04	1.055333836e-11
-2.440000000e-02	1.340059784e-01	-1.484395920e-04	1.894288200e-11
-2.450000000e-02	1.340059759e-01	-1.470787021e-04	1.043942051e-11
-2.460000000e-02	1.340059734e-01	-1.457178123e-04	9.283931518e-12
-2.470000000e-02	1.340059708e-01	-1.443569225e-04	1.177431101e-11
-2.480000000e-02	1.340059682e-01	-1.429960328e-04	1.007376528e-11
-2.490000000e-02	1.340059656e-01	-1.416351431e-04	1.939355710e-11
-2.500000000e-02	1.340059629e-01	-1.402742535e-04	2.389145102e-11
-2.510000000e-02	1.340059602e-01	-1.389133640e-04	7.350061824e-11
-2.520000000e-02	1.340059574e-01	-1.375524745e-04	1.632162624e-11
-2.530000000e-02	1.340059546e-01	-1.361915851e-04	7.122925787e-12
-2.540000000e-02	1.340059518e-01	-1.348306958e-04	1.012021308e-11
-2.550000000e-02	1.340059489e-01	-1.334698065e-04	2.014738779e-11
-2.560000000e-02	1.340059460e-01	-1.321089173e-04	1.550962397e-11
-2.570000000e-02	1.340059430e-01	-1.307480282e-04	1.847704730e-11
-2.580000000e-02	1.340059400e-01	-1.293871391e-04	1.491441707e-11
-2.590000000e-02	1.340059369e-01	-1.280262502e-04	2.370565413e-11
-2.600000000e-02	1.340059338e-01	-1.266653613e-04	8.876962787e-12
-2.610000000e-02	1.340059307e-01	-1.253044725e-04	8.968071631e-12
-2.620000000e-02	1.340059275e-01	-1.239435838e-04	3.358410085e-11
-2.630000000e-02	1.340059243e-01	-1.225826951e-04	2.963617562e-11
-2.640000000e-02	1.340059210e-01	-1.212218066e-04	8.918569346e-12
-2.650000000e-02	1.340059177e-01	-1.198609182e-04	1.529136903e-11
-2.660000000e-02	1.340059144e-01	-1.185000298e-04	2.489784380e-11
-2.670000000e-02	1.340059110e-01	-1.171391415e-04	3.685817795e-11
-2.680000000e-02	1.340059076e-01	-1.157782534e-04	2.404224747e-11
-2.690000000e-02	1.340059041e-01	-1.144173653e-04	2.251782492e-11
-2.700000000e-02	1.340059006e-01	-1.130564773e-04	1.063568321e-11
-2.710000000e-02	1.340058970e-01	-1.116955895e-04	9.018106512e-12
-2.720000000e-02	1.340058934e-01	-1.103347017e-04	1.362468416e-11
-2.730000000e-02	1.340058898e-01	-1.089738141e-04	1.467507147e-11
-2.740000000e-02	1.340058861e-01	-1.076129265e-04	8.188481932e-12
-2.750000000e-02	1.340058824e-01	-1.062520391e-04	2.413963903e-11
-2.760000000e-02	1.340058787e-01	-1.048911518e-04	1.853524038e-11
-2.770000000e-02	1.340058749e-01	-1.035302646e-04	9.771520164e-12
-2.780000000e-02	1.340058710e-01	-1.021693775e-04	8.169596945e-12
-2.790000000e-02	1.340058671e-01	-1.008084906e-04	9.859244937e-12
-2.800000000e-02	1.340058632e-01	-9.944760373e-05	7.275540822e-12
-2.810000000e-02	1.340058592e-01	-9.808671702e-05	1.900112687e-11
-2.820000000e-02	1.340058552e-01	-9.672583043e-05	2.837594296e-11
-2.830000000e-02	1.340058512e-01	-9.536494397e-05	1.447472364e-11
-2.840000000e-02	1.340058471e-01	-9.400405764e-05	1.736105870e-11
-2.850000000e-02	1.340058430e-01	-9.264317144e-05	1.516919426e-11
-2.860000000e-02	1.340058388e-01	-9.128228539e-05	7.534921621e-12
-2.870000000e-02	1.340058346e-01	-8.992139947e-05	5.851431425e-12
-2.880000000e-02	1.340058303e-01	-8.856051368e-05	2.096891956e-11
-2.890000000e-02	1.340058260e-01	-8.719962804e-05	1.392466742e-11
-2.900000000e-02	1.340058217e-01	-8.583874254e-05	1.070531217e-11
-2.910000000e-02	1.340058173e-01	-8.447785718e-05	5.790817561e-11
-2.920000000e-02	1.340058129e-01	-8.311697198e-05	1.273076332e-11
-2.930000000e-02	1.340058084e-01	-8.175608692e-05	1.868302243e-11
-2.940000000e-02	1.340058039e-01	-8.039520201e-05	9.419279595e-12
-2.950000000e-02	1.340057994e-01	-7.903431726e-05	6.693217658e-12
-2.960000000e-02	1.340057948e-01	-7.767343266e-05	2.500932414e-11
-2.970000000e-02	1.340057902e-01	-7.631254822e-05	3.106267065e-11
-2.980000000e-02	1.340057855e-01	-7.495166395e-05	1.897151519e-11
-2.990000000e-02	1.340057808e-01	-7.359077983e-05	7.478252281e-12
-3.000000000e-02	1.340057761e-01	-7.222989588e-05	8.091560172e-12
