# Im(epsi1)     Re(omega/c)      Im(omega/c)      Eq(det).Opt det CON kz, R=0.5 \mum, mu_c=0.3, Re(epsi1)=3.90solve_det_conkz_vs_kz.py
0.000000000e+00	1.340107049e-01	-4.971739636e-04	1.673148232e-11
-1.000000000e-04	1.340107130e-01	-4.958136194e-04	6.929502505e-12
-2.000000000e-04	1.340107211e-01	-4.944532747e-04	1.197634616e-11
-3.000000000e-04	1.340107291e-01	-4.930929295e-04	1.373471410e-11
-4.000000000e-04	1.340107371e-01	-4.917325838e-04	9.395144342e-12
-5.000000000e-04	1.340107451e-01	-4.903722376e-04	6.168593293e-12
-6.000000000e-04	1.340107530e-01	-4.890118910e-04	1.511475687e-11
-7.000000000e-04	1.340107608e-01	-4.876515439e-04	1.491941331e-11
-8.000000000e-04	1.340107687e-01	-4.862911964e-04	1.481155593e-10
-9.000000000e-04	1.340107765e-01	-4.849308483e-04	7.654718966e-12
-1.000000000e-03	1.340107842e-01	-4.835704998e-04	1.065315033e-11
-1.100000000e-03	1.340107919e-01	-4.822101508e-04	1.912212624e-11
-1.200000000e-03	1.340107996e-01	-4.808498014e-04	1.145776443e-11
-1.300000000e-03	1.340108072e-01	-4.794894515e-04	1.416109716e-11
-1.400000000e-03	1.340108148e-01	-4.781291011e-04	9.405892816e-12
-1.500000000e-03	1.340108223e-01	-4.767687503e-04	9.250092848e-12
-1.600000000e-03	1.340108298e-01	-4.754083990e-04	1.634182651e-11
-1.700000000e-03	1.340108373e-01	-4.740480473e-04	1.530679457e-10
-1.800000000e-03	1.340108447e-01	-4.726876952e-04	1.927467907e-11
-1.900000000e-03	1.340108521e-01	-4.713273425e-04	1.124284846e-11
-2.000000000e-03	1.340108594e-01	-4.699669895e-04	2.599157202e-11
-2.100000000e-03	1.340108667e-01	-4.686066360e-04	4.966338544e-12
-2.200000000e-03	1.340108740e-01	-4.672462820e-04	3.145100390e-11
-2.300000000e-03	1.340108812e-01	-4.658859276e-04	1.263712678e-11
-2.400000000e-03	1.340108884e-01	-4.645255728e-04	2.314792519e-11
-2.500000000e-03	1.340108955e-01	-4.631652175e-04	9.215039838e-12
-2.600000000e-03	1.340109026e-01	-4.618048618e-04	1.229915813e-11
-2.700000000e-03	1.340109096e-01	-4.604445057e-04	1.835235662e-11
-2.800000000e-03	1.340109166e-01	-4.590841491e-04	8.583710978e-12
-2.900000000e-03	1.340109236e-01	-4.577237921e-04	7.137951866e-12
-3.000000000e-03	1.340109305e-01	-4.563634347e-04	9.659607171e-12
-3.100000000e-03	1.340109374e-01	-4.550030769e-04	4.651610613e-12
-3.200000000e-03	1.340109442e-01	-4.536427186e-04	1.104499552e-11
-3.300000000e-03	1.340109510e-01	-4.522823599e-04	1.312690498e-11
-3.400000000e-03	1.340109578e-01	-4.509220008e-04	1.940643549e-11
-3.500000000e-03	1.340109645e-01	-4.495616413e-04	1.317623309e-11
-3.600000000e-03	1.340109712e-01	-4.482012814e-04	9.947658306e-12
-3.700000000e-03	1.340109778e-01	-4.468409211e-04	1.123665620e-11
-3.800000000e-03	1.340109844e-01	-4.454805603e-04	1.433350735e-11
-3.900000000e-03	1.340109909e-01	-4.441201992e-04	1.204558496e-11
-4.000000000e-03	1.340109975e-01	-4.427598376e-04	2.173644968e-11
-4.100000000e-03	1.340110039e-01	-4.413994757e-04	1.470555950e-11
-4.200000000e-03	1.340110104e-01	-4.400391133e-04	1.033940429e-11
-4.300000000e-03	1.340110167e-01	-4.386787505e-04	1.334675174e-11
-4.400000000e-03	1.340110231e-01	-4.373183874e-04	9.211753405e-12
-4.500000000e-03	1.340110294e-01	-4.359580238e-04	2.289180449e-11
-4.600000000e-03	1.340110356e-01	-4.345976599e-04	1.695735987e-11
-4.700000000e-03	1.340110419e-01	-4.332372956e-04	6.455812516e-12
-4.800000000e-03	1.340110480e-01	-4.318769308e-04	1.482824050e-11
-4.900000000e-03	1.340110542e-01	-4.305165657e-04	2.918355913e-11
-5.000000000e-03	1.340110603e-01	-4.291562002e-04	5.952230134e-12
-5.100000000e-03	1.340110663e-01	-4.277958344e-04	3.599485740e-11
-5.200000000e-03	1.340110723e-01	-4.264354681e-04	1.531132088e-11
-5.300000000e-03	1.340110783e-01	-4.250751015e-04	1.496401064e-11
-5.400000000e-03	1.340110843e-01	-4.237147345e-04	1.611839169e-11
-5.500000000e-03	1.340110901e-01	-4.223543671e-04	1.408491472e-11
-5.600000000e-03	1.340110960e-01	-4.209939994e-04	6.128988105e-12
-5.700000000e-03	1.340111018e-01	-4.196336313e-04	1.507190428e-11
-5.800000000e-03	1.340111076e-01	-4.182732628e-04	7.929019460e-12
-5.900000000e-03	1.340111133e-01	-4.169128939e-04	6.635533909e-12
-6.000000000e-03	1.340111190e-01	-4.155525247e-04	6.095882330e-12
-6.100000000e-03	1.340111246e-01	-4.141921551e-04	5.040582455e-11
-6.200000000e-03	1.340111302e-01	-4.128317852e-04	6.659401658e-12
-6.300000000e-03	1.340111358e-01	-4.114714149e-04	2.335872813e-11
-6.400000000e-03	1.340111413e-01	-4.101110443e-04	8.844662644e-12
-6.500000000e-03	1.340111468e-01	-4.087506733e-04	8.390486197e-12
-6.600000000e-03	1.340111522e-01	-4.073903019e-04	9.677070389e-12
-6.700000000e-03	1.340111576e-01	-4.060299302e-04	5.368222488e-12
-6.800000000e-03	1.340111629e-01	-4.046695582e-04	1.577921308e-11
-6.900000000e-03	1.340111683e-01	-4.033091858e-04	2.961564515e-11
-7.000000000e-03	1.340111735e-01	-4.019488131e-04	1.045219511e-11
-7.100000000e-03	1.340111788e-01	-4.005884400e-04	1.337185714e-11
-7.200000000e-03	1.340111839e-01	-3.992280666e-04	1.338709676e-10
-7.300000000e-03	1.340111891e-01	-3.978676929e-04	1.005697062e-11
-7.400000000e-03	1.340111942e-01	-3.965073188e-04	8.319977990e-12
-7.500000000e-03	1.340111993e-01	-3.951469444e-04	1.265781507e-11
-7.600000000e-03	1.340112043e-01	-3.937865696e-04	1.211241700e-11
-7.700000000e-03	1.340112093e-01	-3.924261946e-04	1.123267566e-11
-7.800000000e-03	1.340112142e-01	-3.910658192e-04	3.425340374e-11
-7.900000000e-03	1.340112191e-01	-3.897054435e-04	1.461996101e-11
-8.000000000e-03	1.340112240e-01	-3.883450674e-04	4.470776280e-11
-8.100000000e-03	1.340112288e-01	-3.869846911e-04	4.521630214e-11
-8.200000000e-03	1.340112335e-01	-3.856243144e-04	2.119799671e-11
-8.300000000e-03	1.340112383e-01	-3.842639374e-04	1.216974958e-11
-8.400000000e-03	1.340112430e-01	-3.829035601e-04	1.681892617e-11
-8.500000000e-03	1.340112476e-01	-3.815431825e-04	2.261665384e-11
-8.600000000e-03	1.340112522e-01	-3.801828046e-04	1.018019619e-11
-8.700000000e-03	1.340112568e-01	-3.788224264e-04	1.414259151e-11
-8.800000000e-03	1.340112613e-01	-3.774620478e-04	1.092618738e-11
-8.900000000e-03	1.340112658e-01	-3.761016690e-04	8.922550991e-12
-9.000000000e-03	1.340112703e-01	-3.747412899e-04	1.317504545e-11
-9.100000000e-03	1.340112747e-01	-3.733809105e-04	1.429049503e-11
-9.200000000e-03	1.340112790e-01	-3.720205307e-04	1.315323130e-11
-9.300000000e-03	1.340112833e-01	-3.706601507e-04	6.330456652e-11
-9.400000000e-03	1.340112876e-01	-3.692997704e-04	1.044159777e-11
-9.500000000e-03	1.340112919e-01	-3.679393898e-04	1.836227989e-11
-9.600000000e-03	1.340112960e-01	-3.665790089e-04	2.121715361e-11
-9.700000000e-03	1.340113002e-01	-3.652186277e-04	2.097131256e-11
-9.800000000e-03	1.340113043e-01	-3.638582463e-04	3.361045398e-11
-9.900000000e-03	1.340113084e-01	-3.624978645e-04	1.362096951e-11
-1.000000000e-02	1.340113124e-01	-3.611374825e-04	1.490915400e-11
-1.010000000e-02	1.340113164e-01	-3.597771002e-04	1.063415792e-11
-1.020000000e-02	1.340113204e-01	-3.584167176e-04	9.387545166e-12
-1.030000000e-02	1.340113243e-01	-3.570563348e-04	8.197134857e-12
-1.040000000e-02	1.340113281e-01	-3.556959517e-04	7.876350891e-12
-1.050000000e-02	1.340113319e-01	-3.543355683e-04	8.134309510e-12
-1.060000000e-02	1.340113357e-01	-3.529751846e-04	1.698595964e-11
-1.070000000e-02	1.340113395e-01	-3.516148007e-04	1.464368460e-11
-1.080000000e-02	1.340113432e-01	-3.502544165e-04	1.968994186e-11
-1.090000000e-02	1.340113468e-01	-3.488940321e-04	7.181855375e-12
-1.100000000e-02	1.340113505e-01	-3.475336473e-04	1.114573142e-11
-1.110000000e-02	1.340113540e-01	-3.461732624e-04	8.466033326e-12
-1.120000000e-02	1.340113576e-01	-3.448128772e-04	1.184165915e-11
-1.130000000e-02	1.340113611e-01	-3.434524917e-04	1.228322234e-11
-1.140000000e-02	1.340113645e-01	-3.420921060e-04	9.126000493e-12
-1.150000000e-02	1.340113679e-01	-3.407317200e-04	8.661691248e-11
-1.160000000e-02	1.340113713e-01	-3.393713338e-04	1.116843288e-11
-1.170000000e-02	1.340113746e-01	-3.380109474e-04	1.721072181e-11
-1.180000000e-02	1.340113779e-01	-3.366505607e-04	8.836409349e-12
-1.190000000e-02	1.340113811e-01	-3.352901737e-04	1.844713671e-11
-1.200000000e-02	1.340113844e-01	-3.339297866e-04	1.911816703e-11
-1.210000000e-02	1.340113875e-01	-3.325693991e-04	2.099961536e-11
-1.220000000e-02	1.340113906e-01	-3.312090115e-04	5.517753900e-12
-1.230000000e-02	1.340113937e-01	-3.298486236e-04	1.453705648e-11
-1.240000000e-02	1.340113968e-01	-3.284882355e-04	1.406854226e-11
-1.250000000e-02	1.340113998e-01	-3.271278472e-04	1.512942065e-11
-1.260000000e-02	1.340114027e-01	-3.257674586e-04	1.363112953e-11
-1.270000000e-02	1.340114056e-01	-3.244070698e-04	2.665611904e-11
-1.280000000e-02	1.340114085e-01	-3.230466808e-04	2.080557861e-11
-1.290000000e-02	1.340114113e-01	-3.216862916e-04	1.172953433e-11
-1.300000000e-02	1.340114141e-01	-3.203259022e-04	9.291430177e-12
-1.310000000e-02	1.340114169e-01	-3.189655125e-04	1.284074439e-11
-1.320000000e-02	1.340114196e-01	-3.176051226e-04	8.875640818e-12
-1.330000000e-02	1.340114222e-01	-3.162447326e-04	6.462639967e-12
-1.340000000e-02	1.340114249e-01	-3.148843423e-04	1.292760687e-11
-1.350000000e-02	1.340114275e-01	-3.135239518e-04	1.326700730e-11
-1.360000000e-02	1.340114300e-01	-3.121635611e-04	9.696869182e-12
-1.370000000e-02	1.340114325e-01	-3.108031702e-04	9.412100518e-12
-1.380000000e-02	1.340114350e-01	-3.094427791e-04	1.599770420e-11
-1.390000000e-02	1.340114374e-01	-3.080823878e-04	2.973059323e-11
-1.400000000e-02	1.340114398e-01	-3.067219963e-04	2.409490916e-11
-1.410000000e-02	1.340114421e-01	-3.053616046e-04	2.038232524e-11
-1.420000000e-02	1.340114444e-01	-3.040012127e-04	1.640814475e-11
-1.430000000e-02	1.340114467e-01	-3.026408207e-04	8.776340981e-12
-1.440000000e-02	1.340114489e-01	-3.012804284e-04	5.793273723e-12
-1.450000000e-02	1.340114510e-01	-2.999200359e-04	1.185930566e-11
-1.460000000e-02	1.340114532e-01	-2.985596433e-04	2.317149910e-11
-1.470000000e-02	1.340114553e-01	-2.971992505e-04	7.265401297e-12
-1.480000000e-02	1.340114573e-01	-2.958388575e-04	8.601827508e-12
-1.490000000e-02	1.340114593e-01	-2.944784644e-04	8.289191059e-12
-1.500000000e-02	1.340114613e-01	-2.931180710e-04	1.319425660e-11
-1.510000000e-02	1.340114632e-01	-2.917576775e-04	2.229561473e-11
-1.520000000e-02	1.340114651e-01	-2.903972838e-04	7.551363524e-12
-1.530000000e-02	1.340114669e-01	-2.890368900e-04	3.066556184e-11
-1.540000000e-02	1.340114687e-01	-2.876764959e-04	6.750964798e-12
-1.550000000e-02	1.340114705e-01	-2.863161017e-04	9.797530513e-12
-1.560000000e-02	1.340114722e-01	-2.849557074e-04	1.138123603e-10
-1.570000000e-02	1.340114739e-01	-2.835953129e-04	3.934470828e-11
-1.580000000e-02	1.340114755e-01	-2.822349182e-04	1.886006042e-11
-1.590000000e-02	1.340114771e-01	-2.808745234e-04	8.243750783e-11
-1.600000000e-02	1.340114786e-01	-2.795141284e-04	1.196336519e-11
-1.610000000e-02	1.340114802e-01	-2.781537333e-04	1.552161057e-11
-1.620000000e-02	1.340114816e-01	-2.767933380e-04	6.732556299e-12
-1.630000000e-02	1.340114831e-01	-2.754329426e-04	2.208602916e-11
-1.640000000e-02	1.340114844e-01	-2.740725470e-04	8.234412526e-12
-1.650000000e-02	1.340114858e-01	-2.727121513e-04	1.711902888e-11
-1.660000000e-02	1.340114871e-01	-2.713517554e-04	1.088766840e-11
-1.670000000e-02	1.340114884e-01	-2.699913594e-04	1.705203870e-11
-1.680000000e-02	1.340114896e-01	-2.686309633e-04	2.509603123e-11
-1.690000000e-02	1.340114908e-01	-2.672705670e-04	1.872267651e-11
-1.700000000e-02	1.340114919e-01	-2.659101706e-04	1.530528562e-11
-1.710000000e-02	1.340114930e-01	-2.645497740e-04	1.469935189e-11
-1.720000000e-02	1.340114940e-01	-2.631893774e-04	1.128502835e-11
-1.730000000e-02	1.340114951e-01	-2.618289806e-04	7.266633584e-12
-1.740000000e-02	1.340114960e-01	-2.604685836e-04	7.566590833e-12
-1.750000000e-02	1.340114970e-01	-2.591081866e-04	2.284066335e-11
-1.760000000e-02	1.340114979e-01	-2.577477894e-04	1.375383534e-11
-1.770000000e-02	1.340114987e-01	-2.563873921e-04	2.212436124e-11
-1.780000000e-02	1.340114995e-01	-2.550269947e-04	1.344520654e-11
-1.790000000e-02	1.340115003e-01	-2.536665972e-04	1.650122423e-11
-1.800000000e-02	1.340115010e-01	-2.523061996e-04	1.332246772e-11
-1.810000000e-02	1.340115017e-01	-2.509458018e-04	2.029134542e-11
-1.820000000e-02	1.340115023e-01	-2.495854040e-04	9.760159190e-12
-1.830000000e-02	1.340115029e-01	-2.482250060e-04	8.251198904e-12
-1.840000000e-02	1.340115035e-01	-2.468646080e-04	1.176404778e-11
-1.850000000e-02	1.340115040e-01	-2.455042098e-04	2.488366134e-11
-1.860000000e-02	1.340115045e-01	-2.441438115e-04	1.026566300e-11
-1.870000000e-02	1.340115049e-01	-2.427834132e-04	9.583131295e-12
-1.880000000e-02	1.340115053e-01	-2.414230147e-04	7.168628972e-12
-1.890000000e-02	1.340115057e-01	-2.400626162e-04	3.841096623e-11
-1.900000000e-02	1.340115060e-01	-2.387022175e-04	6.476076075e-12
-1.910000000e-02	1.340115063e-01	-2.373418188e-04	1.499696874e-11
-1.920000000e-02	1.340115065e-01	-2.359814200e-04	8.155193164e-12
-1.930000000e-02	1.340115067e-01	-2.346210211e-04	1.480555294e-11
-1.940000000e-02	1.340115068e-01	-2.332606221e-04	1.189614705e-11
-1.950000000e-02	1.340115069e-01	-2.319002230e-04	7.985010600e-12
-1.960000000e-02	1.340115070e-01	-2.305398239e-04	9.339702225e-12
-1.970000000e-02	1.340115070e-01	-2.291794246e-04	2.179269403e-11
-1.980000000e-02	1.340115070e-01	-2.278190253e-04	1.195728041e-11
-1.990000000e-02	1.340115069e-01	-2.264586260e-04	1.970138430e-11
-2.000000000e-02	1.340115068e-01	-2.250982265e-04	7.464894248e-11
-2.010000000e-02	1.340115067e-01	-2.237378270e-04	2.903064176e-11
-2.020000000e-02	1.340115065e-01	-2.223774274e-04	9.977006302e-12
-2.030000000e-02	1.340115063e-01	-2.210170278e-04	1.470179361e-11
-2.040000000e-02	1.340115060e-01	-2.196566280e-04	3.697874701e-11
-2.050000000e-02	1.340115057e-01	-2.182962283e-04	2.019449941e-11
-2.060000000e-02	1.340115054e-01	-2.169358284e-04	4.653431815e-12
-2.070000000e-02	1.340115050e-01	-2.155754286e-04	2.134125921e-11
-2.080000000e-02	1.340115046e-01	-2.142150286e-04	1.974969211e-11
-2.090000000e-02	1.340115041e-01	-2.128546286e-04	1.327549731e-11
-2.100000000e-02	1.340115036e-01	-2.114942286e-04	6.576760520e-11
-2.110000000e-02	1.340115030e-01	-2.101338285e-04	2.024270521e-11
-2.120000000e-02	1.340115024e-01	-2.087734284e-04	6.603284522e-12
-2.130000000e-02	1.340115018e-01	-2.074130282e-04	6.854440798e-12
-2.140000000e-02	1.340115011e-01	-2.060526279e-04	6.938971377e-11
-2.150000000e-02	1.340115004e-01	-2.046922277e-04	1.053376302e-11
-2.160000000e-02	1.340114996e-01	-2.033318274e-04	1.024184154e-11
-2.170000000e-02	1.340114988e-01	-2.019714271e-04	1.550161980e-11
-2.180000000e-02	1.340114980e-01	-2.006110267e-04	2.357753087e-11
-2.190000000e-02	1.340114971e-01	-1.992506263e-04	9.805039971e-12
-2.200000000e-02	1.340114962e-01	-1.978902259e-04	1.593857997e-11
-2.210000000e-02	1.340114952e-01	-1.965298254e-04	3.452521089e-11
-2.220000000e-02	1.340114942e-01	-1.951694249e-04	4.285918719e-11
-2.230000000e-02	1.340114931e-01	-1.938090244e-04	1.420980098e-11
-2.240000000e-02	1.340114920e-01	-1.924486239e-04	1.110186762e-11
-2.250000000e-02	1.340114909e-01	-1.910882233e-04	8.687903673e-12
-2.260000000e-02	1.340114897e-01	-1.897278228e-04	1.127177239e-11
-2.270000000e-02	1.340114885e-01	-1.883674222e-04	9.314756566e-12
-2.280000000e-02	1.340114873e-01	-1.870070216e-04	8.812325708e-12
-2.290000000e-02	1.340114860e-01	-1.856466210e-04	1.607257311e-11
-2.300000000e-02	1.340114846e-01	-1.842862204e-04	3.031122680e-11
-2.310000000e-02	1.340114832e-01	-1.829258198e-04	1.033788901e-11
-2.320000000e-02	1.340114818e-01	-1.815654192e-04	1.842288778e-11
-2.330000000e-02	1.340114803e-01	-1.802050186e-04	9.745372009e-12
-2.340000000e-02	1.340114788e-01	-1.788446179e-04	2.367868387e-11
-2.350000000e-02	1.340114773e-01	-1.774842173e-04	1.133738632e-11
-2.360000000e-02	1.340114757e-01	-1.761238167e-04	1.293224009e-10
-2.370000000e-02	1.340114741e-01	-1.747634161e-04	2.879533293e-11
-2.380000000e-02	1.340114724e-01	-1.734030155e-04	1.314868119e-11
-2.390000000e-02	1.340114707e-01	-1.720426149e-04	1.864426503e-11
-2.400000000e-02	1.340114689e-01	-1.706822143e-04	1.511678103e-11
-2.410000000e-02	1.340114671e-01	-1.693218138e-04	1.897866181e-11
-2.420000000e-02	1.340114653e-01	-1.679614132e-04	1.167445481e-11
-2.430000000e-02	1.340114634e-01	-1.666010127e-04	1.492041830e-11
-2.440000000e-02	1.340114615e-01	-1.652406122e-04	7.305661780e-12
-2.450000000e-02	1.340114596e-01	-1.638802117e-04	8.880079021e-12
-2.460000000e-02	1.340114576e-01	-1.625198112e-04	1.080528231e-11
-2.470000000e-02	1.340114555e-01	-1.611594108e-04	5.222998590e-12
-2.480000000e-02	1.340114534e-01	-1.597990104e-04	8.257603825e-12
-2.490000000e-02	1.340114513e-01	-1.584386100e-04	2.367926578e-11
-2.500000000e-02	1.340114491e-01	-1.570782097e-04	6.232832989e-11
-2.510000000e-02	1.340114469e-01	-1.557178094e-04	3.087185200e-11
-2.520000000e-02	1.340114447e-01	-1.543574091e-04	6.698167591e-12
-2.530000000e-02	1.340114424e-01	-1.529970089e-04	9.041878073e-12
-2.540000000e-02	1.340114401e-01	-1.516366087e-04	2.187287065e-11
-2.550000000e-02	1.340114377e-01	-1.502762086e-04	7.500459344e-12
-2.560000000e-02	1.340114353e-01	-1.489158085e-04	1.508101699e-11
-2.570000000e-02	1.340114328e-01	-1.475554084e-04	2.862518202e-11
-2.580000000e-02	1.340114303e-01	-1.461950084e-04	8.552256877e-12
-2.590000000e-02	1.340114278e-01	-1.448346085e-04	8.159468387e-12
-2.600000000e-02	1.340114252e-01	-1.434742086e-04	1.245647832e-11
-2.610000000e-02	1.340114226e-01	-1.421138088e-04	1.307384258e-11
-2.620000000e-02	1.340114199e-01	-1.407534090e-04	1.259069765e-11
-2.630000000e-02	1.340114172e-01	-1.393930093e-04	8.400310174e-12
-2.640000000e-02	1.340114145e-01	-1.380326096e-04	1.296994029e-11
-2.650000000e-02	1.340114117e-01	-1.366722100e-04	2.451543326e-11
-2.660000000e-02	1.340114089e-01	-1.353118105e-04	1.031332042e-11
-2.670000000e-02	1.340114060e-01	-1.339514110e-04	1.649436700e-11
-2.680000000e-02	1.340114031e-01	-1.325910117e-04	1.157642468e-10
-2.690000000e-02	1.340114001e-01	-1.312306124e-04	4.154236978e-12
-2.700000000e-02	1.340113971e-01	-1.298702131e-04	1.058598307e-11
-2.710000000e-02	1.340113941e-01	-1.285098140e-04	1.728361626e-11
-2.720000000e-02	1.340113910e-01	-1.271494149e-04	1.100109123e-10
-2.730000000e-02	1.340113879e-01	-1.257890159e-04	1.448392246e-11
-2.740000000e-02	1.340113847e-01	-1.244286170e-04	9.345439602e-12
-2.750000000e-02	1.340113815e-01	-1.230682181e-04	7.172253298e-12
-2.760000000e-02	1.340113783e-01	-1.217078194e-04	1.385837691e-11
-2.770000000e-02	1.340113750e-01	-1.203474208e-04	8.503089331e-12
-2.780000000e-02	1.340113717e-01	-1.189870222e-04	2.282535387e-11
-2.790000000e-02	1.340113683e-01	-1.176266237e-04	1.319114162e-11
-2.800000000e-02	1.340113649e-01	-1.162662254e-04	1.489980024e-11
-2.810000000e-02	1.340113615e-01	-1.149058271e-04	3.321631062e-11
-2.820000000e-02	1.340113580e-01	-1.135454289e-04	1.409047490e-11
-2.830000000e-02	1.340113545e-01	-1.121850308e-04	1.347309150e-11
-2.840000000e-02	1.340113509e-01	-1.108246329e-04	3.435832481e-11
-2.850000000e-02	1.340113473e-01	-1.094642350e-04	1.828673863e-11
-2.860000000e-02	1.340113436e-01	-1.081038373e-04	1.123774720e-11
-2.870000000e-02	1.340113399e-01	-1.067434396e-04	8.687166091e-12
-2.880000000e-02	1.340113362e-01	-1.053830421e-04	1.366770596e-11
-2.890000000e-02	1.340113324e-01	-1.040226447e-04	6.170002418e-12
-2.900000000e-02	1.340113286e-01	-1.026622474e-04	3.310891868e-11
-2.910000000e-02	1.340113247e-01	-1.013018502e-04	1.277638631e-11
-2.920000000e-02	1.340113208e-01	-9.994145315e-05	9.572441776e-12
-2.930000000e-02	1.340113169e-01	-9.858105621e-05	6.179937364e-12
-2.940000000e-02	1.340113129e-01	-9.722065941e-05	2.861106812e-11
-2.950000000e-02	1.340113089e-01	-9.586026272e-05	2.220642038e-11
-2.960000000e-02	1.340113048e-01	-9.449986617e-05	1.470792024e-11
-2.970000000e-02	1.340113007e-01	-9.313946974e-05	1.201383501e-11
-2.980000000e-02	1.340112966e-01	-9.177907348e-05	2.504832243e-10
-2.990000000e-02	1.340112924e-01	-9.041867730e-05	8.109750646e-12
-3.000000000e-02	1.340112881e-01	-8.905828129e-05	1.077642542e-11
