# Im(epsi1)     Re(omega/c)      Im(omega/c)      Eq(det).Opt det CON kz, R=0.5 \mum, mu_c=0.3, Re(epsi1)=3.90solve_det_conkz_vs_kz.py
0.000000000e+00	1.340083007e-01	-5.289453018e-04	1.646491450e-11
-1.000000000e-04	1.340083098e-01	-5.275858605e-04	8.828270953e-12
-2.000000000e-04	1.340083188e-01	-5.262264186e-04	1.432087834e-11
-3.000000000e-04	1.340083278e-01	-5.248669762e-04	1.253171392e-11
-4.000000000e-04	1.340083368e-01	-5.235075333e-04	8.885357563e-12
-5.000000000e-04	1.340083457e-01	-5.221480898e-04	8.462832714e-12
-6.000000000e-04	1.340083546e-01	-5.207886458e-04	1.394307713e-11
-7.000000000e-04	1.340083634e-01	-5.194292013e-04	1.763971779e-11
-8.000000000e-04	1.340083722e-01	-5.180697563e-04	1.166750304e-11
-9.000000000e-04	1.340083809e-01	-5.167103108e-04	1.027488198e-11
-1.000000000e-03	1.340083896e-01	-5.153508647e-04	1.159598277e-11
-1.100000000e-03	1.340083983e-01	-5.139914182e-04	2.396399562e-11
-1.200000000e-03	1.340084069e-01	-5.126319711e-04	2.058100204e-11
-1.300000000e-03	1.340084155e-01	-5.112725235e-04	1.136748364e-11
-1.400000000e-03	1.340084241e-01	-5.099130754e-04	3.408795498e-11
-1.500000000e-03	1.340084326e-01	-5.085536268e-04	4.157570798e-12
-1.600000000e-03	1.340084410e-01	-5.071941777e-04	1.251684051e-11
-1.700000000e-03	1.340084494e-01	-5.058347281e-04	1.017183832e-11
-1.800000000e-03	1.340084578e-01	-5.044752779e-04	3.520901302e-11
-1.900000000e-03	1.340084662e-01	-5.031158273e-04	8.172937914e-12
-2.000000000e-03	1.340084745e-01	-5.017563762e-04	1.187441743e-11
-2.100000000e-03	1.340084827e-01	-5.003969246e-04	9.946799783e-12
-2.200000000e-03	1.340084909e-01	-4.990374726e-04	1.587865088e-11
-2.300000000e-03	1.340084991e-01	-4.976780200e-04	8.179951201e-12
-2.400000000e-03	1.340085072e-01	-4.963185669e-04	7.712681063e-12
-2.500000000e-03	1.340085153e-01	-4.949591134e-04	3.049497821e-10
-2.600000000e-03	1.340085234e-01	-4.935996593e-04	1.182954148e-11
-2.700000000e-03	1.340085314e-01	-4.922402048e-04	2.946826633e-11
-2.800000000e-03	1.340085393e-01	-4.908807498e-04	2.289480365e-11
-2.900000000e-03	1.340085473e-01	-4.895212944e-04	9.691430208e-12
-3.000000000e-03	1.340085551e-01	-4.881618384e-04	1.464438868e-11
-3.100000000e-03	1.340085630e-01	-4.868023820e-04	7.563376427e-12
-3.200000000e-03	1.340085708e-01	-4.854429251e-04	3.456209303e-11
-3.300000000e-03	1.340085785e-01	-4.840834678e-04	1.082529736e-11
-3.400000000e-03	1.340085863e-01	-4.827240100e-04	1.043076126e-11
-3.500000000e-03	1.340085939e-01	-4.813645517e-04	1.423791703e-11
-3.600000000e-03	1.340086016e-01	-4.800050930e-04	1.044989867e-11
-3.700000000e-03	1.340086092e-01	-4.786456337e-04	9.601713035e-11
-3.800000000e-03	1.340086167e-01	-4.772861741e-04	7.348891465e-12
-3.900000000e-03	1.340086242e-01	-4.759267140e-04	2.382133540e-11
-4.000000000e-03	1.340086317e-01	-4.745672534e-04	1.220295932e-11
-4.100000000e-03	1.340086391e-01	-4.732077924e-04	1.518003443e-11
-4.200000000e-03	1.340086465e-01	-4.718483309e-04	7.390428724e-12
-4.300000000e-03	1.340086539e-01	-4.704888690e-04	3.830113011e-11
-4.400000000e-03	1.340086612e-01	-4.691294066e-04	1.204633874e-11
-4.500000000e-03	1.340086684e-01	-4.677699438e-04	2.352361780e-11
-4.600000000e-03	1.340086757e-01	-4.664104806e-04	1.281116582e-11
-4.700000000e-03	1.340086828e-01	-4.650510169e-04	1.129087666e-11
-4.800000000e-03	1.340086900e-01	-4.636915528e-04	1.641810836e-11
-4.900000000e-03	1.340086971e-01	-4.623320882e-04	7.361944415e-12
-5.000000000e-03	1.340087041e-01	-4.609726232e-04	1.716384670e-11
-5.100000000e-03	1.340087112e-01	-4.596131578e-04	9.955398250e-12
-5.200000000e-03	1.340087181e-01	-4.582536919e-04	4.643048726e-12
-5.300000000e-03	1.340087251e-01	-4.568942257e-04	2.122002588e-11
-5.400000000e-03	1.340087320e-01	-4.555347590e-04	1.677399923e-11
-5.500000000e-03	1.340087388e-01	-4.541752918e-04	8.707371508e-12
-5.600000000e-03	1.340087456e-01	-4.528158243e-04	4.788538345e-11
-5.700000000e-03	1.340087524e-01	-4.514563563e-04	6.010179679e-12
-5.800000000e-03	1.340087591e-01	-4.500968879e-04	6.582292705e-12
-5.900000000e-03	1.340087658e-01	-4.487374192e-04	1.643029639e-11
-6.000000000e-03	1.340087725e-01	-4.473779499e-04	9.257887555e-12
-6.100000000e-03	1.340087791e-01	-4.460184803e-04	1.244775849e-11
-6.200000000e-03	1.340087856e-01	-4.446590103e-04	1.218259829e-11
-6.300000000e-03	1.340087921e-01	-4.432995399e-04	1.520330946e-11
-6.400000000e-03	1.340087986e-01	-4.419400690e-04	8.784080536e-12
-6.500000000e-03	1.340088051e-01	-4.405805978e-04	1.578641600e-11
-6.600000000e-03	1.340088115e-01	-4.392211262e-04	6.018003800e-11
-6.700000000e-03	1.340088178e-01	-4.378616541e-04	3.157478166e-11
-6.800000000e-03	1.340088241e-01	-4.365021817e-04	1.023571209e-11
-6.900000000e-03	1.340088304e-01	-4.351427089e-04	2.040430923e-11
-7.000000000e-03	1.340088366e-01	-4.337832357e-04	7.892669832e-12
-7.100000000e-03	1.340088428e-01	-4.324237621e-04	2.402352651e-11
-7.200000000e-03	1.340088490e-01	-4.310642881e-04	1.203734055e-11
-7.300000000e-03	1.340088551e-01	-4.297048137e-04	2.187645623e-11
-7.400000000e-03	1.340088612e-01	-4.283453390e-04	1.136660362e-11
-7.500000000e-03	1.340088672e-01	-4.269858638e-04	2.678981470e-11
-7.600000000e-03	1.340088732e-01	-4.256263883e-04	2.611682988e-11
-7.700000000e-03	1.340088791e-01	-4.242669124e-04	1.025299720e-11
-7.800000000e-03	1.340088850e-01	-4.229074362e-04	3.272175868e-11
-7.900000000e-03	1.340088909e-01	-4.215479595e-04	1.442639307e-11
-8.000000000e-03	1.340088967e-01	-4.201884825e-04	7.621954169e-12
-8.100000000e-03	1.340089025e-01	-4.188290051e-04	2.528136345e-11
-8.200000000e-03	1.340089082e-01	-4.174695274e-04	8.862170723e-12
-8.300000000e-03	1.340089139e-01	-4.161100493e-04	8.055676840e-12
-8.400000000e-03	1.340089196e-01	-4.147505708e-04	1.127225277e-10
-8.500000000e-03	1.340089252e-01	-4.133910920e-04	9.735773893e-12
-8.600000000e-03	1.340089308e-01	-4.120316128e-04	1.404678515e-11
-8.700000000e-03	1.340089363e-01	-4.106721333e-04	1.304313047e-11
-8.800000000e-03	1.340089418e-01	-4.093126534e-04	1.195596035e-11
-8.900000000e-03	1.340089472e-01	-4.079531731e-04	1.957256628e-11
-9.000000000e-03	1.340089526e-01	-4.065936925e-04	8.620679739e-12
-9.100000000e-03	1.340089580e-01	-4.052342116e-04	8.883798462e-12
-9.200000000e-03	1.340089633e-01	-4.038747303e-04	1.796340031e-11
-9.300000000e-03	1.340089686e-01	-4.025152486e-04	1.201711871e-11
-9.400000000e-03	1.340089739e-01	-4.011557667e-04	2.084765349e-11
-9.500000000e-03	1.340089791e-01	-3.997962844e-04	2.648531453e-10
-9.600000000e-03	1.340089842e-01	-3.984368017e-04	1.339172922e-11
-9.700000000e-03	1.340089893e-01	-3.970773187e-04	5.558783545e-12
-9.800000000e-03	1.340089944e-01	-3.957178354e-04	1.041974015e-11
-9.900000000e-03	1.340089995e-01	-3.943583517e-04	5.655562637e-12
-1.000000000e-02	1.340090045e-01	-3.929988678e-04	9.509668737e-12
-1.010000000e-02	1.340090094e-01	-3.916393835e-04	9.791065565e-12
-1.020000000e-02	1.340090143e-01	-3.902798988e-04	1.114750591e-11
-1.030000000e-02	1.340090192e-01	-3.889204139e-04	1.515202032e-11
-1.040000000e-02	1.340090240e-01	-3.875609286e-04	1.248476211e-11
-1.050000000e-02	1.340090288e-01	-3.862014430e-04	1.546002561e-11
-1.060000000e-02	1.340090336e-01	-3.848419571e-04	5.041684864e-12
-1.070000000e-02	1.340090383e-01	-3.834824709e-04	1.526828988e-11
-1.080000000e-02	1.340090429e-01	-3.821229843e-04	1.009721364e-11
-1.090000000e-02	1.340090476e-01	-3.807634975e-04	6.198492763e-12
-1.100000000e-02	1.340090521e-01	-3.794040103e-04	2.225746059e-11
-1.110000000e-02	1.340090567e-01	-3.780445229e-04	9.299456639e-12
-1.120000000e-02	1.340090612e-01	-3.766850351e-04	3.040941443e-11
-1.130000000e-02	1.340090657e-01	-3.753255471e-04	9.928228976e-12
-1.140000000e-02	1.340090701e-01	-3.739660587e-04	2.107705598e-11
-1.150000000e-02	1.340090744e-01	-3.726065700e-04	2.237094895e-11
-1.160000000e-02	1.340090788e-01	-3.712470811e-04	2.515012470e-11
-1.170000000e-02	1.340090831e-01	-3.698875918e-04	1.178434410e-11
-1.180000000e-02	1.340090873e-01	-3.685281023e-04	1.306905378e-11
-1.190000000e-02	1.340090915e-01	-3.671686125e-04	1.369885472e-11
-1.200000000e-02	1.340090957e-01	-3.658091223e-04	1.882533237e-11
-1.210000000e-02	1.340090998e-01	-3.644496319e-04	1.484825897e-11
-1.220000000e-02	1.340091039e-01	-3.630901412e-04	1.396058783e-11
-1.230000000e-02	1.340091080e-01	-3.617306503e-04	6.681969400e-11
-1.240000000e-02	1.340091120e-01	-3.603711590e-04	8.591696075e-11
-1.250000000e-02	1.340091159e-01	-3.590116675e-04	9.614860320e-12
-1.260000000e-02	1.340091199e-01	-3.576521757e-04	1.387650078e-11
-1.270000000e-02	1.340091238e-01	-3.562926836e-04	6.029278421e-12
-1.280000000e-02	1.340091276e-01	-3.549331913e-04	5.930980513e-12
-1.290000000e-02	1.340091314e-01	-3.535736987e-04	3.043506451e-11
-1.300000000e-02	1.340091351e-01	-3.522142058e-04	2.788426453e-11
-1.310000000e-02	1.340091389e-01	-3.508547127e-04	1.686200897e-11
-1.320000000e-02	1.340091425e-01	-3.494952193e-04	4.221857165e-11
-1.330000000e-02	1.340091462e-01	-3.481357256e-04	1.123279111e-11
-1.340000000e-02	1.340091498e-01	-3.467762317e-04	1.492886510e-11
-1.350000000e-02	1.340091533e-01	-3.454167375e-04	1.838539858e-11
-1.360000000e-02	1.340091568e-01	-3.440572431e-04	5.867035593e-11
-1.370000000e-02	1.340091603e-01	-3.426977484e-04	2.365225351e-11
-1.380000000e-02	1.340091637e-01	-3.413382535e-04	8.977168804e-12
-1.390000000e-02	1.340091671e-01	-3.399787583e-04	6.759460367e-12
-1.400000000e-02	1.340091705e-01	-3.386192629e-04	1.932544134e-11
-1.410000000e-02	1.340091738e-01	-3.372597672e-04	3.004719320e-11
-1.420000000e-02	1.340091770e-01	-3.359002713e-04	9.180905973e-12
-1.430000000e-02	1.340091803e-01	-3.345407752e-04	1.752552625e-11
-1.440000000e-02	1.340091834e-01	-3.331812788e-04	1.234814422e-11
-1.450000000e-02	1.340091866e-01	-3.318217822e-04	1.077598487e-11
-1.460000000e-02	1.340091897e-01	-3.304622853e-04	1.745105577e-11
-1.470000000e-02	1.340091927e-01	-3.291027882e-04	9.815101209e-12
-1.480000000e-02	1.340091957e-01	-3.277432909e-04	1.022003325e-11
-1.490000000e-02	1.340091987e-01	-3.263837934e-04	2.194403243e-11
-1.500000000e-02	1.340092016e-01	-3.250242956e-04	1.186999509e-11
-1.510000000e-02	1.340092045e-01	-3.236647976e-04	1.660050862e-11
-1.520000000e-02	1.340092074e-01	-3.223052994e-04	3.550808586e-11
-1.530000000e-02	1.340092102e-01	-3.209458010e-04	9.964678419e-12
-1.540000000e-02	1.340092130e-01	-3.195863024e-04	1.508510483e-11
-1.550000000e-02	1.340092157e-01	-3.182268035e-04	1.260164181e-11
-1.560000000e-02	1.340092184e-01	-3.168673044e-04	1.809553416e-11
-1.570000000e-02	1.340092210e-01	-3.155078051e-04	8.237759737e-12
-1.580000000e-02	1.340092236e-01	-3.141483057e-04	2.970354564e-11
-1.590000000e-02	1.340092262e-01	-3.127888060e-04	1.364959701e-11
-1.600000000e-02	1.340092287e-01	-3.114293061e-04	1.325429735e-11
-1.610000000e-02	1.340092312e-01	-3.100698060e-04	1.233964069e-11
-1.620000000e-02	1.340092336e-01	-3.087103057e-04	2.839756049e-11
-1.630000000e-02	1.340092360e-01	-3.073508052e-04	7.223517664e-12
-1.640000000e-02	1.340092384e-01	-3.059913045e-04	7.856962892e-12
-1.650000000e-02	1.340092407e-01	-3.046318036e-04	3.734546214e-11
-1.660000000e-02	1.340092430e-01	-3.032723025e-04	5.230479850e-11
-1.670000000e-02	1.340092452e-01	-3.019128013e-04	7.546740001e-12
-1.680000000e-02	1.340092474e-01	-3.005532998e-04	1.053307107e-11
-1.690000000e-02	1.340092495e-01	-2.991937982e-04	7.469274274e-11
-1.700000000e-02	1.340092516e-01	-2.978342964e-04	1.022149248e-11
-1.710000000e-02	1.340092537e-01	-2.964747944e-04	7.710423175e-12
-1.720000000e-02	1.340092557e-01	-2.951152922e-04	1.310087754e-11
-1.730000000e-02	1.340092577e-01	-2.937557898e-04	1.131916394e-11
-1.740000000e-02	1.340092597e-01	-2.923962873e-04	2.412157954e-11
-1.750000000e-02	1.340092616e-01	-2.910367846e-04	5.718958919e-11
-1.760000000e-02	1.340092634e-01	-2.896772817e-04	2.097422729e-11
-1.770000000e-02	1.340092653e-01	-2.883177787e-04	1.021391452e-11
-1.780000000e-02	1.340092670e-01	-2.869582755e-04	2.868841355e-11
-1.790000000e-02	1.340092688e-01	-2.855987721e-04	1.189148603e-11
-1.800000000e-02	1.340092705e-01	-2.842392685e-04	1.836885827e-11
-1.810000000e-02	1.340092721e-01	-2.828797648e-04	1.823869052e-11
-1.820000000e-02	1.340092737e-01	-2.815202610e-04	8.354901696e-12
-1.830000000e-02	1.340092753e-01	-2.801607570e-04	8.215476080e-11
-1.840000000e-02	1.340092768e-01	-2.788012528e-04	1.632134426e-11
-1.850000000e-02	1.340092783e-01	-2.774417485e-04	1.429784891e-11
-1.860000000e-02	1.340092798e-01	-2.760822440e-04	1.166831923e-11
-1.870000000e-02	1.340092812e-01	-2.747227394e-04	1.098113218e-11
-1.880000000e-02	1.340092825e-01	-2.733632347e-04	1.761188273e-11
-1.890000000e-02	1.340092839e-01	-2.720037298e-04	4.893502536e-12
-1.900000000e-02	1.340092851e-01	-2.706442247e-04	6.219155586e-12
-1.910000000e-02	1.340092864e-01	-2.692847195e-04	5.011802966e-12
-1.920000000e-02	1.340092876e-01	-2.679252142e-04	3.214765400e-11
-1.930000000e-02	1.340092887e-01	-2.665657088e-04	1.317796376e-11
-1.940000000e-02	1.340092899e-01	-2.652062032e-04	1.553638894e-11
-1.950000000e-02	1.340092909e-01	-2.638466974e-04	2.922325125e-11
-1.960000000e-02	1.340092920e-01	-2.624871916e-04	7.162104551e-12
-1.970000000e-02	1.340092930e-01	-2.611276856e-04	4.912238692e-11
-1.980000000e-02	1.340092939e-01	-2.597681795e-04	8.665418272e-12
-1.990000000e-02	1.340092948e-01	-2.584086733e-04	6.267825861e-10
-2.000000000e-02	1.340092957e-01	-2.570491670e-04	3.235321477e-11
-2.010000000e-02	1.340092965e-01	-2.556896605e-04	9.355140169e-12
-2.020000000e-02	1.340092973e-01	-2.543301539e-04	3.440029523e-11
-2.030000000e-02	1.340092981e-01	-2.529706472e-04	7.557730123e-12
-2.040000000e-02	1.340092988e-01	-2.516111404e-04	5.807389644e-11
-2.050000000e-02	1.340092994e-01	-2.502516335e-04	4.175208848e-11
-2.060000000e-02	1.340093001e-01	-2.488921265e-04	5.776572704e-12
-2.070000000e-02	1.340093006e-01	-2.475326193e-04	1.209594036e-11
-2.080000000e-02	1.340093012e-01	-2.461731121e-04	1.551120989e-11
-2.090000000e-02	1.340093017e-01	-2.448136048e-04	1.085055463e-11
-2.100000000e-02	1.340093021e-01	-2.434540973e-04	3.324591126e-11
-2.110000000e-02	1.340093026e-01	-2.420945898e-04	1.307740361e-11
-2.120000000e-02	1.340093029e-01	-2.407350822e-04	3.314737364e-11
-2.130000000e-02	1.340093033e-01	-2.393755745e-04	4.258903790e-11
-2.140000000e-02	1.340093036e-01	-2.380160666e-04	2.215677139e-11
-2.150000000e-02	1.340093038e-01	-2.366565587e-04	1.052931296e-11
-2.160000000e-02	1.340093040e-01	-2.352970507e-04	1.210115565e-11
-2.170000000e-02	1.340093042e-01	-2.339375427e-04	1.223243407e-11
-2.180000000e-02	1.340093043e-01	-2.325780345e-04	2.347637135e-11
-2.190000000e-02	1.340093044e-01	-2.312185263e-04	1.102467744e-11
-2.200000000e-02	1.340093045e-01	-2.298590180e-04	8.898827241e-12
-2.210000000e-02	1.340093045e-01	-2.284995096e-04	1.893013800e-11
-2.220000000e-02	1.340093044e-01	-2.271400011e-04	2.238241105e-11
-2.230000000e-02	1.340093043e-01	-2.257804925e-04	1.660643901e-11
-2.240000000e-02	1.340093042e-01	-2.244209839e-04	2.604428491e-11
-2.250000000e-02	1.340093041e-01	-2.230614752e-04	1.056062777e-11
-2.260000000e-02	1.340093039e-01	-2.217019665e-04	7.337452777e-12
-2.270000000e-02	1.340093036e-01	-2.203424577e-04	2.376928578e-11
-2.280000000e-02	1.340093033e-01	-2.189829488e-04	1.438678946e-11
-2.290000000e-02	1.340093030e-01	-2.176234399e-04	4.661992531e-11
-2.300000000e-02	1.340093026e-01	-2.162639309e-04	1.329831021e-11
-2.310000000e-02	1.340093022e-01	-2.149044218e-04	2.162277927e-11
-2.320000000e-02	1.340093018e-01	-2.135449127e-04	6.874084455e-12
-2.330000000e-02	1.340093013e-01	-2.121854036e-04	1.085397355e-11
-2.340000000e-02	1.340093008e-01	-2.108258944e-04	2.327953952e-11
-2.350000000e-02	1.340093002e-01	-2.094663851e-04	1.228169262e-11
-2.360000000e-02	1.340092996e-01	-2.081068758e-04	2.224459622e-11
-2.370000000e-02	1.340092989e-01	-2.067473665e-04	1.225292751e-11
-2.380000000e-02	1.340092982e-01	-2.053878571e-04	2.437647839e-11
-2.390000000e-02	1.340092975e-01	-2.040283477e-04	2.952627983e-11
-2.400000000e-02	1.340092967e-01	-2.026688382e-04	1.291312875e-11
-2.410000000e-02	1.340092959e-01	-2.013093287e-04	1.359823554e-11
-2.420000000e-02	1.340092950e-01	-1.999498192e-04	4.555742590e-11
-2.430000000e-02	1.340092941e-01	-1.985903096e-04	9.444814948e-12
-2.440000000e-02	1.340092932e-01	-1.972308000e-04	1.715748428e-11
-2.450000000e-02	1.340092922e-01	-1.958712904e-04	1.215807116e-11
-2.460000000e-02	1.340092912e-01	-1.945117808e-04	1.212250014e-11
-2.470000000e-02	1.340092901e-01	-1.931522711e-04	1.274637416e-11
-2.480000000e-02	1.340092890e-01	-1.917927614e-04	1.003567692e-11
-2.490000000e-02	1.340092878e-01	-1.904332517e-04	3.171189636e-11
-2.500000000e-02	1.340092866e-01	-1.890737420e-04	1.485728868e-11
-2.510000000e-02	1.340092854e-01	-1.877142323e-04	1.546310583e-11
-2.520000000e-02	1.340092841e-01	-1.863547225e-04	8.515395308e-12
-2.530000000e-02	1.340092828e-01	-1.849952128e-04	4.678684372e-11
-2.540000000e-02	1.340092815e-01	-1.836357030e-04	2.005112454e-11
-2.550000000e-02	1.340092801e-01	-1.822761932e-04	7.435342433e-12
-2.560000000e-02	1.340092786e-01	-1.809166834e-04	1.147091414e-11
-2.570000000e-02	1.340092771e-01	-1.795571737e-04	1.395865371e-11
-2.580000000e-02	1.340092756e-01	-1.781976639e-04	1.165699226e-11
-2.590000000e-02	1.340092740e-01	-1.768381541e-04	2.227259709e-11
-2.600000000e-02	1.340092724e-01	-1.754786443e-04	1.012349461e-11
-2.610000000e-02	1.340092708e-01	-1.741191346e-04	7.186529609e-12
-2.620000000e-02	1.340092691e-01	-1.727596248e-04	1.310172838e-11
-2.630000000e-02	1.340092674e-01	-1.714001151e-04	9.511932329e-12
-2.640000000e-02	1.340092656e-01	-1.700406053e-04	2.496894039e-11
-2.650000000e-02	1.340092638e-01	-1.686810956e-04	7.438027811e-12
-2.660000000e-02	1.340092619e-01	-1.673215859e-04	1.442534675e-11
-2.670000000e-02	1.340092601e-01	-1.659620762e-04	1.473244038e-11
-2.680000000e-02	1.340092581e-01	-1.646025666e-04	1.248480996e-11
-2.690000000e-02	1.340092561e-01	-1.632430569e-04	2.562654636e-11
-2.700000000e-02	1.340092541e-01	-1.618835473e-04	7.809533489e-12
-2.710000000e-02	1.340092521e-01	-1.605240377e-04	1.835170136e-11
-2.720000000e-02	1.340092500e-01	-1.591645282e-04	6.243404521e-12
-2.730000000e-02	1.340092478e-01	-1.578050187e-04	8.710366711e-12
-2.740000000e-02	1.340092456e-01	-1.564455092e-04	8.745988315e-12
-2.750000000e-02	1.340092434e-01	-1.550859997e-04	1.285278154e-11
-2.760000000e-02	1.340092412e-01	-1.537264903e-04	3.873737109e-11
-2.770000000e-02	1.340092389e-01	-1.523669809e-04	9.917112430e-12
-2.780000000e-02	1.340092365e-01	-1.510074716e-04	1.761836994e-11
-2.790000000e-02	1.340092341e-01	-1.496479623e-04	8.968160874e-12
-2.800000000e-02	1.340092317e-01	-1.482884530e-04	1.097655385e-11
-2.810000000e-02	1.340092292e-01	-1.469289438e-04	7.154576929e-12
-2.820000000e-02	1.340092267e-01	-1.455694347e-04	1.226793969e-11
-2.830000000e-02	1.340092241e-01	-1.442099256e-04	7.258443598e-12
-2.840000000e-02	1.340092216e-01	-1.428504165e-04	8.468522310e-12
-2.850000000e-02	1.340092189e-01	-1.414909076e-04	1.741434132e-11
-2.860000000e-02	1.340092162e-01	-1.401313986e-04	1.644622856e-11
-2.870000000e-02	1.340092135e-01	-1.387718898e-04	7.347770723e-12
-2.880000000e-02	1.340092108e-01	-1.374123810e-04	1.032255829e-11
-2.890000000e-02	1.340092080e-01	-1.360528722e-04	1.711805494e-11
-2.900000000e-02	1.340092051e-01	-1.346933635e-04	1.627643340e-11
-2.910000000e-02	1.340092022e-01	-1.333338549e-04	1.528051566e-11
-2.920000000e-02	1.340091993e-01	-1.319743464e-04	1.816686612e-11
-2.930000000e-02	1.340091963e-01	-1.306148379e-04	8.222153163e-12
-2.940000000e-02	1.340091933e-01	-1.292553296e-04	1.326696217e-11
-2.950000000e-02	1.340091903e-01	-1.278958213e-04	9.921798747e-12
-2.960000000e-02	1.340091872e-01	-1.265363130e-04	8.990036437e-12
-2.970000000e-02	1.340091841e-01	-1.251768049e-04	2.461791833e-11
-2.980000000e-02	1.340091809e-01	-1.238172968e-04	1.106800872e-11
-2.990000000e-02	1.340091777e-01	-1.224577888e-04	2.457635094e-11
-3.000000000e-02	1.340091744e-01	-1.210982809e-04	1.942201005e-11
