# Im(epsi1)     Re(omega/c)      Im(omega/c)      Eq(det).Opt det CON kz, R=0.5 \mum, mu_c=0.3, Re(epsi1)=3.90solve_det_conkz_vs_kz.py
0.000000000e+00	1.340117041e-01	-5.029985797e-04	6.158461159e-12
-1.000000000e-04	1.340117124e-01	-5.016384118e-04	1.035201810e-11
-2.000000000e-04	1.340117207e-01	-5.002782435e-04	8.332784884e-12
-3.000000000e-04	1.340117289e-01	-4.989180746e-04	7.755706887e-12
-4.000000000e-04	1.340117371e-01	-4.975579053e-04	9.323986826e-12
-5.000000000e-04	1.340117452e-01	-4.961977355e-04	2.228624422e-11
-6.000000000e-04	1.340117533e-01	-4.948375652e-04	8.426121233e-12
-7.000000000e-04	1.340117614e-01	-4.934773944e-04	2.835941749e-11
-8.000000000e-04	1.340117694e-01	-4.921172232e-04	8.725310255e-12
-9.000000000e-04	1.340117773e-01	-4.907570514e-04	8.276377088e-12
-1.000000000e-03	1.340117853e-01	-4.893968792e-04	9.514617939e-12
-1.100000000e-03	1.340117931e-01	-4.880367065e-04	5.774290755e-12
-1.200000000e-03	1.340118010e-01	-4.866765334e-04	1.308802413e-11
-1.300000000e-03	1.340118088e-01	-4.853163597e-04	1.016432284e-11
-1.400000000e-03	1.340118166e-01	-4.839561857e-04	4.191974506e-11
-1.500000000e-03	1.340118243e-01	-4.825960111e-04	1.056493493e-11
-1.600000000e-03	1.340118319e-01	-4.812358361e-04	1.278532212e-11
-1.700000000e-03	1.340118396e-01	-4.798756606e-04	1.872363638e-11
-1.800000000e-03	1.340118472e-01	-4.785154846e-04	3.497654181e-11
-1.900000000e-03	1.340118547e-01	-4.771553082e-04	8.406078037e-12
-2.000000000e-03	1.340118622e-01	-4.757951314e-04	1.887099759e-11
-2.100000000e-03	1.340118697e-01	-4.744349540e-04	3.029383053e-11
-2.200000000e-03	1.340118772e-01	-4.730747763e-04	1.205133273e-11
-2.300000000e-03	1.340118845e-01	-4.717145981e-04	5.775427573e-12
-2.400000000e-03	1.340118919e-01	-4.703544194e-04	1.806887279e-11
-2.500000000e-03	1.340118992e-01	-4.689942403e-04	1.240953922e-11
-2.600000000e-03	1.340119065e-01	-4.676340607e-04	1.035509580e-11
-2.700000000e-03	1.340119137e-01	-4.662738807e-04	9.448616347e-12
-2.800000000e-03	1.340119209e-01	-4.649137003e-04	1.422579808e-11
-2.900000000e-03	1.340119280e-01	-4.635535194e-04	1.309716692e-11
-3.000000000e-03	1.340119351e-01	-4.621933382e-04	7.800280092e-12
-3.100000000e-03	1.340119422e-01	-4.608331564e-04	8.348383405e-11
-3.200000000e-03	1.340119492e-01	-4.594729743e-04	1.263930176e-11
-3.300000000e-03	1.340119562e-01	-4.581127917e-04	1.319321381e-11
-3.400000000e-03	1.340119631e-01	-4.567526086e-04	2.335268143e-11
-3.500000000e-03	1.340119700e-01	-4.553924252e-04	1.989185625e-11
-3.600000000e-03	1.340119768e-01	-4.540322413e-04	2.668088497e-11
-3.700000000e-03	1.340119837e-01	-4.526720571e-04	1.256322337e-11
-3.800000000e-03	1.340119904e-01	-4.513118724e-04	9.574918333e-12
-3.900000000e-03	1.340119971e-01	-4.499516872e-04	3.828031651e-11
-4.000000000e-03	1.340120038e-01	-4.485915017e-04	2.723560152e-11
-4.100000000e-03	1.340120105e-01	-4.472313158e-04	6.614689076e-12
-4.200000000e-03	1.340120171e-01	-4.458711294e-04	3.567919907e-11
-4.300000000e-03	1.340120236e-01	-4.445109426e-04	2.568872865e-11
-4.400000000e-03	1.340120302e-01	-4.431507555e-04	1.295829386e-11
-4.500000000e-03	1.340120367e-01	-4.417905679e-04	4.141462318e-11
-4.600000000e-03	1.340120431e-01	-4.404303799e-04	1.324948461e-11
-4.700000000e-03	1.340120495e-01	-4.390701916e-04	7.673470137e-12
-4.800000000e-03	1.340120558e-01	-4.377100028e-04	1.930700723e-11
-4.900000000e-03	1.340120622e-01	-4.363498136e-04	7.051709061e-12
-5.000000000e-03	1.340120684e-01	-4.349896241e-04	1.461819448e-11
-5.100000000e-03	1.340120747e-01	-4.336294341e-04	1.954402994e-11
-5.200000000e-03	1.340120809e-01	-4.322692438e-04	1.508378991e-11
-5.300000000e-03	1.340120870e-01	-4.309090531e-04	3.022702159e-11
-5.400000000e-03	1.340120931e-01	-4.295488620e-04	2.320936886e-11
-5.500000000e-03	1.340120992e-01	-4.281886705e-04	7.528762336e-12
-5.600000000e-03	1.340121052e-01	-4.268284786e-04	1.133934856e-11
-5.700000000e-03	1.340121112e-01	-4.254682864e-04	2.373627018e-11
-5.800000000e-03	1.340121171e-01	-4.241080938e-04	1.070218652e-11
-5.900000000e-03	1.340121230e-01	-4.227479008e-04	2.519779634e-11
-6.000000000e-03	1.340121289e-01	-4.213877074e-04	5.962338995e-12
-6.100000000e-03	1.340121347e-01	-4.200275137e-04	1.004924193e-11
-6.200000000e-03	1.340121405e-01	-4.186673196e-04	7.342146823e-12
-6.300000000e-03	1.340121462e-01	-4.173071251e-04	6.420629802e-12
-6.400000000e-03	1.340121519e-01	-4.159469303e-04	6.339744903e-12
-6.500000000e-03	1.340121576e-01	-4.145867351e-04	1.163392825e-11
-6.600000000e-03	1.340121632e-01	-4.132265395e-04	1.140960540e-11
-6.700000000e-03	1.340121688e-01	-4.118663436e-04	1.749218203e-11
-6.800000000e-03	1.340121743e-01	-4.105061473e-04	1.159401302e-11
-6.900000000e-03	1.340121798e-01	-4.091459507e-04	7.583454962e-12
-7.000000000e-03	1.340121852e-01	-4.077857537e-04	7.451109896e-12
-7.100000000e-03	1.340121906e-01	-4.064255564e-04	1.666492627e-11
-7.200000000e-03	1.340121960e-01	-4.050653587e-04	5.251432790e-12
-7.300000000e-03	1.340122013e-01	-4.037051607e-04	4.049530923e-11
-7.400000000e-03	1.340122066e-01	-4.023449624e-04	9.879140775e-12
-7.500000000e-03	1.340122119e-01	-4.009847637e-04	1.119084640e-11
-7.600000000e-03	1.340122171e-01	-3.996245646e-04	7.650996798e-12
-7.700000000e-03	1.340122222e-01	-3.982643652e-04	2.578192741e-11
-7.800000000e-03	1.340122273e-01	-3.969041655e-04	6.910213642e-12
-7.900000000e-03	1.340122324e-01	-3.955439655e-04	9.054556365e-12
-8.000000000e-03	1.340122374e-01	-3.941837651e-04	6.172022504e-12
-8.100000000e-03	1.340122424e-01	-3.928235644e-04	6.581733896e-12
-8.200000000e-03	1.340122474e-01	-3.914633634e-04	1.878338881e-11
-8.300000000e-03	1.340122523e-01	-3.901031621e-04	5.455189807e-12
-8.400000000e-03	1.340122572e-01	-3.887429604e-04	1.227720884e-11
-8.500000000e-03	1.340122620e-01	-3.873827584e-04	1.145193634e-11
-8.600000000e-03	1.340122668e-01	-3.860225561e-04	5.201440852e-11
-8.700000000e-03	1.340122715e-01	-3.846623535e-04	7.623879206e-12
-8.800000000e-03	1.340122762e-01	-3.833021505e-04	1.109204334e-11
-8.900000000e-03	1.340122809e-01	-3.819419473e-04	2.827097703e-11
-9.000000000e-03	1.340122855e-01	-3.805817437e-04	2.312802382e-11
-9.100000000e-03	1.340122901e-01	-3.792215399e-04	1.076326577e-11
-9.200000000e-03	1.340122946e-01	-3.778613357e-04	3.457523695e-11
-9.300000000e-03	1.340122991e-01	-3.765011312e-04	1.580477595e-11
-9.400000000e-03	1.340123036e-01	-3.751409264e-04	7.921537689e-12
-9.500000000e-03	1.340123080e-01	-3.737807214e-04	8.331360443e-12
-9.600000000e-03	1.340123124e-01	-3.724205160e-04	1.138987551e-11
-9.700000000e-03	1.340123167e-01	-3.710603103e-04	8.158745879e-12
-9.800000000e-03	1.340123210e-01	-3.697001044e-04	1.840452161e-11
-9.900000000e-03	1.340123253e-01	-3.683398981e-04	1.149622428e-11
-1.000000000e-02	1.340123295e-01	-3.669796916e-04	3.731073085e-11
-1.010000000e-02	1.340123336e-01	-3.656194847e-04	1.324567678e-11
-1.020000000e-02	1.340123378e-01	-3.642592776e-04	6.761000449e-12
-1.030000000e-02	1.340123419e-01	-3.628990702e-04	1.663656987e-11
-1.040000000e-02	1.340123459e-01	-3.615388626e-04	1.707417901e-11
-1.050000000e-02	1.340123499e-01	-3.601786546e-04	8.305619399e-12
-1.060000000e-02	1.340123539e-01	-3.588184464e-04	2.371783216e-11
-1.070000000e-02	1.340123578e-01	-3.574582379e-04	1.337050639e-11
-1.080000000e-02	1.340123617e-01	-3.560980291e-04	1.323636275e-11
-1.090000000e-02	1.340123655e-01	-3.547378201e-04	1.176148586e-11
-1.100000000e-02	1.340123693e-01	-3.533776108e-04	2.033472110e-11
-1.110000000e-02	1.340123730e-01	-3.520174012e-04	4.426885443e-12
-1.120000000e-02	1.340123768e-01	-3.506571913e-04	1.293756026e-11
-1.130000000e-02	1.340123804e-01	-3.492969812e-04	1.430869052e-11
-1.140000000e-02	1.340123841e-01	-3.479367709e-04	1.161894577e-11
-1.150000000e-02	1.340123877e-01	-3.465765603e-04	3.715450410e-11
-1.160000000e-02	1.340123912e-01	-3.452163494e-04	2.665875346e-11
-1.170000000e-02	1.340123947e-01	-3.438561383e-04	9.557096625e-12
-1.180000000e-02	1.340123982e-01	-3.424959269e-04	1.215369886e-11
-1.190000000e-02	1.340124016e-01	-3.411357153e-04	8.850572809e-12
-1.200000000e-02	1.340124050e-01	-3.397755034e-04	1.652318713e-11
-1.210000000e-02	1.340124083e-01	-3.384152913e-04	1.345626135e-11
-1.220000000e-02	1.340124116e-01	-3.370550789e-04	1.179024634e-11
-1.230000000e-02	1.340124149e-01	-3.356948663e-04	8.847740578e-12
-1.240000000e-02	1.340124181e-01	-3.343346535e-04	1.444920985e-11
-1.250000000e-02	1.340124213e-01	-3.329744404e-04	1.199123765e-11
-1.260000000e-02	1.340124244e-01	-3.316142271e-04	1.691941002e-11
-1.270000000e-02	1.340124275e-01	-3.302540135e-04	3.266896534e-11
-1.280000000e-02	1.340124306e-01	-3.288937998e-04	1.231848059e-11
-1.290000000e-02	1.340124336e-01	-3.275335858e-04	1.019417067e-11
-1.300000000e-02	1.340124365e-01	-3.261733715e-04	6.462982395e-12
-1.310000000e-02	1.340124395e-01	-3.248131571e-04	1.893662384e-11
-1.320000000e-02	1.340124424e-01	-3.234529424e-04	9.164777258e-12
-1.330000000e-02	1.340124452e-01	-3.220927275e-04	2.539344517e-11
-1.340000000e-02	1.340124480e-01	-3.207325124e-04	8.077106544e-12
-1.350000000e-02	1.340124508e-01	-3.193722971e-04	1.434046242e-11
-1.360000000e-02	1.340124535e-01	-3.180120815e-04	1.188037894e-11
-1.370000000e-02	1.340124562e-01	-3.166518658e-04	1.615162919e-11
-1.380000000e-02	1.340124588e-01	-3.152916498e-04	6.686144950e-11
-1.390000000e-02	1.340124614e-01	-3.139314336e-04	2.493416329e-11
-1.400000000e-02	1.340124640e-01	-3.125712173e-04	1.352790216e-11
-1.410000000e-02	1.340124665e-01	-3.112110007e-04	6.898926369e-12
-1.420000000e-02	1.340124690e-01	-3.098507839e-04	1.411655991e-11
-1.430000000e-02	1.340124714e-01	-3.084905669e-04	4.455840918e-11
-1.440000000e-02	1.340124738e-01	-3.071303498e-04	1.330309746e-11
-1.450000000e-02	1.340124761e-01	-3.057701324e-04	1.313694853e-11
-1.460000000e-02	1.340124784e-01	-3.044099148e-04	1.124468331e-11
-1.470000000e-02	1.340124807e-01	-3.030496971e-04	3.446308727e-11
-1.480000000e-02	1.340124829e-01	-3.016894791e-04	8.999969390e-12
-1.490000000e-02	1.340124851e-01	-3.003292610e-04	8.376020420e-12
-1.500000000e-02	1.340124873e-01	-2.989690427e-04	2.161905726e-11
-1.510000000e-02	1.340124894e-01	-2.976088242e-04	2.549826000e-11
-1.520000000e-02	1.340124914e-01	-2.962486055e-04	1.200565849e-11
-1.530000000e-02	1.340124934e-01	-2.948883867e-04	1.235010702e-11
-1.540000000e-02	1.340124954e-01	-2.935281676e-04	1.477835302e-11
-1.550000000e-02	1.340124974e-01	-2.921679484e-04	1.465558677e-11
-1.560000000e-02	1.340124993e-01	-2.908077291e-04	1.420042232e-11
-1.570000000e-02	1.340125011e-01	-2.894475095e-04	1.023235601e-11
-1.580000000e-02	1.340125029e-01	-2.880872898e-04	1.197747541e-11
-1.590000000e-02	1.340125047e-01	-2.867270699e-04	8.460465793e-12
-1.600000000e-02	1.340125064e-01	-2.853668499e-04	1.403775397e-11
-1.610000000e-02	1.340125081e-01	-2.840066297e-04	1.346452071e-11
-1.620000000e-02	1.340125098e-01	-2.826464093e-04	7.759035973e-12
-1.630000000e-02	1.340125114e-01	-2.812861888e-04	1.269226457e-11
-1.640000000e-02	1.340125129e-01	-2.799259681e-04	5.593889008e-12
-1.650000000e-02	1.340125145e-01	-2.785657473e-04	1.329806789e-11
-1.660000000e-02	1.340125159e-01	-2.772055263e-04	1.254161758e-11
-1.670000000e-02	1.340125174e-01	-2.758453052e-04	7.453642267e-12
-1.680000000e-02	1.340125188e-01	-2.744850839e-04	1.766797928e-11
-1.690000000e-02	1.340125201e-01	-2.731248625e-04	7.905929134e-12
-1.700000000e-02	1.340125215e-01	-2.717646409e-04	1.812081354e-11
-1.710000000e-02	1.340125227e-01	-2.704044192e-04	1.235519357e-11
-1.720000000e-02	1.340125240e-01	-2.690441974e-04	9.452814369e-12
-1.730000000e-02	1.340125252e-01	-2.676839754e-04	1.134203170e-11
-1.740000000e-02	1.340125263e-01	-2.663237533e-04	1.890201408e-11
-1.750000000e-02	1.340125274e-01	-2.649635311e-04	4.387201854e-11
-1.760000000e-02	1.340125285e-01	-2.636033087e-04	5.828195307e-12
-1.770000000e-02	1.340125295e-01	-2.622430862e-04	1.496200776e-11
-1.780000000e-02	1.340125305e-01	-2.608828635e-04	3.049220640e-11
-1.790000000e-02	1.340125315e-01	-2.595226408e-04	3.595720476e-11
-1.800000000e-02	1.340125324e-01	-2.581624179e-04	9.693875392e-12
-1.810000000e-02	1.340125332e-01	-2.568021949e-04	9.303662593e-12
-1.820000000e-02	1.340125341e-01	-2.554419718e-04	8.332624886e-12
-1.830000000e-02	1.340125348e-01	-2.540817486e-04	8.797455474e-12
-1.840000000e-02	1.340125356e-01	-2.527215253e-04	8.632980993e-12
-1.850000000e-02	1.340125363e-01	-2.513613018e-04	2.076118025e-11
-1.860000000e-02	1.340125369e-01	-2.500010782e-04	1.103388779e-11
-1.870000000e-02	1.340125375e-01	-2.486408546e-04	1.186738051e-11
-1.880000000e-02	1.340125381e-01	-2.472806308e-04	2.237926203e-11
-1.890000000e-02	1.340125387e-01	-2.459204069e-04	5.809078544e-12
-1.900000000e-02	1.340125391e-01	-2.445601829e-04	9.369175407e-12
-1.910000000e-02	1.340125396e-01	-2.431999589e-04	6.672685385e-12
-1.920000000e-02	1.340125400e-01	-2.418397347e-04	1.710663278e-10
-1.930000000e-02	1.340125404e-01	-2.404795104e-04	1.519869099e-11
-1.940000000e-02	1.340125407e-01	-2.391192861e-04	6.070039293e-12
-1.950000000e-02	1.340125410e-01	-2.377590616e-04	2.429321407e-11
-1.960000000e-02	1.340125412e-01	-2.363988371e-04	8.899104982e-12
-1.970000000e-02	1.340125414e-01	-2.350386124e-04	1.241151462e-11
-1.980000000e-02	1.340125416e-01	-2.336783877e-04	2.918664974e-11
-1.990000000e-02	1.340125417e-01	-2.323181629e-04	8.224490290e-12
-2.000000000e-02	1.340125418e-01	-2.309579381e-04	8.840277719e-12
-2.010000000e-02	1.340125418e-01	-2.295977131e-04	1.373785336e-11
-2.020000000e-02	1.340125418e-01	-2.282374881e-04	2.817266749e-11
-2.030000000e-02	1.340125418e-01	-2.268772630e-04	1.402691260e-11
-2.040000000e-02	1.340125417e-01	-2.255170378e-04	9.856157122e-12
-2.050000000e-02	1.340125416e-01	-2.241568126e-04	1.397707982e-11
-2.060000000e-02	1.340125414e-01	-2.227965873e-04	1.788518787e-11
-2.070000000e-02	1.340125412e-01	-2.214363619e-04	8.743638777e-12
-2.080000000e-02	1.340125409e-01	-2.200761364e-04	6.388599262e-11
-2.090000000e-02	1.340125406e-01	-2.187159109e-04	7.572357797e-12
-2.100000000e-02	1.340125403e-01	-2.173556854e-04	1.472569544e-11
-2.110000000e-02	1.340125399e-01	-2.159954598e-04	7.826804082e-12
-2.120000000e-02	1.340125395e-01	-2.146352341e-04	1.297368003e-10
-2.130000000e-02	1.340125391e-01	-2.132750084e-04	1.428277602e-11
-2.140000000e-02	1.340125386e-01	-2.119147826e-04	1.245158288e-11
-2.150000000e-02	1.340125380e-01	-2.105545568e-04	3.445330775e-11
-2.160000000e-02	1.340125374e-01	-2.091943309e-04	9.635836653e-12
-2.170000000e-02	1.340125368e-01	-2.078341050e-04	9.256542374e-12
-2.180000000e-02	1.340125361e-01	-2.064738790e-04	4.989816757e-11
-2.190000000e-02	1.340125354e-01	-2.051136530e-04	9.450405600e-12
-2.200000000e-02	1.340125347e-01	-2.037534270e-04	2.264725187e-11
-2.210000000e-02	1.340125339e-01	-2.023932009e-04	3.735597422e-11
-2.220000000e-02	1.340125331e-01	-2.010329748e-04	1.797520901e-11
-2.230000000e-02	1.340125322e-01	-1.996727487e-04	1.663481753e-11
-2.240000000e-02	1.340125313e-01	-1.983125225e-04	1.123632991e-11
-2.250000000e-02	1.340125303e-01	-1.969522963e-04	1.857587588e-11
-2.260000000e-02	1.340125293e-01	-1.955920701e-04	1.263958519e-11
-2.270000000e-02	1.340125283e-01	-1.942318438e-04	2.497063595e-11
-2.280000000e-02	1.340125272e-01	-1.928716175e-04	1.104809477e-11
-2.290000000e-02	1.340125261e-01	-1.915113913e-04	7.851480540e-12
-2.300000000e-02	1.340125249e-01	-1.901511649e-04	1.817180519e-11
-2.310000000e-02	1.340125237e-01	-1.887909386e-04	5.878977949e-12
-2.320000000e-02	1.340125225e-01	-1.874307123e-04	7.671530792e-12
-2.330000000e-02	1.340125212e-01	-1.860704859e-04	5.073929807e-11
-2.340000000e-02	1.340125199e-01	-1.847102596e-04	1.634110334e-11
-2.350000000e-02	1.340125185e-01	-1.833500332e-04	2.005025609e-11
-2.360000000e-02	1.340125171e-01	-1.819898069e-04	3.901806646e-11
-2.370000000e-02	1.340125157e-01	-1.806295805e-04	1.095303439e-11
-2.380000000e-02	1.340125142e-01	-1.792693541e-04	1.926140365e-11
-2.390000000e-02	1.340125126e-01	-1.779091277e-04	1.617304670e-11
-2.400000000e-02	1.340125111e-01	-1.765489014e-04	1.125390497e-11
-2.410000000e-02	1.340125095e-01	-1.751886750e-04	8.726964781e-12
-2.420000000e-02	1.340125078e-01	-1.738284486e-04	1.234884727e-11
-2.430000000e-02	1.340125061e-01	-1.724682223e-04	3.084827301e-11
-2.440000000e-02	1.340125044e-01	-1.711079960e-04	1.266543188e-11
-2.450000000e-02	1.340125026e-01	-1.697477696e-04	8.190543583e-12
-2.460000000e-02	1.340125008e-01	-1.683875433e-04	8.917108679e-12
-2.470000000e-02	1.340124989e-01	-1.670273171e-04	6.337558782e-11
-2.480000000e-02	1.340124970e-01	-1.656670908e-04	1.232753732e-11
-2.490000000e-02	1.340124950e-01	-1.643068645e-04	8.548757066e-12
-2.500000000e-02	1.340124931e-01	-1.629466383e-04	8.010032674e-12
-2.510000000e-02	1.340124910e-01	-1.615864121e-04	9.745233468e-12
-2.520000000e-02	1.340124890e-01	-1.602261859e-04	1.261751747e-11
-2.530000000e-02	1.340124869e-01	-1.588659598e-04	5.447097065e-12
-2.540000000e-02	1.340124847e-01	-1.575057337e-04	6.705882023e-12
-2.550000000e-02	1.340124825e-01	-1.561455076e-04	2.226434998e-11
-2.560000000e-02	1.340124803e-01	-1.547852816e-04	1.488465839e-11
-2.570000000e-02	1.340124780e-01	-1.534250556e-04	1.212967942e-11
-2.580000000e-02	1.340124757e-01	-1.520648297e-04	1.833951364e-11
-2.590000000e-02	1.340124733e-01	-1.507046037e-04	1.306608012e-11
-2.600000000e-02	1.340124709e-01	-1.493443779e-04	9.313669667e-12
-2.610000000e-02	1.340124685e-01	-1.479841521e-04	9.160733201e-12
-2.620000000e-02	1.340124660e-01	-1.466239263e-04	1.313991326e-11
-2.630000000e-02	1.340124635e-01	-1.452637006e-04	1.617047015e-11
-2.640000000e-02	1.340124609e-01	-1.439034749e-04	2.243924379e-11
-2.650000000e-02	1.340124583e-01	-1.425432493e-04	2.907004473e-11
-2.660000000e-02	1.340124557e-01	-1.411830237e-04	1.270781697e-11
-2.670000000e-02	1.340124530e-01	-1.398227983e-04	1.641713431e-11
-2.680000000e-02	1.340124502e-01	-1.384625728e-04	4.560403929e-11
-2.690000000e-02	1.340124475e-01	-1.371023475e-04	1.173090781e-11
-2.700000000e-02	1.340124447e-01	-1.357421221e-04	1.372220968e-11
-2.710000000e-02	1.340124418e-01	-1.343818969e-04	1.228962891e-11
-2.720000000e-02	1.340124389e-01	-1.330216717e-04	4.818520807e-11
-2.730000000e-02	1.340124360e-01	-1.316614467e-04	8.861981391e-12
-2.740000000e-02	1.340124330e-01	-1.303012216e-04	1.089313398e-11
-2.750000000e-02	1.340124300e-01	-1.289409967e-04	1.815886973e-11
-2.760000000e-02	1.340124269e-01	-1.275807718e-04	2.216518322e-11
-2.770000000e-02	1.340124238e-01	-1.262205471e-04	6.627716972e-12
-2.780000000e-02	1.340124207e-01	-1.248603224e-04	2.333398337e-11
-2.790000000e-02	1.340124175e-01	-1.235000977e-04	1.502257206e-11
-2.800000000e-02	1.340124143e-01	-1.221398732e-04	3.947533138e-11
-2.810000000e-02	1.340124110e-01	-1.207796488e-04	9.054129935e-12
-2.820000000e-02	1.340124077e-01	-1.194194244e-04	8.609071575e-12
-2.830000000e-02	1.340124043e-01	-1.180592002e-04	1.286902722e-11
-2.840000000e-02	1.340124009e-01	-1.166989760e-04	1.305583571e-11
-2.850000000e-02	1.340123975e-01	-1.153387519e-04	4.072070372e-11
-2.860000000e-02	1.340123940e-01	-1.139785280e-04	8.469121679e-12
-2.870000000e-02	1.340123905e-01	-1.126183041e-04	1.242012797e-11
-2.880000000e-02	1.340123870e-01	-1.112580804e-04	2.031270140e-11
-2.890000000e-02	1.340123834e-01	-1.098978567e-04	1.239022030e-11
-2.900000000e-02	1.340123797e-01	-1.085376332e-04	1.229234189e-11
-2.910000000e-02	1.340123760e-01	-1.071774097e-04	3.389380280e-11
-2.920000000e-02	1.340123723e-01	-1.058171864e-04	1.877155268e-11
-2.930000000e-02	1.340123686e-01	-1.044569632e-04	1.949084670e-11
-2.940000000e-02	1.340123648e-01	-1.030967401e-04	1.209146016e-11
-2.950000000e-02	1.340123609e-01	-1.017365171e-04	7.037047218e-12
-2.960000000e-02	1.340123570e-01	-1.003762942e-04	1.497932658e-11
-2.970000000e-02	1.340123531e-01	-9.901607150e-05	6.676552554e-12
-2.980000000e-02	1.340123491e-01	-9.765584889e-05	6.382942573e-12
-2.990000000e-02	1.340123451e-01	-9.629562641e-05	1.438511747e-11
-3.000000000e-02	1.340123411e-01	-9.493540405e-05	1.035771741e-11
