# Im(epsi1)     Re(omega/c)      Im(omega/c)      Eq(det).Opt det CON kz, R=0.5 \mum, mu_c=0.3, Re(epsi1)=3.90solve_det_conkz_vs_kz.py
0.000000000e+00	1.340121801e-01	-5.105145214e-04	1.215392738e-11
-1.000000000e-04	1.340121886e-01	-5.091545798e-04	2.032088423e-11
-2.000000000e-04	1.340121971e-01	-5.077946377e-04	5.070368789e-11
-3.000000000e-04	1.340122056e-01	-5.064346951e-04	8.887424561e-12
-4.000000000e-04	1.340122140e-01	-5.050747520e-04	9.240105169e-12
-5.000000000e-04	1.340122223e-01	-5.037148084e-04	1.388673515e-11
-6.000000000e-04	1.340122306e-01	-5.023548643e-04	1.439569548e-11
-7.000000000e-04	1.340122389e-01	-5.009949198e-04	9.246091340e-12
-8.000000000e-04	1.340122472e-01	-4.996349747e-04	2.654046650e-11
-9.000000000e-04	1.340122554e-01	-4.982750291e-04	8.654641175e-12
-1.000000000e-03	1.340122635e-01	-4.969150831e-04	1.458331354e-11
-1.100000000e-03	1.340122716e-01	-4.955551365e-04	2.090912976e-11
-1.200000000e-03	1.340122797e-01	-4.941951895e-04	1.237747501e-11
-1.300000000e-03	1.340122877e-01	-4.928352420e-04	7.733303469e-12
-1.400000000e-03	1.340122957e-01	-4.914752940e-04	1.953976466e-11
-1.500000000e-03	1.340123037e-01	-4.901153455e-04	1.046377558e-11
-1.600000000e-03	1.340123116e-01	-4.887553966e-04	2.929716368e-11
-1.700000000e-03	1.340123194e-01	-4.873954472e-04	3.157143825e-11
-1.800000000e-03	1.340123273e-01	-4.860354973e-04	1.261766213e-11
-1.900000000e-03	1.340123350e-01	-4.846755469e-04	6.745208006e-12
-2.000000000e-03	1.340123428e-01	-4.833155961e-04	1.666664357e-11
-2.100000000e-03	1.340123505e-01	-4.819556448e-04	5.528707783e-12
-2.200000000e-03	1.340123581e-01	-4.805956931e-04	1.508665963e-11
-2.300000000e-03	1.340123658e-01	-4.792357409e-04	3.623226644e-11
-2.400000000e-03	1.340123733e-01	-4.778757882e-04	1.333379333e-11
-2.500000000e-03	1.340123809e-01	-4.765158351e-04	1.129779154e-11
-2.600000000e-03	1.340123884e-01	-4.751558815e-04	6.605227254e-12
-2.700000000e-03	1.340123958e-01	-4.737959275e-04	1.337028757e-11
-2.800000000e-03	1.340124032e-01	-4.724359730e-04	1.918382304e-11
-2.900000000e-03	1.340124106e-01	-4.710760181e-04	2.081053331e-11
-3.000000000e-03	1.340124179e-01	-4.697160627e-04	1.080608796e-11
-3.100000000e-03	1.340124252e-01	-4.683561069e-04	8.637409172e-12
-3.200000000e-03	1.340124325e-01	-4.669961506e-04	1.019137162e-11
-3.300000000e-03	1.340124397e-01	-4.656361939e-04	8.472177780e-12
-3.400000000e-03	1.340124468e-01	-4.642762368e-04	1.536279179e-11
-3.500000000e-03	1.340124540e-01	-4.629162792e-04	1.136001985e-11
-3.600000000e-03	1.340124610e-01	-4.615563212e-04	1.037210098e-11
-3.700000000e-03	1.340124681e-01	-4.601963627e-04	7.543154834e-12
-3.800000000e-03	1.340124751e-01	-4.588364039e-04	3.508536148e-11
-3.900000000e-03	1.340124820e-01	-4.574764446e-04	2.419676947e-11
-4.000000000e-03	1.340124889e-01	-4.561164848e-04	8.693088140e-12
-4.100000000e-03	1.340124958e-01	-4.547565247e-04	9.704979036e-12
-4.200000000e-03	1.340125027e-01	-4.533965641e-04	8.915719009e-12
-4.300000000e-03	1.340125094e-01	-4.520366031e-04	9.740868762e-11
-4.400000000e-03	1.340125162e-01	-4.506766417e-04	5.835274015e-12
-4.500000000e-03	1.340125229e-01	-4.493166799e-04	7.680881464e-12
-4.600000000e-03	1.340125296e-01	-4.479567177e-04	3.093078925e-11
-4.700000000e-03	1.340125362e-01	-4.465967551e-04	9.827048451e-12
-4.800000000e-03	1.340125428e-01	-4.452367920e-04	6.871577256e-12
-4.900000000e-03	1.340125493e-01	-4.438768286e-04	5.872883666e-11
-5.000000000e-03	1.340125558e-01	-4.425168647e-04	2.952211742e-11
-5.100000000e-03	1.340125623e-01	-4.411569004e-04	7.980177463e-12
-5.200000000e-03	1.340125687e-01	-4.397969358e-04	1.023739775e-11
-5.300000000e-03	1.340125751e-01	-4.384369707e-04	7.620908238e-11
-5.400000000e-03	1.340125814e-01	-4.370770052e-04	6.917393323e-12
-5.500000000e-03	1.340125877e-01	-4.357170394e-04	1.353991965e-11
-5.600000000e-03	1.340125940e-01	-4.343570731e-04	1.101433826e-11
-5.700000000e-03	1.340126002e-01	-4.329971065e-04	2.556089938e-11
-5.800000000e-03	1.340126064e-01	-4.316371395e-04	1.142088012e-11
-5.900000000e-03	1.340126125e-01	-4.302771721e-04	2.851668062e-11
-6.000000000e-03	1.340126186e-01	-4.289172043e-04	1.245654906e-11
-6.100000000e-03	1.340126246e-01	-4.275572361e-04	1.893364376e-11
-6.200000000e-03	1.340126306e-01	-4.261972676e-04	2.264274109e-11
-6.300000000e-03	1.340126366e-01	-4.248372986e-04	7.068627733e-12
-6.400000000e-03	1.340126425e-01	-4.234773293e-04	3.239927042e-11
-6.500000000e-03	1.340126484e-01	-4.221173597e-04	2.538201882e-11
-6.600000000e-03	1.340126543e-01	-4.207573896e-04	3.317501823e-11
-6.700000000e-03	1.340126601e-01	-4.193974192e-04	2.666976081e-11
-6.800000000e-03	1.340126658e-01	-4.180374484e-04	2.789484923e-11
-6.900000000e-03	1.340126715e-01	-4.166774773e-04	7.522187177e-12
-7.000000000e-03	1.340126772e-01	-4.153175057e-04	3.122505209e-11
-7.100000000e-03	1.340126829e-01	-4.139575339e-04	1.383268508e-11
-7.200000000e-03	1.340126884e-01	-4.125975616e-04	6.006492897e-12
-7.300000000e-03	1.340126940e-01	-4.112375890e-04	2.203997446e-11
-7.400000000e-03	1.340126995e-01	-4.098776161e-04	1.309101647e-11
-7.500000000e-03	1.340127050e-01	-4.085176428e-04	1.525393624e-11
-7.600000000e-03	1.340127104e-01	-4.071576692e-04	8.818070279e-12
-7.700000000e-03	1.340127158e-01	-4.057976952e-04	8.769316438e-12
-7.800000000e-03	1.340127211e-01	-4.044377208e-04	1.141812880e-11
-7.900000000e-03	1.340127265e-01	-4.030777461e-04	8.886557235e-12
-8.000000000e-03	1.340127317e-01	-4.017177711e-04	1.070776865e-11
-8.100000000e-03	1.340127369e-01	-4.003577957e-04	3.866237161e-11
-8.200000000e-03	1.340127421e-01	-3.989978201e-04	1.487462593e-11
-8.300000000e-03	1.340127473e-01	-3.976378440e-04	3.911814384e-11
-8.400000000e-03	1.340127524e-01	-3.962778676e-04	1.840539485e-11
-8.500000000e-03	1.340127574e-01	-3.949178909e-04	8.963165472e-12
-8.600000000e-03	1.340127624e-01	-3.935579139e-04	3.205484066e-11
-8.700000000e-03	1.340127674e-01	-3.921979365e-04	1.142444598e-11
-8.800000000e-03	1.340127723e-01	-3.908379589e-04	1.076865655e-11
-8.900000000e-03	1.340127772e-01	-3.894779808e-04	6.262364702e-12
-9.000000000e-03	1.340127821e-01	-3.881180025e-04	1.555233265e-11
-9.100000000e-03	1.340127869e-01	-3.867580239e-04	2.300556682e-11
-9.200000000e-03	1.340127917e-01	-3.853980449e-04	2.283700899e-11
-9.300000000e-03	1.340127964e-01	-3.840380656e-04	1.146135174e-11
-9.400000000e-03	1.340128011e-01	-3.826780860e-04	1.045020487e-11
-9.500000000e-03	1.340128057e-01	-3.813181061e-04	1.543253825e-11
-9.600000000e-03	1.340128103e-01	-3.799581259e-04	5.748787065e-12
-9.700000000e-03	1.340128149e-01	-3.785981454e-04	8.034695966e-12
-9.800000000e-03	1.340128194e-01	-3.772381646e-04	1.049599994e-11
-9.900000000e-03	1.340128239e-01	-3.758781834e-04	1.184599813e-11
-1.000000000e-02	1.340128283e-01	-3.745182020e-04	3.374448036e-11
-1.010000000e-02	1.340128327e-01	-3.731582203e-04	4.754115301e-12
-1.020000000e-02	1.340128371e-01	-3.717982383e-04	1.040811197e-11
-1.030000000e-02	1.340128414e-01	-3.704382559e-04	1.887594523e-11
-1.040000000e-02	1.340128457e-01	-3.690782733e-04	8.127678346e-12
-1.050000000e-02	1.340128499e-01	-3.677182904e-04	7.893952665e-12
-1.060000000e-02	1.340128541e-01	-3.663583072e-04	1.580022821e-11
-1.070000000e-02	1.340128582e-01	-3.649983238e-04	7.145024442e-12
-1.080000000e-02	1.340128624e-01	-3.636383400e-04	2.306918923e-11
-1.090000000e-02	1.340128664e-01	-3.622783560e-04	4.593945085e-11
-1.100000000e-02	1.340128704e-01	-3.609183717e-04	7.297809904e-12
-1.110000000e-02	1.340128744e-01	-3.595583871e-04	7.237459763e-12
-1.120000000e-02	1.340128784e-01	-3.581984022e-04	1.061548586e-11
-1.130000000e-02	1.340128823e-01	-3.568384171e-04	1.768033154e-11
-1.140000000e-02	1.340128861e-01	-3.554784317e-04	2.030731477e-11
-1.150000000e-02	1.340128900e-01	-3.541184460e-04	7.540254057e-12
-1.160000000e-02	1.340128937e-01	-3.527584600e-04	9.153634137e-12
-1.170000000e-02	1.340128975e-01	-3.513984738e-04	1.283764531e-11
-1.180000000e-02	1.340129012e-01	-3.500384873e-04	1.205810662e-11
-1.190000000e-02	1.340129048e-01	-3.486785006e-04	1.869163861e-11
-1.200000000e-02	1.340129084e-01	-3.473185136e-04	1.051827343e-11
-1.210000000e-02	1.340129120e-01	-3.459585263e-04	6.400595002e-11
-1.220000000e-02	1.340129155e-01	-3.445985388e-04	2.643551723e-11
-1.230000000e-02	1.340129190e-01	-3.432385511e-04	2.452834519e-11
-1.240000000e-02	1.340129225e-01	-3.418785631e-04	5.921730240e-12
-1.250000000e-02	1.340129259e-01	-3.405185748e-04	4.089632709e-11
-1.260000000e-02	1.340129292e-01	-3.391585863e-04	1.796220970e-11
-1.270000000e-02	1.340129326e-01	-3.377985976e-04	1.801654033e-11
-1.280000000e-02	1.340129358e-01	-3.364386086e-04	2.750693368e-11
-1.290000000e-02	1.340129391e-01	-3.350786194e-04	3.036879232e-11
-1.300000000e-02	1.340129423e-01	-3.337186299e-04	1.457542978e-11
-1.310000000e-02	1.340129454e-01	-3.323586402e-04	1.664052699e-11
-1.320000000e-02	1.340129486e-01	-3.309986502e-04	1.161272853e-10
-1.330000000e-02	1.340129516e-01	-3.296386601e-04	1.409482741e-11
-1.340000000e-02	1.340129547e-01	-3.282786697e-04	8.706769183e-12
-1.350000000e-02	1.340129577e-01	-3.269186791e-04	1.843395328e-11
-1.360000000e-02	1.340129606e-01	-3.255586882e-04	1.538775739e-11
-1.370000000e-02	1.340129635e-01	-3.241986971e-04	6.199511952e-12
-1.380000000e-02	1.340129664e-01	-3.228387058e-04	4.083331657e-11
-1.390000000e-02	1.340129692e-01	-3.214787143e-04	1.222159744e-11
-1.400000000e-02	1.340129720e-01	-3.201187226e-04	6.145378859e-11
-1.410000000e-02	1.340129748e-01	-3.187587306e-04	4.497423159e-11
-1.420000000e-02	1.340129775e-01	-3.173987385e-04	1.348171853e-11
-1.430000000e-02	1.340129801e-01	-3.160387461e-04	4.383158032e-11
-1.440000000e-02	1.340129827e-01	-3.146787535e-04	1.772057108e-11
-1.450000000e-02	1.340129853e-01	-3.133187608e-04	2.307473400e-11
-1.460000000e-02	1.340129879e-01	-3.119587678e-04	1.242440278e-11
-1.470000000e-02	1.340129904e-01	-3.105987746e-04	1.915266735e-11
-1.480000000e-02	1.340129928e-01	-3.092387812e-04	2.786250654e-11
-1.490000000e-02	1.340129952e-01	-3.078787876e-04	1.716213259e-11
-1.500000000e-02	1.340129976e-01	-3.065187938e-04	1.963924616e-11
-1.510000000e-02	1.340129999e-01	-3.051587998e-04	1.852178493e-11
-1.520000000e-02	1.340130022e-01	-3.037988057e-04	7.499807866e-12
-1.530000000e-02	1.340130045e-01	-3.024388113e-04	1.692598207e-11
-1.540000000e-02	1.340130067e-01	-3.010788168e-04	8.126924627e-12
-1.550000000e-02	1.340130089e-01	-2.997188220e-04	8.938599488e-12
-1.560000000e-02	1.340130110e-01	-2.983588271e-04	1.462583863e-11
-1.570000000e-02	1.340130131e-01	-2.969988320e-04	2.066334060e-11
-1.580000000e-02	1.340130151e-01	-2.956388367e-04	1.023190990e-11
-1.590000000e-02	1.340130171e-01	-2.942788413e-04	8.636073529e-12
-1.600000000e-02	1.340130191e-01	-2.929188457e-04	6.452980445e-12
-1.610000000e-02	1.340130210e-01	-2.915588499e-04	2.770453457e-11
-1.620000000e-02	1.340130229e-01	-2.901988539e-04	1.212781659e-11
-1.630000000e-02	1.340130247e-01	-2.888388577e-04	7.936965272e-12
-1.640000000e-02	1.340130265e-01	-2.874788614e-04	2.749932565e-11
-1.650000000e-02	1.340130283e-01	-2.861188649e-04	1.315439041e-11
-1.660000000e-02	1.340130300e-01	-2.847588683e-04	1.129652328e-11
-1.670000000e-02	1.340130317e-01	-2.833988715e-04	6.484053978e-12
-1.680000000e-02	1.340130333e-01	-2.820388745e-04	1.395418722e-11
-1.690000000e-02	1.340130349e-01	-2.806788774e-04	1.829500468e-11
-1.700000000e-02	1.340130364e-01	-2.793188802e-04	2.116799203e-11
-1.710000000e-02	1.340130379e-01	-2.779588827e-04	8.402286719e-12
-1.720000000e-02	1.340130394e-01	-2.765988852e-04	1.431048273e-11
-1.730000000e-02	1.340130408e-01	-2.752388874e-04	5.795377440e-12
-1.740000000e-02	1.340130422e-01	-2.738788896e-04	8.263487756e-12
-1.750000000e-02	1.340130435e-01	-2.725188916e-04	1.311389149e-11
-1.760000000e-02	1.340130448e-01	-2.711588934e-04	1.252694930e-11
-1.770000000e-02	1.340130461e-01	-2.697988951e-04	2.666792997e-11
-1.780000000e-02	1.340130473e-01	-2.684388967e-04	1.092812859e-11
-1.790000000e-02	1.340130485e-01	-2.670788981e-04	5.188349981e-11
-1.800000000e-02	1.340130496e-01	-2.657188994e-04	7.964843410e-12
-1.810000000e-02	1.340130507e-01	-2.643589006e-04	7.810037303e-12
-1.820000000e-02	1.340130518e-01	-2.629989017e-04	1.176919304e-11
-1.830000000e-02	1.340130528e-01	-2.616389026e-04	1.588764796e-11
-1.840000000e-02	1.340130538e-01	-2.602789034e-04	1.576830766e-11
-1.850000000e-02	1.340130547e-01	-2.589189040e-04	1.281987309e-11
-1.860000000e-02	1.340130556e-01	-2.575589046e-04	1.008442669e-11
-1.870000000e-02	1.340130564e-01	-2.561989050e-04	1.323228201e-11
-1.880000000e-02	1.340130572e-01	-2.548389053e-04	1.863862260e-11
-1.890000000e-02	1.340130580e-01	-2.534789055e-04	2.581110023e-11
-1.900000000e-02	1.340130587e-01	-2.521189056e-04	1.591880023e-11
-1.910000000e-02	1.340130594e-01	-2.507589055e-04	2.210140422e-11
-1.920000000e-02	1.340130600e-01	-2.493989054e-04	3.812439896e-11
-1.930000000e-02	1.340130606e-01	-2.480389052e-04	5.825543375e-12
-1.940000000e-02	1.340130612e-01	-2.466789048e-04	2.448270871e-11
-1.950000000e-02	1.340130617e-01	-2.453189044e-04	1.344464717e-11
-1.960000000e-02	1.340130622e-01	-2.439589038e-04	1.927680134e-11
-1.970000000e-02	1.340130626e-01	-2.425989032e-04	1.303317841e-11
-1.980000000e-02	1.340130630e-01	-2.412389024e-04	1.062489479e-11
-1.990000000e-02	1.340130634e-01	-2.398789016e-04	1.017528882e-11
-2.000000000e-02	1.340130637e-01	-2.385189006e-04	1.478241054e-11
-2.010000000e-02	1.340130639e-01	-2.371588996e-04	1.772814627e-11
-2.020000000e-02	1.340130642e-01	-2.357988985e-04	7.982064605e-12
-2.030000000e-02	1.340130644e-01	-2.344388973e-04	1.375518638e-11
-2.040000000e-02	1.340130645e-01	-2.330788960e-04	1.161915940e-11
-2.050000000e-02	1.340130646e-01	-2.317188947e-04	5.345097509e-12
-2.060000000e-02	1.340130647e-01	-2.303588932e-04	3.580280004e-11
-2.070000000e-02	1.340130647e-01	-2.289988917e-04	1.487402669e-11
-2.080000000e-02	1.340130647e-01	-2.276388901e-04	3.737623262e-11
-2.090000000e-02	1.340130646e-01	-2.262788885e-04	1.122465933e-11
-2.100000000e-02	1.340130645e-01	-2.249188867e-04	2.924132217e-10
-2.110000000e-02	1.340130644e-01	-2.235588849e-04	2.659110949e-11
-2.120000000e-02	1.340130642e-01	-2.221988830e-04	1.211467774e-11
-2.130000000e-02	1.340130639e-01	-2.208388811e-04	1.340180064e-11
-2.140000000e-02	1.340130637e-01	-2.194788791e-04	8.980633004e-12
-2.150000000e-02	1.340130634e-01	-2.181188770e-04	7.565439039e-12
-2.160000000e-02	1.340130630e-01	-2.167588749e-04	1.961416984e-11
-2.170000000e-02	1.340130626e-01	-2.153988728e-04	6.775537271e-12
-2.180000000e-02	1.340130622e-01	-2.140388705e-04	1.024963843e-11
-2.190000000e-02	1.340130617e-01	-2.126788682e-04	2.662876396e-11
-2.200000000e-02	1.340130612e-01	-2.113188659e-04	1.774464429e-11
-2.210000000e-02	1.340130606e-01	-2.099588635e-04	8.523747664e-12
-2.220000000e-02	1.340130600e-01	-2.085988611e-04	8.107198175e-12
-2.230000000e-02	1.340130594e-01	-2.072388586e-04	1.320571437e-11
-2.240000000e-02	1.340130587e-01	-2.058788561e-04	1.098529870e-11
-2.250000000e-02	1.340130580e-01	-2.045188536e-04	7.459131957e-12
-2.260000000e-02	1.340130572e-01	-2.031588510e-04	1.188342500e-11
-2.270000000e-02	1.340130564e-01	-2.017988484e-04	1.418555679e-11
-2.280000000e-02	1.340130556e-01	-2.004388457e-04	1.335343171e-11
-2.290000000e-02	1.340130547e-01	-1.990788430e-04	1.031194956e-11
-2.300000000e-02	1.340130538e-01	-1.977188403e-04	7.491560858e-12
-2.310000000e-02	1.340130528e-01	-1.963588375e-04	1.239966407e-11
-2.320000000e-02	1.340130518e-01	-1.949988348e-04	1.141179180e-11
-2.330000000e-02	1.340130507e-01	-1.936388320e-04	1.693274448e-11
-2.340000000e-02	1.340130496e-01	-1.922788292e-04	4.433596142e-11
-2.350000000e-02	1.340130485e-01	-1.909188263e-04	6.975602177e-12
-2.360000000e-02	1.340130473e-01	-1.895588235e-04	3.928610065e-11
-2.370000000e-02	1.340130461e-01	-1.881988206e-04	8.137793925e-12
-2.380000000e-02	1.340130448e-01	-1.868388177e-04	5.618455992e-12
-2.390000000e-02	1.340130435e-01	-1.854788148e-04	2.123583956e-11
-2.400000000e-02	1.340130422e-01	-1.841188119e-04	9.479598427e-12
-2.410000000e-02	1.340130408e-01	-1.827588090e-04	9.394327972e-12
-2.420000000e-02	1.340130394e-01	-1.813988061e-04	2.068482550e-11
-2.430000000e-02	1.340130379e-01	-1.800388032e-04	2.278350731e-11
-2.440000000e-02	1.340130364e-01	-1.786788003e-04	1.689828518e-11
-2.450000000e-02	1.340130349e-01	-1.773187974e-04	2.137801591e-11
-2.460000000e-02	1.340130333e-01	-1.759587945e-04	8.671656134e-12
-2.470000000e-02	1.340130316e-01	-1.745987916e-04	1.011146079e-11
-2.480000000e-02	1.340130300e-01	-1.732387887e-04	1.933867408e-11
-2.490000000e-02	1.340130283e-01	-1.718787858e-04	1.053317954e-11
-2.500000000e-02	1.340130265e-01	-1.705187829e-04	6.141560556e-12
-2.510000000e-02	1.340130247e-01	-1.691587801e-04	2.349038399e-11
-2.520000000e-02	1.340130229e-01	-1.677987772e-04	1.427547750e-11
-2.530000000e-02	1.340130210e-01	-1.664387744e-04	7.649159696e-12
-2.540000000e-02	1.340130191e-01	-1.650787716e-04	2.769016430e-11
-2.550000000e-02	1.340130171e-01	-1.637187688e-04	2.040126442e-11
-2.560000000e-02	1.340130151e-01	-1.623587661e-04	1.311064206e-11
-2.570000000e-02	1.340130131e-01	-1.609987634e-04	2.880647034e-11
-2.580000000e-02	1.340130110e-01	-1.596387607e-04	1.847683879e-11
-2.590000000e-02	1.340130089e-01	-1.582787580e-04	2.642884833e-11
-2.600000000e-02	1.340130067e-01	-1.569187554e-04	1.128285456e-11
-2.610000000e-02	1.340130045e-01	-1.555587528e-04	9.877375175e-12
-2.620000000e-02	1.340130022e-01	-1.541987502e-04	7.944280085e-12
-2.630000000e-02	1.340129999e-01	-1.528387477e-04	3.859921953e-11
-2.640000000e-02	1.340129976e-01	-1.514787452e-04	1.468672168e-11
-2.650000000e-02	1.340129952e-01	-1.501187428e-04	2.249197963e-11
-2.660000000e-02	1.340129928e-01	-1.487587404e-04	8.380035268e-12
-2.670000000e-02	1.340129904e-01	-1.473987381e-04	5.981316897e-12
-2.680000000e-02	1.340129879e-01	-1.460387358e-04	4.205868765e-11
-2.690000000e-02	1.340129853e-01	-1.446787335e-04	1.291831575e-11
-2.700000000e-02	1.340129827e-01	-1.433187313e-04	3.096380858e-12
-2.710000000e-02	1.340129801e-01	-1.419587292e-04	7.949188203e-12
-2.720000000e-02	1.340129774e-01	-1.405987271e-04	1.236852463e-11
-2.730000000e-02	1.340129747e-01	-1.392387251e-04	2.286983551e-11
-2.740000000e-02	1.340129720e-01	-1.378787232e-04	8.155460051e-12
-2.750000000e-02	1.340129692e-01	-1.365187213e-04	1.643456339e-11
-2.760000000e-02	1.340129664e-01	-1.351587195e-04	1.044450373e-11
-2.770000000e-02	1.340129635e-01	-1.337987177e-04	1.127849779e-11
-2.780000000e-02	1.340129606e-01	-1.324387161e-04	1.904964023e-11
-2.790000000e-02	1.340129577e-01	-1.310787144e-04	5.668722853e-12
-2.800000000e-02	1.340129547e-01	-1.297187129e-04	1.500001293e-11
-2.810000000e-02	1.340129516e-01	-1.283587115e-04	1.333294836e-11
-2.820000000e-02	1.340129485e-01	-1.269987101e-04	1.757018359e-11
-2.830000000e-02	1.340129454e-01	-1.256387088e-04	6.618500234e-12
-2.840000000e-02	1.340129423e-01	-1.242787076e-04	8.783287119e-12
-2.850000000e-02	1.340129391e-01	-1.229187065e-04	1.085646849e-11
-2.860000000e-02	1.340129358e-01	-1.215587054e-04	7.250818910e-12
-2.870000000e-02	1.340129325e-01	-1.201987045e-04	9.725892676e-12
-2.880000000e-02	1.340129292e-01	-1.188387036e-04	1.260977347e-11
-2.890000000e-02	1.340129259e-01	-1.174787029e-04	5.093408825e-11
-2.900000000e-02	1.340129224e-01	-1.161187022e-04	1.431200652e-11
-2.910000000e-02	1.340129190e-01	-1.147587016e-04	7.295593102e-11
-2.920000000e-02	1.340129155e-01	-1.133987011e-04	1.602758910e-11
-2.930000000e-02	1.340129120e-01	-1.120387008e-04	2.409336945e-11
-2.940000000e-02	1.340129084e-01	-1.106787005e-04	1.071930862e-11
-2.950000000e-02	1.340129048e-01	-1.093187003e-04	9.240181015e-12
-2.960000000e-02	1.340129011e-01	-1.079587003e-04	9.348397986e-12
-2.970000000e-02	1.340128974e-01	-1.065987004e-04	1.778140633e-11
-2.980000000e-02	1.340128937e-01	-1.052387005e-04	8.513229783e-12
-2.990000000e-02	1.340128899e-01	-1.038787008e-04	1.347552193e-11
-3.000000000e-02	1.340128861e-01	-1.025187012e-04	9.446534244e-12
