# Im(epsi1)     Re(omega/c)      Im(omega/c)      Eq(det).Opt det CON kz, R=0.5 \mum, mu_c=0.3, Re(epsi1)=3.90solve_det_conkz_vs_kz.py
0.000000000e+00	1.340069902e-01	-4.846484538e-04	2.011137728e-11
-1.000000000e-04	1.340069979e-01	-4.832877353e-04	1.525497219e-11
-2.000000000e-04	1.340070056e-01	-4.819270163e-04	1.800419426e-11
-3.000000000e-04	1.340070133e-01	-4.805662968e-04	1.215096373e-11
-4.000000000e-04	1.340070209e-01	-4.792055769e-04	1.650367155e-11
-5.000000000e-04	1.340070285e-01	-4.778448566e-04	2.586717485e-11
-6.000000000e-04	1.340070360e-01	-4.764841357e-04	5.488037564e-12
-7.000000000e-04	1.340070435e-01	-4.751234144e-04	1.157645859e-11
-8.000000000e-04	1.340070510e-01	-4.737626927e-04	1.954410097e-11
-9.000000000e-04	1.340070584e-01	-4.724019705e-04	1.811822908e-11
-1.000000000e-03	1.340070657e-01	-4.710412479e-04	2.541711503e-11
-1.100000000e-03	1.340070730e-01	-4.696805248e-04	6.842882189e-12
-1.200000000e-03	1.340070803e-01	-4.683198013e-04	1.062525612e-11
-1.300000000e-03	1.340070876e-01	-4.669590773e-04	1.583668846e-11
-1.400000000e-03	1.340070948e-01	-4.655983529e-04	2.014348229e-11
-1.500000000e-03	1.340071019e-01	-4.642376281e-04	4.656355146e-12
-1.600000000e-03	1.340071091e-01	-4.628769028e-04	5.730225263e-12
-1.700000000e-03	1.340071161e-01	-4.615161771e-04	1.618989857e-11
-1.800000000e-03	1.340071232e-01	-4.601554509e-04	1.087236476e-11
-1.900000000e-03	1.340071302e-01	-4.587947244e-04	2.430559399e-11
-2.000000000e-03	1.340071371e-01	-4.574339974e-04	1.729328980e-11
-2.100000000e-03	1.340071440e-01	-4.560732700e-04	8.081126051e-12
-2.200000000e-03	1.340071509e-01	-4.547125421e-04	1.598516840e-11
-2.300000000e-03	1.340071577e-01	-4.533518139e-04	2.501450859e-11
-2.400000000e-03	1.340071645e-01	-4.519910852e-04	1.948700446e-11
-2.500000000e-03	1.340071713e-01	-4.506303561e-04	3.569101204e-11
-2.600000000e-03	1.340071780e-01	-4.492696266e-04	2.666310058e-11
-2.700000000e-03	1.340071846e-01	-4.479088966e-04	1.029574598e-11
-2.800000000e-03	1.340071912e-01	-4.465481663e-04	1.673758565e-11
-2.900000000e-03	1.340071978e-01	-4.451874355e-04	1.363853994e-11
-3.000000000e-03	1.340072044e-01	-4.438267044e-04	9.619892179e-12
-3.100000000e-03	1.340072109e-01	-4.424659728e-04	3.708284925e-11
-3.200000000e-03	1.340072173e-01	-4.411052409e-04	7.973414023e-12
-3.300000000e-03	1.340072237e-01	-4.397445085e-04	2.230399792e-11
-3.400000000e-03	1.340072301e-01	-4.383837758e-04	3.149062735e-11
-3.500000000e-03	1.340072364e-01	-4.370230426e-04	1.129751226e-11
-3.600000000e-03	1.340072427e-01	-4.356623091e-04	8.802146402e-12
-3.700000000e-03	1.340072490e-01	-4.343015751e-04	9.664484161e-12
-3.800000000e-03	1.340072552e-01	-4.329408408e-04	1.824812534e-11
-3.900000000e-03	1.340072614e-01	-4.315801061e-04	3.032846551e-11
-4.000000000e-03	1.340072675e-01	-4.302193709e-04	1.524102014e-10
-4.100000000e-03	1.340072736e-01	-4.288586355e-04	1.001891962e-11
-4.200000000e-03	1.340072796e-01	-4.274978996e-04	1.975555985e-11
-4.300000000e-03	1.340072856e-01	-4.261371634e-04	9.654634999e-12
-4.400000000e-03	1.340072916e-01	-4.247764268e-04	8.233622654e-12
-4.500000000e-03	1.340072975e-01	-4.234156898e-04	1.836464770e-11
-4.600000000e-03	1.340073034e-01	-4.220549524e-04	6.433784059e-12
-4.700000000e-03	1.340073092e-01	-4.206942147e-04	5.094835864e-12
-4.800000000e-03	1.340073150e-01	-4.193334766e-04	2.477634414e-11
-4.900000000e-03	1.340073208e-01	-4.179727381e-04	1.146201036e-11
-5.000000000e-03	1.340073265e-01	-4.166119993e-04	1.689584616e-11
-5.100000000e-03	1.340073322e-01	-4.152512601e-04	1.138662984e-11
-5.200000000e-03	1.340073378e-01	-4.138905205e-04	9.404269093e-12
-5.300000000e-03	1.340073434e-01	-4.125297806e-04	9.601761472e-12
-5.400000000e-03	1.340073489e-01	-4.111690403e-04	8.567293163e-12
-5.500000000e-03	1.340073544e-01	-4.098082997e-04	6.959895206e-12
-5.600000000e-03	1.340073599e-01	-4.084475587e-04	4.927100800e-11
-5.700000000e-03	1.340073653e-01	-4.070868174e-04	1.648073420e-11
-5.800000000e-03	1.340073707e-01	-4.057260757e-04	4.110538391e-12
-5.900000000e-03	1.340073760e-01	-4.043653337e-04	2.065272549e-10
-6.000000000e-03	1.340073813e-01	-4.030045913e-04	1.395414184e-11
-6.100000000e-03	1.340073866e-01	-4.016438486e-04	1.169953853e-11
-6.200000000e-03	1.340073918e-01	-4.002831055e-04	1.160240813e-11
-6.300000000e-03	1.340073970e-01	-3.989223622e-04	2.376896794e-11
-6.400000000e-03	1.340074021e-01	-3.975616184e-04	7.465991868e-12
-6.500000000e-03	1.340074072e-01	-3.962008744e-04	1.067877075e-11
-6.600000000e-03	1.340074123e-01	-3.948401300e-04	1.279439502e-11
-6.700000000e-03	1.340074173e-01	-3.934793853e-04	1.172252836e-11
-6.800000000e-03	1.340074222e-01	-3.921186403e-04	2.459105656e-11
-6.900000000e-03	1.340074272e-01	-3.907578949e-04	1.512900791e-11
-7.000000000e-03	1.340074321e-01	-3.893971492e-04	6.443527708e-12
-7.100000000e-03	1.340074369e-01	-3.880364032e-04	5.885508431e-12
-7.200000000e-03	1.340074417e-01	-3.866756569e-04	1.105118033e-11
-7.300000000e-03	1.340074465e-01	-3.853149102e-04	8.478236739e-12
-7.400000000e-03	1.340074512e-01	-3.839541633e-04	2.522372027e-11
-7.500000000e-03	1.340074559e-01	-3.825934160e-04	1.496093161e-11
-7.600000000e-03	1.340074605e-01	-3.812326684e-04	4.004281157e-12
-7.700000000e-03	1.340074651e-01	-3.798719205e-04	1.487742403e-11
-7.800000000e-03	1.340074697e-01	-3.785111723e-04	2.507106723e-11
-7.900000000e-03	1.340074742e-01	-3.771504238e-04	1.059280435e-11
-8.000000000e-03	1.340074787e-01	-3.757896750e-04	1.945154101e-11
-8.100000000e-03	1.340074831e-01	-3.744289259e-04	2.504969081e-11
-8.200000000e-03	1.340074875e-01	-3.730681765e-04	1.652275895e-11
-8.300000000e-03	1.340074918e-01	-3.717074269e-04	3.109014598e-11
-8.400000000e-03	1.340074961e-01	-3.703466769e-04	1.390867257e-11
-8.500000000e-03	1.340075004e-01	-3.689859266e-04	2.882766011e-11
-8.600000000e-03	1.340075046e-01	-3.676251760e-04	1.349245034e-11
-8.700000000e-03	1.340075088e-01	-3.662644252e-04	9.760780922e-12
-8.800000000e-03	1.340075129e-01	-3.649036740e-04	4.532047215e-11
-8.900000000e-03	1.340075170e-01	-3.635429226e-04	1.051224391e-11
-9.000000000e-03	1.340075211e-01	-3.621821709e-04	1.037626927e-11
-9.100000000e-03	1.340075251e-01	-3.608214189e-04	6.885444103e-12
-9.200000000e-03	1.340075291e-01	-3.594606667e-04	8.125243182e-12
-9.300000000e-03	1.340075330e-01	-3.580999141e-04	3.154408270e-11
-9.400000000e-03	1.340075369e-01	-3.567391613e-04	1.179958103e-11
-9.500000000e-03	1.340075408e-01	-3.553784083e-04	1.741355508e-11
-9.600000000e-03	1.340075446e-01	-3.540176549e-04	2.298295443e-11
-9.700000000e-03	1.340075484e-01	-3.526569013e-04	1.094923376e-11
-9.800000000e-03	1.340075521e-01	-3.512961474e-04	1.506467753e-11
-9.900000000e-03	1.340075558e-01	-3.499353933e-04	9.898558059e-12
-1.000000000e-02	1.340075594e-01	-3.485746389e-04	1.998629778e-10
-1.010000000e-02	1.340075630e-01	-3.472138842e-04	3.145412646e-11
-1.020000000e-02	1.340075666e-01	-3.458531293e-04	4.842172884e-11
-1.030000000e-02	1.340075701e-01	-3.444923742e-04	1.971669228e-11
-1.040000000e-02	1.340075736e-01	-3.431316187e-04	1.204920346e-11
-1.050000000e-02	1.340075770e-01	-3.417708631e-04	4.304989075e-11
-1.060000000e-02	1.340075804e-01	-3.404101072e-04	3.163271000e-11
-1.070000000e-02	1.340075838e-01	-3.390493510e-04	5.051379369e-12
-1.080000000e-02	1.340075871e-01	-3.376885946e-04	3.161742503e-11
-1.090000000e-02	1.340075904e-01	-3.363278379e-04	6.157173232e-12
-1.100000000e-02	1.340075936e-01	-3.349670811e-04	1.078469195e-11
-1.110000000e-02	1.340075968e-01	-3.336063239e-04	3.057841640e-11
-1.120000000e-02	1.340076000e-01	-3.322455666e-04	1.151822424e-11
-1.130000000e-02	1.340076031e-01	-3.308848090e-04	1.161843160e-11
-1.140000000e-02	1.340076061e-01	-3.295240512e-04	1.438564620e-11
-1.150000000e-02	1.340076092e-01	-3.281632931e-04	9.198006416e-12
-1.160000000e-02	1.340076122e-01	-3.268025349e-04	8.696750023e-12
-1.170000000e-02	1.340076151e-01	-3.254417764e-04	7.707406351e-12
-1.180000000e-02	1.340076180e-01	-3.240810176e-04	1.130477887e-11
-1.190000000e-02	1.340076209e-01	-3.227202587e-04	3.485762211e-11
-1.200000000e-02	1.340076237e-01	-3.213594995e-04	1.761890446e-11
-1.210000000e-02	1.340076265e-01	-3.199987402e-04	2.443241963e-11
-1.220000000e-02	1.340076292e-01	-3.186379806e-04	1.729168670e-11
-1.230000000e-02	1.340076319e-01	-3.172772208e-04	1.353692066e-11
-1.240000000e-02	1.340076345e-01	-3.159164608e-04	6.053147259e-11
-1.250000000e-02	1.340076372e-01	-3.145557005e-04	1.014596555e-11
-1.260000000e-02	1.340076397e-01	-3.131949401e-04	1.045923882e-11
-1.270000000e-02	1.340076423e-01	-3.118341795e-04	9.242139890e-12
-1.280000000e-02	1.340076447e-01	-3.104734186e-04	8.889702223e-12
-1.290000000e-02	1.340076472e-01	-3.091126576e-04	8.850752643e-12
-1.300000000e-02	1.340076496e-01	-3.077518964e-04	1.633341158e-11
-1.310000000e-02	1.340076520e-01	-3.063911350e-04	2.248061572e-11
-1.320000000e-02	1.340076543e-01	-3.050303733e-04	1.462055010e-11
-1.330000000e-02	1.340076566e-01	-3.036696115e-04	7.502903993e-12
-1.340000000e-02	1.340076588e-01	-3.023088495e-04	8.965486739e-12
-1.350000000e-02	1.340076610e-01	-3.009480873e-04	4.384331439e-11
-1.360000000e-02	1.340076632e-01	-2.995873250e-04	1.170357045e-10
-1.370000000e-02	1.340076653e-01	-2.982265624e-04	6.746159033e-12
-1.380000000e-02	1.340076674e-01	-2.968657997e-04	2.095534117e-11
-1.390000000e-02	1.340076694e-01	-2.955050368e-04	1.143624003e-11
-1.400000000e-02	1.340076714e-01	-2.941442737e-04	1.473133248e-11
-1.410000000e-02	1.340076733e-01	-2.927835104e-04	1.650107851e-11
-1.420000000e-02	1.340076753e-01	-2.914227470e-04	8.942164038e-12
-1.430000000e-02	1.340076771e-01	-2.900619834e-04	1.290414233e-11
-1.440000000e-02	1.340076789e-01	-2.887012196e-04	5.793658702e-12
-1.450000000e-02	1.340076807e-01	-2.873404557e-04	6.042231756e-12
-1.460000000e-02	1.340076825e-01	-2.859796916e-04	9.564585171e-12
-1.470000000e-02	1.340076842e-01	-2.846189273e-04	1.326188222e-11
-1.480000000e-02	1.340076858e-01	-2.832581629e-04	1.194348416e-11
-1.490000000e-02	1.340076875e-01	-2.818973983e-04	1.223661915e-11
-1.500000000e-02	1.340076890e-01	-2.805366336e-04	1.150177135e-11
-1.510000000e-02	1.340076906e-01	-2.791758687e-04	1.373509785e-11
-1.520000000e-02	1.340076921e-01	-2.778151036e-04	9.531662408e-12
-1.530000000e-02	1.340076935e-01	-2.764543384e-04	1.755633597e-11
-1.540000000e-02	1.340076949e-01	-2.750935731e-04	1.057082423e-11
-1.550000000e-02	1.340076963e-01	-2.737328076e-04	9.372576479e-12
-1.560000000e-02	1.340076977e-01	-2.723720420e-04	8.747761385e-12
-1.570000000e-02	1.340076989e-01	-2.710112762e-04	2.978138422e-11
-1.580000000e-02	1.340077002e-01	-2.696505103e-04	3.198690532e-11
-1.590000000e-02	1.340077014e-01	-2.682897442e-04	5.204230861e-12
-1.600000000e-02	1.340077026e-01	-2.669289781e-04	9.277364108e-12
-1.610000000e-02	1.340077037e-01	-2.655682117e-04	1.000113878e-11
-1.620000000e-02	1.340077048e-01	-2.642074453e-04	1.276944451e-11
-1.630000000e-02	1.340077058e-01	-2.628466787e-04	1.287576313e-11
-1.640000000e-02	1.340077068e-01	-2.614859120e-04	9.136410466e-12
-1.650000000e-02	1.340077078e-01	-2.601251452e-04	9.115454188e-12
-1.660000000e-02	1.340077087e-01	-2.587643783e-04	2.718524064e-11
-1.670000000e-02	1.340077096e-01	-2.574036112e-04	9.002223041e-12
-1.680000000e-02	1.340077104e-01	-2.560428440e-04	1.855737974e-11
-1.690000000e-02	1.340077112e-01	-2.546820767e-04	1.298890399e-11
-1.700000000e-02	1.340077120e-01	-2.533213093e-04	8.872395970e-12
-1.710000000e-02	1.340077127e-01	-2.519605418e-04	1.647520331e-11
-1.720000000e-02	1.340077133e-01	-2.505997741e-04	7.786840449e-12
-1.730000000e-02	1.340077140e-01	-2.492390064e-04	1.762142337e-11
-1.740000000e-02	1.340077146e-01	-2.478782385e-04	9.685925251e-12
-1.750000000e-02	1.340077151e-01	-2.465174706e-04	1.317456045e-11
-1.760000000e-02	1.340077156e-01	-2.451567025e-04	7.627565031e-12
-1.770000000e-02	1.340077161e-01	-2.437959344e-04	1.031263287e-11
-1.780000000e-02	1.340077165e-01	-2.424351661e-04	9.532682961e-12
-1.790000000e-02	1.340077169e-01	-2.410743978e-04	9.965810929e-12
-1.800000000e-02	1.340077172e-01	-2.397136293e-04	1.402850711e-11
-1.810000000e-02	1.340077175e-01	-2.383528608e-04	6.633132057e-12
-1.820000000e-02	1.340077178e-01	-2.369920922e-04	7.950751695e-12
-1.830000000e-02	1.340077180e-01	-2.356313235e-04	6.298198774e-12
-1.840000000e-02	1.340077182e-01	-2.342705547e-04	9.323808146e-12
-1.850000000e-02	1.340077183e-01	-2.329097858e-04	9.968884227e-12
-1.860000000e-02	1.340077184e-01	-2.315490170e-04	6.307129855e-10
-1.870000000e-02	1.340077184e-01	-2.301882478e-04	1.260485140e-11
-1.880000000e-02	1.340077184e-01	-2.288274787e-04	1.029867167e-11
-1.890000000e-02	1.340077184e-01	-2.274667095e-04	7.539184755e-12
-1.900000000e-02	1.340077183e-01	-2.261059403e-04	8.797571920e-12
-1.910000000e-02	1.340077182e-01	-2.247451709e-04	1.424892357e-11
-1.920000000e-02	1.340077181e-01	-2.233844016e-04	1.390012631e-11
-1.930000000e-02	1.340077179e-01	-2.220236321e-04	5.100601299e-11
-1.940000000e-02	1.340077176e-01	-2.206628626e-04	1.171166365e-11
-1.950000000e-02	1.340077173e-01	-2.193020930e-04	1.633474463e-11
-1.960000000e-02	1.340077170e-01	-2.179413234e-04	2.059283107e-10
-1.970000000e-02	1.340077167e-01	-2.165805536e-04	5.032117065e-11
-1.980000000e-02	1.340077163e-01	-2.152197839e-04	1.278660187e-11
-1.990000000e-02	1.340077158e-01	-2.138590141e-04	3.423819431e-11
-2.000000000e-02	1.340077153e-01	-2.124982442e-04	1.503182394e-11
-2.010000000e-02	1.340077148e-01	-2.111374743e-04	1.079013928e-11
-2.020000000e-02	1.340077142e-01	-2.097767043e-04	1.201030020e-11
-2.030000000e-02	1.340077136e-01	-2.084159343e-04	1.315743284e-11
-2.040000000e-02	1.340077130e-01	-2.070551643e-04	9.159844566e-12
-2.050000000e-02	1.340077123e-01	-2.056943942e-04	3.365725837e-11
-2.060000000e-02	1.340077115e-01	-2.043336241e-04	9.068814506e-12
-2.070000000e-02	1.340077107e-01	-2.029728539e-04	9.706373637e-12
-2.080000000e-02	1.340077099e-01	-2.016120837e-04	1.089035732e-11
-2.090000000e-02	1.340077091e-01	-2.002513135e-04	3.078918422e-11
-2.100000000e-02	1.340077082e-01	-1.988905432e-04	9.314158027e-12
-2.110000000e-02	1.340077072e-01	-1.975297729e-04	2.930054614e-11
-2.120000000e-02	1.340077062e-01	-1.961690026e-04	1.570133225e-11
-2.130000000e-02	1.340077052e-01	-1.948082323e-04	5.555441263e-11
-2.140000000e-02	1.340077042e-01	-1.934474619e-04	6.737995924e-12
-2.150000000e-02	1.340077030e-01	-1.920866915e-04	8.357462089e-12
-2.160000000e-02	1.340077019e-01	-1.907259211e-04	1.207589279e-11
-2.170000000e-02	1.340077007e-01	-1.893651507e-04	2.417076813e-11
-2.180000000e-02	1.340076995e-01	-1.880043803e-04	1.883092835e-11
-2.190000000e-02	1.340076982e-01	-1.866436098e-04	1.219823336e-11
-2.200000000e-02	1.340076969e-01	-1.852828394e-04	9.828837609e-12
-2.210000000e-02	1.340076955e-01	-1.839220689e-04	7.233333538e-12
-2.220000000e-02	1.340076941e-01	-1.825612984e-04	1.454610652e-11
-2.230000000e-02	1.340076927e-01	-1.812005280e-04	1.047840980e-11
-2.240000000e-02	1.340076912e-01	-1.798397575e-04	2.164244668e-11
-2.250000000e-02	1.340076897e-01	-1.784789870e-04	6.485177468e-11
-2.260000000e-02	1.340076881e-01	-1.771182166e-04	3.284152067e-11
-2.270000000e-02	1.340076865e-01	-1.757574461e-04	1.491841668e-11
-2.280000000e-02	1.340076849e-01	-1.743966757e-04	2.583001157e-11
-2.290000000e-02	1.340076832e-01	-1.730359052e-04	2.389717087e-11
-2.300000000e-02	1.340076815e-01	-1.716751348e-04	2.050244244e-11
-2.310000000e-02	1.340076797e-01	-1.703143644e-04	2.330743637e-11
-2.320000000e-02	1.340076779e-01	-1.689535940e-04	2.208849962e-11
-2.330000000e-02	1.340076760e-01	-1.675928236e-04	1.317745575e-11
-2.340000000e-02	1.340076742e-01	-1.662320532e-04	9.237680462e-12
-2.350000000e-02	1.340076722e-01	-1.648712829e-04	1.668208414e-11
-2.360000000e-02	1.340076702e-01	-1.635105126e-04	1.426380164e-11
-2.370000000e-02	1.340076682e-01	-1.621497423e-04	1.477509386e-11
-2.380000000e-02	1.340076662e-01	-1.607889720e-04	4.085762743e-11
-2.390000000e-02	1.340076641e-01	-1.594282018e-04	6.519244521e-12
-2.400000000e-02	1.340076619e-01	-1.580674315e-04	7.083978434e-12
-2.410000000e-02	1.340076597e-01	-1.567066614e-04	6.703966837e-12
-2.420000000e-02	1.340076575e-01	-1.553458912e-04	4.264771173e-11
-2.430000000e-02	1.340076553e-01	-1.539851211e-04	1.056793781e-11
-2.440000000e-02	1.340076530e-01	-1.526243511e-04	2.633405645e-11
-2.450000000e-02	1.340076506e-01	-1.512635811e-04	1.133503560e-11
-2.460000000e-02	1.340076482e-01	-1.499028111e-04	6.767273968e-12
-2.470000000e-02	1.340076458e-01	-1.485420412e-04	3.861391619e-11
-2.480000000e-02	1.340076433e-01	-1.471812713e-04	1.739693981e-11
-2.490000000e-02	1.340076408e-01	-1.458205015e-04	1.106358208e-11
-2.500000000e-02	1.340076382e-01	-1.444597317e-04	5.243500532e-11
-2.510000000e-02	1.340076357e-01	-1.430989620e-04	6.197094834e-11
-2.520000000e-02	1.340076330e-01	-1.417381924e-04	1.445198357e-11
-2.530000000e-02	1.340076303e-01	-1.403774228e-04	8.641358468e-12
-2.540000000e-02	1.340076276e-01	-1.390166532e-04	4.619740801e-12
-2.550000000e-02	1.340076249e-01	-1.376558838e-04	2.514352969e-11
-2.560000000e-02	1.340076221e-01	-1.362951143e-04	8.796726633e-12
-2.570000000e-02	1.340076192e-01	-1.349343450e-04	2.591698942e-11
-2.580000000e-02	1.340076163e-01	-1.335735757e-04	5.197767021e-11
-2.590000000e-02	1.340076134e-01	-1.322128065e-04	8.713755739e-12
-2.600000000e-02	1.340076104e-01	-1.308520374e-04	3.767794402e-11
-2.610000000e-02	1.340076074e-01	-1.294912684e-04	1.063123862e-11
-2.620000000e-02	1.340076044e-01	-1.281304994e-04	7.136267609e-12
-2.630000000e-02	1.340076013e-01	-1.267697305e-04	1.552467456e-11
-2.640000000e-02	1.340075982e-01	-1.254089617e-04	1.253528871e-11
-2.650000000e-02	1.340075950e-01	-1.240481930e-04	3.061108687e-11
-2.660000000e-02	1.340075918e-01	-1.226874243e-04	2.635002986e-11
-2.670000000e-02	1.340075885e-01	-1.213266558e-04	8.003452715e-12
-2.680000000e-02	1.340075852e-01	-1.199658873e-04	3.480447960e-11
-2.690000000e-02	1.340075819e-01	-1.186051190e-04	2.095663958e-11
-2.700000000e-02	1.340075785e-01	-1.172443507e-04	2.187521309e-11
-2.710000000e-02	1.340075751e-01	-1.158835825e-04	5.614849064e-12
-2.720000000e-02	1.340075716e-01	-1.145228145e-04	1.066373415e-11
-2.730000000e-02	1.340075681e-01	-1.131620465e-04	2.898545432e-11
-2.740000000e-02	1.340075645e-01	-1.118012786e-04	7.078219690e-12
-2.750000000e-02	1.340075610e-01	-1.104405109e-04	6.405080183e-12
-2.760000000e-02	1.340075573e-01	-1.090797432e-04	3.360233859e-11
-2.770000000e-02	1.340075537e-01	-1.077189757e-04	1.631667449e-11
-2.780000000e-02	1.340075500e-01	-1.063582082e-04	1.300855704e-11
-2.790000000e-02	1.340075462e-01	-1.049974409e-04	6.248951727e-12
-2.800000000e-02	1.340075424e-01	-1.036366737e-04	2.046315122e-11
-2.810000000e-02	1.340075386e-01	-1.022759066e-04	5.534543390e-10
-2.820000000e-02	1.340075347e-01	-1.009151396e-04	1.486179776e-11
-2.830000000e-02	1.340075308e-01	-9.955437278e-05	1.488665644e-11
-2.840000000e-02	1.340075268e-01	-9.819360605e-05	4.820435316e-11
-2.850000000e-02	1.340075228e-01	-9.683283946e-05	9.648279151e-12
-2.860000000e-02	1.340075188e-01	-9.547207300e-05	2.982927739e-11
-2.870000000e-02	1.340075147e-01	-9.411130665e-05	8.565517030e-12
-2.880000000e-02	1.340075106e-01	-9.275054044e-05	1.100490725e-11
-2.890000000e-02	1.340075064e-01	-9.138977438e-05	4.603088017e-11
-2.900000000e-02	1.340075022e-01	-9.002900844e-05	1.090258149e-11
-2.910000000e-02	1.340074979e-01	-8.866824264e-05	1.117887973e-11
-2.920000000e-02	1.340074936e-01	-8.730747699e-05	1.041282161e-11
-2.930000000e-02	1.340074893e-01	-8.594671147e-05	7.708119433e-12
-2.940000000e-02	1.340074849e-01	-8.458594611e-05	5.119538576e-12
-2.950000000e-02	1.340074805e-01	-8.322518088e-05	3.727111078e-12
-2.960000000e-02	1.340074761e-01	-8.186441584e-05	9.528789397e-11
-2.970000000e-02	1.340074716e-01	-8.050365089e-05	6.994568944e-12
-2.980000000e-02	1.340074670e-01	-7.914288612e-05	2.992423377e-11
-2.990000000e-02	1.340074625e-01	-7.778212151e-05	1.976723310e-11
-3.000000000e-02	1.340074578e-01	-7.642135705e-05	8.126859008e-12
