# Im(epsi1)     Re(omega/c)      Im(omega/c)      Eq(det).Opt det CON kz, R=0.5 \mum, mu_c=0.3, Re(epsi1)=3.90solve_det_conkz_vs_kz.py
0.000000000e+00	1.340079617e-01	-4.873693258e-04	1.243389394e-11
-1.000000000e-04	1.340079695e-01	-4.860086876e-04	1.156495084e-11
-2.000000000e-04	1.340079773e-01	-4.846480490e-04	1.819092223e-11
-3.000000000e-04	1.340079850e-01	-4.832874099e-04	7.631566551e-12
-4.000000000e-04	1.340079927e-01	-4.819267703e-04	1.189737489e-11
-5.000000000e-04	1.340080003e-01	-4.805661303e-04	8.717951820e-12
-6.000000000e-04	1.340080080e-01	-4.792054898e-04	8.228400886e-12
-7.000000000e-04	1.340080155e-01	-4.778448489e-04	1.113688291e-11
-8.000000000e-04	1.340080231e-01	-4.764842075e-04	1.766263944e-11
-9.000000000e-04	1.340080306e-01	-4.751235656e-04	1.290143409e-11
-1.000000000e-03	1.340080380e-01	-4.737629233e-04	1.422985245e-11
-1.100000000e-03	1.340080454e-01	-4.724022805e-04	7.709831744e-12
-1.200000000e-03	1.340080528e-01	-4.710416373e-04	2.745458610e-11
-1.300000000e-03	1.340080601e-01	-4.696809937e-04	1.270656095e-11
-1.400000000e-03	1.340080674e-01	-4.683203496e-04	8.219143319e-12
-1.500000000e-03	1.340080746e-01	-4.669597051e-04	1.175313473e-11
-1.600000000e-03	1.340080818e-01	-4.655990601e-04	1.263520477e-11
-1.700000000e-03	1.340080890e-01	-4.642384147e-04	1.655060761e-11
-1.800000000e-03	1.340080961e-01	-4.628777688e-04	8.797593952e-12
-1.900000000e-03	1.340081032e-01	-4.615171225e-04	1.533540646e-11
-2.000000000e-03	1.340081102e-01	-4.601564758e-04	4.994888028e-12
-2.100000000e-03	1.340081172e-01	-4.587958287e-04	9.838344069e-12
-2.200000000e-03	1.340081242e-01	-4.574351811e-04	9.717104283e-12
-2.300000000e-03	1.340081311e-01	-4.560745331e-04	8.431561179e-12
-2.400000000e-03	1.340081380e-01	-4.547138847e-04	7.813733919e-12
-2.500000000e-03	1.340081448e-01	-4.533532359e-04	1.251151427e-11
-2.600000000e-03	1.340081516e-01	-4.519925866e-04	1.905177751e-11
-2.700000000e-03	1.340081583e-01	-4.506319369e-04	1.247647836e-11
-2.800000000e-03	1.340081650e-01	-4.492712868e-04	8.199972256e-12
-2.900000000e-03	1.340081717e-01	-4.479106363e-04	1.199083546e-11
-3.000000000e-03	1.340081783e-01	-4.465499854e-04	1.490610377e-11
-3.100000000e-03	1.340081849e-01	-4.451893341e-04	5.611148950e-12
-3.200000000e-03	1.340081914e-01	-4.438286824e-04	2.910608548e-11
-3.300000000e-03	1.340081979e-01	-4.424680302e-04	1.176839736e-10
-3.400000000e-03	1.340082044e-01	-4.411073777e-04	1.870811800e-11
-3.500000000e-03	1.340082108e-01	-4.397467248e-04	5.093861812e-11
-3.600000000e-03	1.340082172e-01	-4.383860715e-04	6.458004100e-12
-3.700000000e-03	1.340082235e-01	-4.370254177e-04	1.501866150e-11
-3.800000000e-03	1.340082298e-01	-4.356647636e-04	2.457477051e-11
-3.900000000e-03	1.340082361e-01	-4.343041091e-04	8.513727367e-12
-4.000000000e-03	1.340082423e-01	-4.329434542e-04	2.630395404e-11
-4.100000000e-03	1.340082484e-01	-4.315827989e-04	1.463607390e-11
-4.200000000e-03	1.340082546e-01	-4.302221432e-04	3.558794786e-11
-4.300000000e-03	1.340082607e-01	-4.288614872e-04	1.781605387e-11
-4.400000000e-03	1.340082667e-01	-4.275008308e-04	1.050803335e-11
-4.500000000e-03	1.340082727e-01	-4.261401739e-04	1.530816210e-11
-4.600000000e-03	1.340082787e-01	-4.247795167e-04	4.142989223e-11
-4.700000000e-03	1.340082846e-01	-4.234188592e-04	4.396270021e-11
-4.800000000e-03	1.340082905e-01	-4.220582012e-04	1.946932909e-11
-4.900000000e-03	1.340082963e-01	-4.206975429e-04	1.032091355e-11
-5.000000000e-03	1.340083021e-01	-4.193368842e-04	2.056117324e-11
-5.100000000e-03	1.340083079e-01	-4.179762252e-04	7.542269868e-12
-5.200000000e-03	1.340083136e-01	-4.166155658e-04	2.459877342e-11
-5.300000000e-03	1.340083192e-01	-4.152549060e-04	2.387059806e-11
-5.400000000e-03	1.340083249e-01	-4.138942459e-04	6.007393578e-12
-5.500000000e-03	1.340083305e-01	-4.125335854e-04	1.292907823e-11
-5.600000000e-03	1.340083360e-01	-4.111729245e-04	9.860132517e-12
-5.700000000e-03	1.340083415e-01	-4.098122633e-04	7.667223272e-12
-5.800000000e-03	1.340083470e-01	-4.084516018e-04	2.683397530e-11
-5.900000000e-03	1.340083524e-01	-4.070909399e-04	1.071417848e-10
-6.000000000e-03	1.340083578e-01	-4.057302776e-04	5.824668702e-12
-6.100000000e-03	1.340083631e-01	-4.043696150e-04	3.465649795e-11
-6.200000000e-03	1.340083684e-01	-4.030089521e-04	1.162469175e-11
-6.300000000e-03	1.340083737e-01	-4.016482888e-04	1.896462637e-11
-6.400000000e-03	1.340083789e-01	-4.002876252e-04	5.227449365e-12
-6.500000000e-03	1.340083841e-01	-3.989269612e-04	2.407963087e-11
-6.600000000e-03	1.340083892e-01	-3.975662969e-04	2.320052579e-11
-6.700000000e-03	1.340083943e-01	-3.962056323e-04	4.640253188e-11
-6.800000000e-03	1.340083994e-01	-3.948449673e-04	9.620845331e-12
-6.900000000e-03	1.340084044e-01	-3.934843020e-04	1.393110935e-11
-7.000000000e-03	1.340084093e-01	-3.921236364e-04	9.609400582e-12
-7.100000000e-03	1.340084143e-01	-3.907629705e-04	1.836703392e-11
-7.200000000e-03	1.340084192e-01	-3.894023042e-04	1.460446820e-11
-7.300000000e-03	1.340084240e-01	-3.880416376e-04	1.467010022e-11
-7.400000000e-03	1.340084288e-01	-3.866809707e-04	1.919050370e-11
-7.500000000e-03	1.340084336e-01	-3.853203035e-04	9.140144103e-12
-7.600000000e-03	1.340084383e-01	-3.839596360e-04	1.369670681e-11
-7.700000000e-03	1.340084430e-01	-3.825989681e-04	1.738877928e-11
-7.800000000e-03	1.340084476e-01	-3.812383000e-04	1.516824981e-11
-7.900000000e-03	1.340084522e-01	-3.798776315e-04	7.607141029e-11
-8.000000000e-03	1.340084568e-01	-3.785169628e-04	2.093002901e-11
-8.100000000e-03	1.340084613e-01	-3.771562937e-04	1.169929783e-11
-8.200000000e-03	1.340084658e-01	-3.757956243e-04	1.697813409e-11
-8.300000000e-03	1.340084702e-01	-3.744349546e-04	1.432396059e-11
-8.400000000e-03	1.340084746e-01	-3.730742847e-04	2.012937521e-11
-8.500000000e-03	1.340084789e-01	-3.717136144e-04	2.046594889e-11
-8.600000000e-03	1.340084832e-01	-3.703529438e-04	7.158929996e-11
-8.700000000e-03	1.340084875e-01	-3.689922730e-04	1.604276293e-11
-8.800000000e-03	1.340084917e-01	-3.676316018e-04	8.828599319e-12
-8.900000000e-03	1.340084959e-01	-3.662709304e-04	8.030631950e-12
-9.000000000e-03	1.340085001e-01	-3.649102586e-04	1.740488115e-10
-9.100000000e-03	1.340085042e-01	-3.635495867e-04	1.728604598e-11
-9.200000000e-03	1.340085082e-01	-3.621889144e-04	1.136170688e-11
-9.300000000e-03	1.340085122e-01	-3.608282418e-04	1.098991686e-11
-9.400000000e-03	1.340085162e-01	-3.594675690e-04	1.441788537e-11
-9.500000000e-03	1.340085202e-01	-3.581068959e-04	5.400923085e-12
-9.600000000e-03	1.340085241e-01	-3.567462225e-04	1.576924834e-11
-9.700000000e-03	1.340085279e-01	-3.553855489e-04	2.069127297e-11
-9.800000000e-03	1.340085317e-01	-3.540248750e-04	9.690740557e-11
-9.900000000e-03	1.340085355e-01	-3.526642008e-04	1.300077241e-11
-1.000000000e-02	1.340085392e-01	-3.513035263e-04	1.184489396e-11
-1.010000000e-02	1.340085429e-01	-3.499428516e-04	6.391861317e-12
-1.020000000e-02	1.340085466e-01	-3.485821766e-04	7.030347452e-12
-1.030000000e-02	1.340085502e-01	-3.472215014e-04	6.399856442e-11
-1.040000000e-02	1.340085537e-01	-3.458608259e-04	7.762021959e-12
-1.050000000e-02	1.340085572e-01	-3.445001502e-04	3.452444803e-11
-1.060000000e-02	1.340085607e-01	-3.431394742e-04	8.027546107e-12
-1.070000000e-02	1.340085642e-01	-3.417787979e-04	1.088914107e-11
-1.080000000e-02	1.340085676e-01	-3.404181214e-04	1.381660745e-11
-1.090000000e-02	1.340085709e-01	-3.390574447e-04	5.149884037e-11
-1.100000000e-02	1.340085742e-01	-3.376967677e-04	9.682043379e-12
-1.110000000e-02	1.340085775e-01	-3.363360905e-04	5.744778815e-12
-1.120000000e-02	1.340085808e-01	-3.349754130e-04	1.656192561e-11
-1.130000000e-02	1.340085839e-01	-3.336147353e-04	1.582486221e-11
-1.140000000e-02	1.340085871e-01	-3.322540574e-04	9.998320945e-12
-1.150000000e-02	1.340085902e-01	-3.308933792e-04	1.156921352e-11
-1.160000000e-02	1.340085933e-01	-3.295327008e-04	1.600744973e-11
-1.170000000e-02	1.340085963e-01	-3.281720222e-04	1.890745236e-11
-1.180000000e-02	1.340085993e-01	-3.268113434e-04	2.345372435e-11
-1.190000000e-02	1.340086022e-01	-3.254506643e-04	1.605180174e-11
-1.200000000e-02	1.340086051e-01	-3.240899850e-04	1.492113510e-11
-1.210000000e-02	1.340086080e-01	-3.227293055e-04	1.035352183e-11
-1.220000000e-02	1.340086108e-01	-3.213686257e-04	1.336103113e-11
-1.230000000e-02	1.340086136e-01	-3.200079458e-04	1.567002733e-11
-1.240000000e-02	1.340086163e-01	-3.186472656e-04	2.104395823e-11
-1.250000000e-02	1.340086190e-01	-3.172865852e-04	9.824532016e-12
-1.260000000e-02	1.340086217e-01	-3.159259046e-04	5.823171895e-12
-1.270000000e-02	1.340086243e-01	-3.145652238e-04	1.606810624e-11
-1.280000000e-02	1.340086269e-01	-3.132045428e-04	1.547693641e-11
-1.290000000e-02	1.340086294e-01	-3.118438616e-04	4.234096243e-11
-1.300000000e-02	1.340086319e-01	-3.104831802e-04	1.378407526e-11
-1.310000000e-02	1.340086343e-01	-3.091224986e-04	8.305704732e-12
-1.320000000e-02	1.340086368e-01	-3.077618168e-04	1.247059328e-11
-1.330000000e-02	1.340086391e-01	-3.064011348e-04	1.260143541e-11
-1.340000000e-02	1.340086414e-01	-3.050404526e-04	8.504310930e-12
-1.350000000e-02	1.340086437e-01	-3.036797702e-04	1.303165505e-11
-1.360000000e-02	1.340086460e-01	-3.023190876e-04	9.579221057e-12
-1.370000000e-02	1.340086482e-01	-3.009584048e-04	3.322760593e-11
-1.380000000e-02	1.340086503e-01	-2.995977219e-04	1.809096503e-11
-1.390000000e-02	1.340086524e-01	-2.982370388e-04	2.006269460e-11
-1.400000000e-02	1.340086545e-01	-2.968763554e-04	9.919993774e-12
-1.410000000e-02	1.340086566e-01	-2.955156719e-04	1.748712959e-11
-1.420000000e-02	1.340086586e-01	-2.941549883e-04	6.940794821e-12
-1.430000000e-02	1.340086605e-01	-2.927943044e-04	2.096823800e-11
-1.440000000e-02	1.340086624e-01	-2.914336204e-04	1.812586278e-11
-1.450000000e-02	1.340086643e-01	-2.900729362e-04	9.456316782e-12
-1.460000000e-02	1.340086661e-01	-2.887122519e-04	2.233836443e-11
-1.470000000e-02	1.340086679e-01	-2.873515674e-04	8.894605511e-12
-1.480000000e-02	1.340086696e-01	-2.859908827e-04	1.975543261e-11
-1.490000000e-02	1.340086714e-01	-2.846301978e-04	1.212889964e-11
-1.500000000e-02	1.340086730e-01	-2.832695128e-04	9.660802278e-12
-1.510000000e-02	1.340086746e-01	-2.819088277e-04	1.172631718e-11
-1.520000000e-02	1.340086762e-01	-2.805481423e-04	4.353243004e-11
-1.530000000e-02	1.340086778e-01	-2.791874569e-04	9.065126442e-12
-1.540000000e-02	1.340086793e-01	-2.778267712e-04	1.026451241e-11
-1.550000000e-02	1.340086807e-01	-2.764660855e-04	9.126221390e-12
-1.560000000e-02	1.340086821e-01	-2.751053995e-04	9.249395734e-12
-1.570000000e-02	1.340086835e-01	-2.737447135e-04	1.637783650e-11
-1.580000000e-02	1.340086848e-01	-2.723840273e-04	6.887832071e-12
-1.590000000e-02	1.340086861e-01	-2.710233409e-04	6.321190935e-12
-1.600000000e-02	1.340086874e-01	-2.696626544e-04	8.784901401e-12
-1.610000000e-02	1.340086886e-01	-2.683019678e-04	2.704967810e-11
-1.620000000e-02	1.340086898e-01	-2.669412810e-04	1.835403107e-11
-1.630000000e-02	1.340086909e-01	-2.655805941e-04	9.133341317e-12
-1.640000000e-02	1.340086920e-01	-2.642199071e-04	1.015675010e-11
-1.650000000e-02	1.340086930e-01	-2.628592199e-04	3.001842757e-11
-1.660000000e-02	1.340086940e-01	-2.614985327e-04	1.510738453e-11
-1.670000000e-02	1.340086950e-01	-2.601378453e-04	6.885601409e-12
-1.680000000e-02	1.340086959e-01	-2.587771577e-04	1.223435786e-11
-1.690000000e-02	1.340086968e-01	-2.574164701e-04	1.996249110e-11
-1.700000000e-02	1.340086976e-01	-2.560557823e-04	1.293729870e-11
-1.710000000e-02	1.340086984e-01	-2.546950944e-04	1.191683044e-11
-1.720000000e-02	1.340086992e-01	-2.533344064e-04	1.479814861e-11
-1.730000000e-02	1.340086999e-01	-2.519737183e-04	1.464996912e-11
-1.740000000e-02	1.340087005e-01	-2.506130301e-04	8.517619576e-12
-1.750000000e-02	1.340087012e-01	-2.492523418e-04	6.069856035e-12
-1.760000000e-02	1.340087018e-01	-2.478916533e-04	8.161793831e-12
-1.770000000e-02	1.340087023e-01	-2.465309648e-04	1.048135429e-11
-1.780000000e-02	1.340087028e-01	-2.451702762e-04	1.279387576e-11
-1.790000000e-02	1.340087033e-01	-2.438095874e-04	1.298036302e-11
-1.800000000e-02	1.340087037e-01	-2.424488986e-04	2.457603235e-11
-1.810000000e-02	1.340087041e-01	-2.410882096e-04	1.635509034e-11
-1.820000000e-02	1.340087044e-01	-2.397275206e-04	1.068762977e-11
-1.830000000e-02	1.340087047e-01	-2.383668315e-04	8.486834558e-12
-1.840000000e-02	1.340087050e-01	-2.370061423e-04	8.881148691e-12
-1.850000000e-02	1.340087052e-01	-2.356454530e-04	2.972687198e-11
-1.860000000e-02	1.340087054e-01	-2.342847636e-04	1.167121708e-11
-1.870000000e-02	1.340087055e-01	-2.329240742e-04	1.415009194e-11
-1.880000000e-02	1.340087056e-01	-2.315633847e-04	2.609901067e-11
-1.890000000e-02	1.340087056e-01	-2.302026950e-04	1.157359828e-11
-1.900000000e-02	1.340087057e-01	-2.288420053e-04	4.394940074e-12
-1.910000000e-02	1.340087056e-01	-2.274813156e-04	9.230359399e-12
-1.920000000e-02	1.340087056e-01	-2.261206257e-04	2.372266125e-11
-1.930000000e-02	1.340087054e-01	-2.247599358e-04	9.732463281e-12
-1.940000000e-02	1.340087053e-01	-2.233992458e-04	7.348532133e-12
-1.950000000e-02	1.340087051e-01	-2.220385558e-04	1.245007336e-11
-1.960000000e-02	1.340087048e-01	-2.206778657e-04	1.008522384e-11
-1.970000000e-02	1.340087046e-01	-2.193171755e-04	4.886665924e-12
-1.980000000e-02	1.340087042e-01	-2.179564853e-04	4.954249311e-11
-1.990000000e-02	1.340087039e-01	-2.165957950e-04	1.459130205e-11
-2.000000000e-02	1.340087035e-01	-2.152351046e-04	8.783476057e-12
-2.010000000e-02	1.340087030e-01	-2.138744142e-04	2.613490879e-11
-2.020000000e-02	1.340087026e-01	-2.125137238e-04	7.483153808e-11
-2.030000000e-02	1.340087020e-01	-2.111530333e-04	2.187264031e-11
-2.040000000e-02	1.340087015e-01	-2.097923428e-04	1.801888795e-11
-2.050000000e-02	1.340087008e-01	-2.084316522e-04	2.451794162e-11
-2.060000000e-02	1.340087002e-01	-2.070709615e-04	5.461180349e-12
-2.070000000e-02	1.340086995e-01	-2.057102709e-04	6.198103589e-12
-2.080000000e-02	1.340086988e-01	-2.043495801e-04	1.371021318e-11
-2.090000000e-02	1.340086980e-01	-2.029888894e-04	2.219096308e-11
-2.100000000e-02	1.340086972e-01	-2.016281986e-04	1.593614292e-11
-2.110000000e-02	1.340086963e-01	-2.002675078e-04	1.504436441e-11
-2.120000000e-02	1.340086954e-01	-1.989068169e-04	3.798072880e-11
-2.130000000e-02	1.340086945e-01	-1.975461261e-04	1.946888137e-11
-2.140000000e-02	1.340086935e-01	-1.961854352e-04	5.388616784e-12
-2.150000000e-02	1.340086925e-01	-1.948247442e-04	4.881851950e-11
-2.160000000e-02	1.340086914e-01	-1.934640533e-04	1.169203455e-11
-2.170000000e-02	1.340086903e-01	-1.921033623e-04	2.527445528e-11
-2.180000000e-02	1.340086892e-01	-1.907426713e-04	1.000813290e-11
-2.190000000e-02	1.340086880e-01	-1.893819803e-04	1.101713632e-11
-2.200000000e-02	1.340086867e-01	-1.880212893e-04	1.020639490e-11
-2.210000000e-02	1.340086855e-01	-1.866605983e-04	1.167749835e-11
-2.220000000e-02	1.340086842e-01	-1.852999072e-04	2.274344046e-11
-2.230000000e-02	1.340086828e-01	-1.839392162e-04	1.742297546e-11
-2.240000000e-02	1.340086814e-01	-1.825785251e-04	3.336026249e-11
-2.250000000e-02	1.340086800e-01	-1.812178341e-04	1.022046300e-11
-2.260000000e-02	1.340086785e-01	-1.798571430e-04	3.327063149e-11
-2.270000000e-02	1.340086770e-01	-1.784964520e-04	2.892630998e-11
-2.280000000e-02	1.340086754e-01	-1.771357609e-04	1.414801449e-11
-2.290000000e-02	1.340086738e-01	-1.757750699e-04	1.223212124e-11
-2.300000000e-02	1.340086722e-01	-1.744143788e-04	1.083435710e-11
-2.310000000e-02	1.340086705e-01	-1.730536878e-04	1.281633792e-11
-2.320000000e-02	1.340086688e-01	-1.716929968e-04	4.854212009e-11
-2.330000000e-02	1.340086670e-01	-1.703323057e-04	1.980475326e-11
-2.340000000e-02	1.340086652e-01	-1.689716148e-04	1.527159094e-11
-2.350000000e-02	1.340086633e-01	-1.676109238e-04	1.271811423e-11
-2.360000000e-02	1.340086614e-01	-1.662502328e-04	3.277869496e-11
-2.370000000e-02	1.340086595e-01	-1.648895419e-04	1.570701982e-11
-2.380000000e-02	1.340086575e-01	-1.635288510e-04	1.099327989e-11
-2.390000000e-02	1.340086555e-01	-1.621681601e-04	3.125738885e-11
-2.400000000e-02	1.340086535e-01	-1.608074692e-04	1.297860004e-11
-2.410000000e-02	1.340086514e-01	-1.594467784e-04	8.099419684e-11
-2.420000000e-02	1.340086492e-01	-1.580860876e-04	1.117548298e-11
-2.430000000e-02	1.340086470e-01	-1.567253969e-04	3.186280209e-11
-2.440000000e-02	1.340086448e-01	-1.553647061e-04	1.067675087e-11
-2.450000000e-02	1.340086426e-01	-1.540040154e-04	1.624009143e-11
-2.460000000e-02	1.340086403e-01	-1.526433248e-04	1.759640216e-11
-2.470000000e-02	1.340086379e-01	-1.512826342e-04	8.032990785e-12
-2.480000000e-02	1.340086355e-01	-1.499219436e-04	4.287346386e-11
-2.490000000e-02	1.340086331e-01	-1.485612531e-04	9.642323522e-12
-2.500000000e-02	1.340086306e-01	-1.472005627e-04	6.922872390e-11
-2.510000000e-02	1.340086281e-01	-1.458398722e-04	9.991479227e-12
-2.520000000e-02	1.340086256e-01	-1.444791819e-04	1.622987809e-11
-2.530000000e-02	1.340086230e-01	-1.431184916e-04	1.042755405e-11
-2.540000000e-02	1.340086203e-01	-1.417578013e-04	4.069194317e-11
-2.550000000e-02	1.340086177e-01	-1.403971111e-04	2.056551619e-11
-2.560000000e-02	1.340086149e-01	-1.390364210e-04	1.087259294e-11
-2.570000000e-02	1.340086122e-01	-1.376757309e-04	1.999718080e-11
-2.580000000e-02	1.340086094e-01	-1.363150409e-04	1.761113476e-11
-2.590000000e-02	1.340086065e-01	-1.349543510e-04	2.897163974e-11
-2.600000000e-02	1.340086037e-01	-1.335936612e-04	1.296617865e-11
-2.610000000e-02	1.340086007e-01	-1.322329714e-04	1.338446914e-11
-2.620000000e-02	1.340085978e-01	-1.308722816e-04	5.273253805e-11
-2.630000000e-02	1.340085948e-01	-1.295115920e-04	2.903897962e-11
-2.640000000e-02	1.340085917e-01	-1.281509024e-04	1.751728435e-11
-2.650000000e-02	1.340085886e-01	-1.267902130e-04	1.333114793e-11
-2.660000000e-02	1.340085855e-01	-1.254295236e-04	1.324307871e-11
-2.670000000e-02	1.340085823e-01	-1.240688342e-04	1.915288311e-11
-2.680000000e-02	1.340085791e-01	-1.227081450e-04	1.341187364e-11
-2.690000000e-02	1.340085758e-01	-1.213474559e-04	1.304194645e-11
-2.700000000e-02	1.340085725e-01	-1.199867668e-04	1.423343605e-11
-2.710000000e-02	1.340085692e-01	-1.186260779e-04	1.027270897e-11
-2.720000000e-02	1.340085658e-01	-1.172653890e-04	1.298081416e-11
-2.730000000e-02	1.340085624e-01	-1.159047002e-04	7.906702629e-12
-2.740000000e-02	1.340085589e-01	-1.145440116e-04	6.343631391e-12
-2.750000000e-02	1.340085554e-01	-1.131833230e-04	8.535808924e-12
-2.760000000e-02	1.340085519e-01	-1.118226345e-04	2.672599596e-11
-2.770000000e-02	1.340085483e-01	-1.104619462e-04	1.667163876e-11
-2.780000000e-02	1.340085447e-01	-1.091012579e-04	1.075505808e-11
-2.790000000e-02	1.340085410e-01	-1.077405698e-04	1.147517975e-11
-2.800000000e-02	1.340085373e-01	-1.063798818e-04	1.831908240e-11
-2.810000000e-02	1.340085336e-01	-1.050191938e-04	8.135566901e-12
-2.820000000e-02	1.340085298e-01	-1.036585061e-04	1.056394769e-10
-2.830000000e-02	1.340085259e-01	-1.022978183e-04	6.819697371e-12
-2.840000000e-02	1.340085221e-01	-1.009371308e-04	1.132718257e-11
-2.850000000e-02	1.340085181e-01	-9.957644333e-05	5.066250425e-11
-2.860000000e-02	1.340085142e-01	-9.821575602e-05	1.856751519e-11
-2.870000000e-02	1.340085102e-01	-9.685506883e-05	4.199912264e-11
-2.880000000e-02	1.340085061e-01	-9.549438176e-05	8.582985197e-12
-2.890000000e-02	1.340085021e-01	-9.413369483e-05	2.820149334e-11
-2.900000000e-02	1.340084979e-01	-9.277300802e-05	6.804874041e-12
-2.910000000e-02	1.340084938e-01	-9.141232135e-05	9.409636834e-12
-2.920000000e-02	1.340084896e-01	-9.005163482e-05	1.030522770e-11
-2.930000000e-02	1.340084853e-01	-8.869094843e-05	1.242352174e-11
-2.940000000e-02	1.340084810e-01	-8.733026217e-05	8.654854245e-12
-2.950000000e-02	1.340084767e-01	-8.596957606e-05	1.597004042e-11
-2.960000000e-02	1.340084723e-01	-8.460889010e-05	5.146290368e-12
-2.970000000e-02	1.340084679e-01	-8.324820428e-05	7.362712778e-12
-2.980000000e-02	1.340084635e-01	-8.188751861e-05	1.477336560e-11
-2.990000000e-02	1.340084590e-01	-8.052683309e-05	1.120029720e-11
-3.000000000e-02	1.340084544e-01	-7.916614773e-05	9.778912397e-12
