# Im(epsi1)     Re(omega/c)      Im(omega/c)      Eq(det).Opt det CON kz, R=0.5 \mum, mu_c=0.3, Re(epsi1)=3.90solve_det_conkz_vs_kz.py
0.000000000e+00	1.340120558e-01	-5.066181204e-04	2.412282749e-11
-1.000000000e-04	1.340120642e-01	-5.052580619e-04	1.795794308e-11
-2.000000000e-04	1.340120726e-01	-5.038980030e-04	7.664764612e-12
-3.000000000e-04	1.340120809e-01	-5.025379436e-04	6.683552166e-12
-4.000000000e-04	1.340120892e-01	-5.011778836e-04	1.529367303e-11
-5.000000000e-04	1.340120975e-01	-4.998178232e-04	2.635815845e-11
-6.000000000e-04	1.340121057e-01	-4.984577623e-04	9.562589659e-12
-7.000000000e-04	1.340121138e-01	-4.970977009e-04	4.766509125e-11
-8.000000000e-04	1.340121219e-01	-4.957376390e-04	9.323723678e-12
-9.000000000e-04	1.340121300e-01	-4.943775766e-04	2.424459784e-11
-1.000000000e-03	1.340121381e-01	-4.930175138e-04	4.410874543e-11
-1.100000000e-03	1.340121461e-01	-4.916574504e-04	1.551272520e-11
-1.200000000e-03	1.340121540e-01	-4.902973866e-04	7.783544896e-12
-1.300000000e-03	1.340121619e-01	-4.889373223e-04	1.072115949e-11
-1.400000000e-03	1.340121698e-01	-4.875772576e-04	1.608187087e-11
-1.500000000e-03	1.340121776e-01	-4.862171923e-04	4.819453891e-11
-1.600000000e-03	1.340121854e-01	-4.848571266e-04	7.388054645e-12
-1.700000000e-03	1.340121932e-01	-4.834970605e-04	1.026576290e-11
-1.800000000e-03	1.340122009e-01	-4.821369938e-04	1.825931263e-11
-1.900000000e-03	1.340122085e-01	-4.807769267e-04	2.227050010e-11
-2.000000000e-03	1.340122161e-01	-4.794168592e-04	5.650534364e-12
-2.100000000e-03	1.340122237e-01	-4.780567912e-04	1.534361528e-11
-2.200000000e-03	1.340122313e-01	-4.766967227e-04	2.210265550e-11
-2.300000000e-03	1.340122388e-01	-4.753366538e-04	9.348670479e-11
-2.400000000e-03	1.340122462e-01	-4.739765844e-04	5.901959054e-12
-2.500000000e-03	1.340122536e-01	-4.726165145e-04	8.216201787e-12
-2.600000000e-03	1.340122610e-01	-4.712564443e-04	1.874037646e-11
-2.700000000e-03	1.340122684e-01	-4.698963735e-04	1.156433968e-11
-2.800000000e-03	1.340122756e-01	-4.685363024e-04	9.567648070e-12
-2.900000000e-03	1.340122829e-01	-4.671762307e-04	9.730137609e-12
-3.000000000e-03	1.340122901e-01	-4.658161587e-04	1.422345231e-11
-3.100000000e-03	1.340122973e-01	-4.644560862e-04	2.853226615e-11
-3.200000000e-03	1.340123044e-01	-4.630960133e-04	1.142550941e-11
-3.300000000e-03	1.340123115e-01	-4.617359399e-04	8.104307129e-12
-3.400000000e-03	1.340123185e-01	-4.603758661e-04	2.008774578e-11
-3.500000000e-03	1.340123255e-01	-4.590157919e-04	8.625876516e-11
-3.600000000e-03	1.340123325e-01	-4.576557172e-04	1.544567249e-11
-3.700000000e-03	1.340123394e-01	-4.562956422e-04	5.772625006e-12
-3.800000000e-03	1.340123463e-01	-4.549355667e-04	1.006296737e-11
-3.900000000e-03	1.340123531e-01	-4.535754908e-04	1.349458418e-11
-4.000000000e-03	1.340123599e-01	-4.522154144e-04	1.400134242e-11
-4.100000000e-03	1.340123667e-01	-4.508553377e-04	1.019055325e-11
-4.200000000e-03	1.340123734e-01	-4.494952605e-04	1.335300274e-11
-4.300000000e-03	1.340123801e-01	-4.481351829e-04	3.983328123e-11
-4.400000000e-03	1.340123867e-01	-4.467751049e-04	1.454874971e-11
-4.500000000e-03	1.340123933e-01	-4.454150265e-04	5.033923839e-12
-4.600000000e-03	1.340123999e-01	-4.440549477e-04	1.825853449e-10
-4.700000000e-03	1.340124064e-01	-4.426948685e-04	1.362827585e-11
-4.800000000e-03	1.340124128e-01	-4.413347888e-04	1.803363681e-11
-4.900000000e-03	1.340124193e-01	-4.399747088e-04	1.152729444e-11
-5.000000000e-03	1.340124256e-01	-4.386146284e-04	1.223004462e-11
-5.100000000e-03	1.340124320e-01	-4.372545476e-04	1.010078801e-11
-5.200000000e-03	1.340124383e-01	-4.358944664e-04	1.283833272e-11
-5.300000000e-03	1.340124445e-01	-4.345343848e-04	1.557816906e-11
-5.400000000e-03	1.340124508e-01	-4.331743028e-04	4.665778008e-12
-5.500000000e-03	1.340124569e-01	-4.318142204e-04	3.098859414e-11
-5.600000000e-03	1.340124631e-01	-4.304541376e-04	9.957222155e-12
-5.700000000e-03	1.340124692e-01	-4.290940545e-04	8.056390589e-12
-5.800000000e-03	1.340124752e-01	-4.277339710e-04	1.309010202e-11
-5.900000000e-03	1.340124812e-01	-4.263738871e-04	1.576319996e-11
-6.000000000e-03	1.340124872e-01	-4.250138028e-04	2.588827987e-11
-6.100000000e-03	1.340124931e-01	-4.236537181e-04	1.223941381e-11
-6.200000000e-03	1.340124990e-01	-4.222936331e-04	2.200760499e-11
-6.300000000e-03	1.340125049e-01	-4.209335477e-04	1.578152743e-11
-6.400000000e-03	1.340125107e-01	-4.195734619e-04	6.962639295e-12
-6.500000000e-03	1.340125164e-01	-4.182133757e-04	8.705357138e-12
-6.600000000e-03	1.340125222e-01	-4.168532892e-04	1.999853342e-11
-6.700000000e-03	1.340125279e-01	-4.154932023e-04	8.040652303e-12
-6.800000000e-03	1.340125335e-01	-4.141331151e-04	2.376839350e-11
-6.900000000e-03	1.340125391e-01	-4.127730275e-04	2.098902350e-11
-7.000000000e-03	1.340125447e-01	-4.114129396e-04	1.459539091e-11
-7.100000000e-03	1.340125502e-01	-4.100528513e-04	1.762347035e-11
-7.200000000e-03	1.340125556e-01	-4.086927626e-04	5.431294759e-12
-7.300000000e-03	1.340125611e-01	-4.073326736e-04	2.029423341e-11
-7.400000000e-03	1.340125665e-01	-4.059725842e-04	1.271925232e-11
-7.500000000e-03	1.340125718e-01	-4.046124945e-04	7.990222945e-12
-7.600000000e-03	1.340125771e-01	-4.032524045e-04	1.188403391e-11
-7.700000000e-03	1.340125824e-01	-4.018923141e-04	9.437581684e-12
-7.800000000e-03	1.340125876e-01	-4.005322234e-04	1.601799659e-11
-7.900000000e-03	1.340125928e-01	-3.991721323e-04	2.220908350e-11
-8.000000000e-03	1.340125980e-01	-3.978120409e-04	1.737784450e-11
-8.100000000e-03	1.340126031e-01	-3.964519492e-04	8.773233780e-12
-8.200000000e-03	1.340126081e-01	-3.950918571e-04	6.503545650e-11
-8.300000000e-03	1.340126132e-01	-3.937317647e-04	8.939848534e-11
-8.400000000e-03	1.340126181e-01	-3.923716720e-04	1.358035575e-11
-8.500000000e-03	1.340126231e-01	-3.910115789e-04	7.431915146e-12
-8.600000000e-03	1.340126280e-01	-3.896514856e-04	9.525482693e-12
-8.700000000e-03	1.340126328e-01	-3.882913919e-04	1.420186686e-11
-8.800000000e-03	1.340126376e-01	-3.869312978e-04	2.064809088e-11
-8.900000000e-03	1.340126424e-01	-3.855712035e-04	1.063256959e-11
-9.000000000e-03	1.340126471e-01	-3.842111089e-04	1.104498754e-11
-9.100000000e-03	1.340126518e-01	-3.828510139e-04	2.280885814e-11
-9.200000000e-03	1.340126565e-01	-3.814909186e-04	6.909343860e-12
-9.300000000e-03	1.340126611e-01	-3.801308231e-04	1.616339672e-11
-9.400000000e-03	1.340126657e-01	-3.787707272e-04	1.329248595e-11
-9.500000000e-03	1.340126702e-01	-3.774106310e-04	3.869878495e-11
-9.600000000e-03	1.340126747e-01	-3.760505345e-04	1.156452813e-11
-9.700000000e-03	1.340126791e-01	-3.746904377e-04	8.903539487e-12
-9.800000000e-03	1.340126835e-01	-3.733303406e-04	1.477263592e-11
-9.900000000e-03	1.340126879e-01	-3.719702432e-04	1.060681645e-11
-1.000000000e-02	1.340126922e-01	-3.706101455e-04	1.068405861e-11
-1.010000000e-02	1.340126965e-01	-3.692500475e-04	9.791940423e-12
-1.020000000e-02	1.340127007e-01	-3.678899493e-04	1.260876400e-11
-1.030000000e-02	1.340127049e-01	-3.665298507e-04	8.406707621e-12
-1.040000000e-02	1.340127091e-01	-3.651697519e-04	8.054679085e-12
-1.050000000e-02	1.340127132e-01	-3.638096528e-04	2.249167871e-11
-1.060000000e-02	1.340127173e-01	-3.624495534e-04	7.764936094e-12
-1.070000000e-02	1.340127213e-01	-3.610894537e-04	4.761197853e-11
-1.080000000e-02	1.340127253e-01	-3.597293537e-04	9.684536618e-12
-1.090000000e-02	1.340127292e-01	-3.583692535e-04	1.209737480e-11
-1.100000000e-02	1.340127331e-01	-3.570091530e-04	2.577356815e-11
-1.110000000e-02	1.340127370e-01	-3.556490522e-04	1.206217045e-11
-1.120000000e-02	1.340127408e-01	-3.542889511e-04	1.072743151e-11
-1.130000000e-02	1.340127446e-01	-3.529288498e-04	1.283901874e-11
-1.140000000e-02	1.340127483e-01	-3.515687482e-04	1.257610628e-11
-1.150000000e-02	1.340127520e-01	-3.502086464e-04	6.349123319e-12
-1.160000000e-02	1.340127557e-01	-3.488485443e-04	1.867015462e-11
-1.170000000e-02	1.340127593e-01	-3.474884419e-04	1.245160172e-11
-1.180000000e-02	1.340127629e-01	-3.461283393e-04	1.231808837e-11
-1.190000000e-02	1.340127664e-01	-3.447682364e-04	1.300759094e-11
-1.200000000e-02	1.340127699e-01	-3.434081333e-04	1.063530269e-11
-1.210000000e-02	1.340127734e-01	-3.420480299e-04	3.915154256e-11
-1.220000000e-02	1.340127768e-01	-3.406879263e-04	9.923824781e-12
-1.230000000e-02	1.340127802e-01	-3.393278224e-04	5.487026956e-11
-1.240000000e-02	1.340127835e-01	-3.379677183e-04	6.800931986e-12
-1.250000000e-02	1.340127868e-01	-3.366076139e-04	2.412144693e-11
-1.260000000e-02	1.340127900e-01	-3.352475093e-04	5.134656358e-11
-1.270000000e-02	1.340127932e-01	-3.338874045e-04	2.553730053e-11
-1.280000000e-02	1.340127964e-01	-3.325272994e-04	1.888276908e-11
-1.290000000e-02	1.340127995e-01	-3.311671941e-04	1.725031340e-11
-1.300000000e-02	1.340128026e-01	-3.298070885e-04	7.329463914e-12
-1.310000000e-02	1.340128056e-01	-3.284469828e-04	7.744748210e-11
-1.320000000e-02	1.340128086e-01	-3.270868768e-04	1.437764591e-11
-1.330000000e-02	1.340128116e-01	-3.257267705e-04	1.805601666e-11
-1.340000000e-02	1.340128145e-01	-3.243666641e-04	3.508368427e-11
-1.350000000e-02	1.340128174e-01	-3.230065574e-04	1.572450936e-11
-1.360000000e-02	1.340128202e-01	-3.216464505e-04	2.752734915e-11
-1.370000000e-02	1.340128230e-01	-3.202863434e-04	1.084621699e-11
-1.380000000e-02	1.340128257e-01	-3.189262361e-04	1.038859145e-10
-1.390000000e-02	1.340128285e-01	-3.175661286e-04	1.563825432e-11
-1.400000000e-02	1.340128311e-01	-3.162060208e-04	2.735783326e-11
-1.410000000e-02	1.340128337e-01	-3.148459129e-04	2.253899501e-11
-1.420000000e-02	1.340128363e-01	-3.134858047e-04	1.787780919e-11
-1.430000000e-02	1.340128389e-01	-3.121256963e-04	1.105646054e-11
-1.440000000e-02	1.340128414e-01	-3.107655878e-04	2.367663265e-11
-1.450000000e-02	1.340128438e-01	-3.094054790e-04	1.004744417e-11
-1.460000000e-02	1.340128463e-01	-3.080453700e-04	1.127951021e-11
-1.470000000e-02	1.340128486e-01	-3.066852609e-04	1.807327553e-11
-1.480000000e-02	1.340128510e-01	-3.053251515e-04	1.215016435e-11
-1.490000000e-02	1.340128533e-01	-3.039650420e-04	9.140834969e-12
-1.500000000e-02	1.340128555e-01	-3.026049322e-04	9.825073846e-12
-1.510000000e-02	1.340128577e-01	-3.012448223e-04	1.761206447e-11
-1.520000000e-02	1.340128599e-01	-2.998847122e-04	1.093365683e-11
-1.530000000e-02	1.340128620e-01	-2.985246019e-04	1.570888646e-11
-1.540000000e-02	1.340128641e-01	-2.971644914e-04	6.481196707e-12
-1.550000000e-02	1.340128662e-01	-2.958043808e-04	1.719741935e-11
-1.560000000e-02	1.340128682e-01	-2.944442699e-04	1.612002868e-11
-1.570000000e-02	1.340128702e-01	-2.930841589e-04	7.025020349e-12
-1.580000000e-02	1.340128721e-01	-2.917240477e-04	1.088268877e-11
-1.590000000e-02	1.340128740e-01	-2.903639364e-04	1.688714778e-11
-1.600000000e-02	1.340128758e-01	-2.890038249e-04	1.019264045e-11
-1.610000000e-02	1.340128776e-01	-2.876437132e-04	1.001589032e-11
-1.620000000e-02	1.340128794e-01	-2.862836013e-04	1.176098164e-11
-1.630000000e-02	1.340128811e-01	-2.849234893e-04	9.647975081e-12
-1.640000000e-02	1.340128828e-01	-2.835633771e-04	2.556337876e-11
-1.650000000e-02	1.340128844e-01	-2.822032648e-04	9.437618276e-12
-1.660000000e-02	1.340128860e-01	-2.808431523e-04	1.039561937e-11
-1.670000000e-02	1.340128875e-01	-2.794830396e-04	2.612261737e-11
-1.680000000e-02	1.340128891e-01	-2.781229268e-04	1.795998217e-11
-1.690000000e-02	1.340128905e-01	-2.767628139e-04	1.751189078e-11
-1.700000000e-02	1.340128920e-01	-2.754027008e-04	1.471182435e-11
-1.710000000e-02	1.340128933e-01	-2.740425875e-04	9.502000219e-12
-1.720000000e-02	1.340128947e-01	-2.726824741e-04	1.850453869e-11
-1.730000000e-02	1.340128960e-01	-2.713223606e-04	7.921131812e-12
-1.740000000e-02	1.340128973e-01	-2.699622469e-04	7.955000368e-12
-1.750000000e-02	1.340128985e-01	-2.686021331e-04	7.405043241e-11
-1.760000000e-02	1.340128997e-01	-2.672420192e-04	1.188064376e-11
-1.770000000e-02	1.340129008e-01	-2.658819051e-04	9.222457763e-12
-1.780000000e-02	1.340129019e-01	-2.645217909e-04	1.807643930e-11
-1.790000000e-02	1.340129030e-01	-2.631616765e-04	1.403819885e-11
-1.800000000e-02	1.340129040e-01	-2.618015621e-04	1.139256584e-11
-1.810000000e-02	1.340129049e-01	-2.604414475e-04	3.887466662e-11
-1.820000000e-02	1.340129059e-01	-2.590813328e-04	2.092974703e-11
-1.830000000e-02	1.340129068e-01	-2.577212179e-04	5.435139989e-11
-1.840000000e-02	1.340129076e-01	-2.563611030e-04	1.608488951e-11
-1.850000000e-02	1.340129084e-01	-2.550009879e-04	2.205594803e-11
-1.860000000e-02	1.340129092e-01	-2.536408727e-04	1.582304082e-11
-1.870000000e-02	1.340129099e-01	-2.522807574e-04	1.903390163e-11
-1.880000000e-02	1.340129106e-01	-2.509206420e-04	9.874323849e-11
-1.890000000e-02	1.340129113e-01	-2.495605264e-04	1.339038861e-11
-1.900000000e-02	1.340129119e-01	-2.482004108e-04	8.719099116e-12
-1.910000000e-02	1.340129124e-01	-2.468402951e-04	7.589874412e-12
-1.920000000e-02	1.340129129e-01	-2.454801792e-04	1.014849116e-11
-1.930000000e-02	1.340129134e-01	-2.441200633e-04	1.039880362e-11
-1.940000000e-02	1.340129139e-01	-2.427599473e-04	1.666752089e-11
-1.950000000e-02	1.340129143e-01	-2.413998311e-04	9.381164907e-12
-1.960000000e-02	1.340129146e-01	-2.400397149e-04	8.333484259e-12
-1.970000000e-02	1.340129149e-01	-2.386795986e-04	1.564421498e-11
-1.980000000e-02	1.340129152e-01	-2.373194822e-04	4.595739519e-11
-1.990000000e-02	1.340129154e-01	-2.359593657e-04	1.786503230e-11
-2.000000000e-02	1.340129156e-01	-2.345992491e-04	2.276592884e-11
-2.010000000e-02	1.340129158e-01	-2.332391324e-04	1.994768889e-11
-2.020000000e-02	1.340129159e-01	-2.318790157e-04	4.317531118e-11
-2.030000000e-02	1.340129159e-01	-2.305188989e-04	2.682616617e-11
-2.040000000e-02	1.340129160e-01	-2.291587820e-04	9.951473031e-12
-2.050000000e-02	1.340129159e-01	-2.277986650e-04	1.809019365e-11
-2.060000000e-02	1.340129159e-01	-2.264385479e-04	1.197639286e-11
-2.070000000e-02	1.340129158e-01	-2.250784308e-04	1.059408982e-11
-2.080000000e-02	1.340129156e-01	-2.237183136e-04	1.346918876e-11
-2.090000000e-02	1.340129155e-01	-2.223581964e-04	1.116167427e-11
-2.100000000e-02	1.340129152e-01	-2.209980790e-04	2.909070752e-11
-2.110000000e-02	1.340129150e-01	-2.196379616e-04	9.002238990e-11
-2.120000000e-02	1.340129147e-01	-2.182778442e-04	1.600546248e-11
-2.130000000e-02	1.340129143e-01	-2.169177267e-04	2.337899295e-11
-2.140000000e-02	1.340129139e-01	-2.155576091e-04	1.880810532e-11
-2.150000000e-02	1.340129135e-01	-2.141974915e-04	7.644926122e-12
-2.160000000e-02	1.340129130e-01	-2.128373738e-04	1.715921728e-11
-2.170000000e-02	1.340129125e-01	-2.114772561e-04	9.910584309e-12
-2.180000000e-02	1.340129120e-01	-2.101171383e-04	6.846075728e-12
-2.190000000e-02	1.340129114e-01	-2.087570205e-04	1.707075798e-11
-2.200000000e-02	1.340129107e-01	-2.073969027e-04	2.341148299e-11
-2.210000000e-02	1.340129101e-01	-2.060367848e-04	1.596800192e-11
-2.220000000e-02	1.340129093e-01	-2.046766668e-04	1.867172157e-11
-2.230000000e-02	1.340129086e-01	-2.033165488e-04	8.648916671e-12
-2.240000000e-02	1.340129078e-01	-2.019564308e-04	1.387375643e-11
-2.250000000e-02	1.340129069e-01	-2.005963128e-04	1.223405001e-11
-2.260000000e-02	1.340129061e-01	-1.992361947e-04	1.424238902e-11
-2.270000000e-02	1.340129051e-01	-1.978760766e-04	8.966171581e-12
-2.280000000e-02	1.340129042e-01	-1.965159584e-04	1.560505758e-11
-2.290000000e-02	1.340129032e-01	-1.951558403e-04	3.179615214e-11
-2.300000000e-02	1.340129021e-01	-1.937957221e-04	1.046022743e-11
-2.310000000e-02	1.340129010e-01	-1.924356039e-04	2.945139697e-11
-2.320000000e-02	1.340128999e-01	-1.910754857e-04	9.728362117e-12
-2.330000000e-02	1.340128987e-01	-1.897153674e-04	1.102587987e-11
-2.340000000e-02	1.340128975e-01	-1.883552492e-04	1.159414928e-11
-2.350000000e-02	1.340128962e-01	-1.869951309e-04	1.677143296e-11
-2.360000000e-02	1.340128949e-01	-1.856350126e-04	8.675456815e-12
-2.370000000e-02	1.340128936e-01	-1.842748944e-04	2.434382671e-10
-2.380000000e-02	1.340128922e-01	-1.829147760e-04	8.147108611e-12
-2.390000000e-02	1.340128908e-01	-1.815546577e-04	2.227514249e-10
-2.400000000e-02	1.340128893e-01	-1.801945394e-04	8.520849735e-12
-2.410000000e-02	1.340128878e-01	-1.788344211e-04	1.151809805e-11
-2.420000000e-02	1.340128863e-01	-1.774743028e-04	1.009859750e-11
-2.430000000e-02	1.340128847e-01	-1.761141845e-04	1.899430006e-11
-2.440000000e-02	1.340128831e-01	-1.747540662e-04	1.998494976e-11
-2.450000000e-02	1.340128814e-01	-1.733939479e-04	3.433234694e-11
-2.460000000e-02	1.340128797e-01	-1.720338296e-04	1.135912970e-11
-2.470000000e-02	1.340128780e-01	-1.706737114e-04	1.158572374e-11
-2.480000000e-02	1.340128762e-01	-1.693135931e-04	2.295521953e-11
-2.490000000e-02	1.340128743e-01	-1.679534749e-04	2.719805500e-11
-2.500000000e-02	1.340128725e-01	-1.665933567e-04	8.856546865e-12
-2.510000000e-02	1.340128705e-01	-1.652332385e-04	5.636077550e-11
-2.520000000e-02	1.340128686e-01	-1.638731203e-04	8.138633271e-12
-2.530000000e-02	1.340128666e-01	-1.625130022e-04	7.544320572e-12
-2.540000000e-02	1.340128645e-01	-1.611528841e-04	1.909479347e-11
-2.550000000e-02	1.340128625e-01	-1.597927660e-04	8.836575157e-12
-2.560000000e-02	1.340128603e-01	-1.584326479e-04	3.326640329e-11
-2.570000000e-02	1.340128582e-01	-1.570725299e-04	2.350251698e-11
-2.580000000e-02	1.340128560e-01	-1.557124119e-04	8.335847906e-12
-2.590000000e-02	1.340128537e-01	-1.543522939e-04	7.360646063e-12
-2.600000000e-02	1.340128514e-01	-1.529921760e-04	1.368986032e-11
-2.610000000e-02	1.340128491e-01	-1.516320581e-04	1.645866786e-11
-2.620000000e-02	1.340128467e-01	-1.502719403e-04	9.979916340e-12
-2.630000000e-02	1.340128443e-01	-1.489118225e-04	1.100574534e-11
-2.640000000e-02	1.340128419e-01	-1.475517048e-04	1.731978753e-11
-2.650000000e-02	1.340128394e-01	-1.461915871e-04	1.558220346e-11
-2.660000000e-02	1.340128368e-01	-1.448314695e-04	2.262204822e-11
-2.670000000e-02	1.340128343e-01	-1.434713519e-04	1.505541587e-11
-2.680000000e-02	1.340128316e-01	-1.421112344e-04	2.611195554e-11
-2.690000000e-02	1.340128290e-01	-1.407511169e-04	1.587382396e-11
-2.700000000e-02	1.340128263e-01	-1.393909995e-04	1.191875975e-11
-2.710000000e-02	1.340128235e-01	-1.380308821e-04	8.487612485e-12
-2.720000000e-02	1.340128208e-01	-1.366707649e-04	1.567769766e-11
-2.730000000e-02	1.340128179e-01	-1.353106476e-04	1.223989224e-11
-2.740000000e-02	1.340128151e-01	-1.339505305e-04	8.282766652e-12
-2.750000000e-02	1.340128122e-01	-1.325904134e-04	7.175948132e-11
-2.760000000e-02	1.340128092e-01	-1.312302964e-04	2.045678873e-11
-2.770000000e-02	1.340128062e-01	-1.298701795e-04	1.289028200e-11
-2.780000000e-02	1.340128032e-01	-1.285100626e-04	5.802416015e-12
-2.790000000e-02	1.340128001e-01	-1.271499459e-04	4.782663948e-11
-2.800000000e-02	1.340127970e-01	-1.257898292e-04	1.355415663e-11
-2.810000000e-02	1.340127939e-01	-1.244297126e-04	1.200201410e-11
-2.820000000e-02	1.340127907e-01	-1.230695960e-04	3.092129074e-11
-2.830000000e-02	1.340127874e-01	-1.217094796e-04	6.201784553e-12
-2.840000000e-02	1.340127841e-01	-1.203493633e-04	4.211762599e-11
-2.850000000e-02	1.340127808e-01	-1.189892470e-04	5.075049204e-11
-2.860000000e-02	1.340127775e-01	-1.176291308e-04	9.143902406e-12
-2.870000000e-02	1.340127741e-01	-1.162690148e-04	1.087645045e-11
-2.880000000e-02	1.340127706e-01	-1.149088988e-04	2.926677989e-11
-2.890000000e-02	1.340127671e-01	-1.135487829e-04	1.000644528e-11
-2.900000000e-02	1.340127636e-01	-1.121886672e-04	2.263339640e-11
-2.910000000e-02	1.340127600e-01	-1.108285515e-04	1.249446255e-11
-2.920000000e-02	1.340127564e-01	-1.094684359e-04	1.841226381e-11
-2.930000000e-02	1.340127528e-01	-1.081083205e-04	8.611192447e-11
-2.940000000e-02	1.340127491e-01	-1.067482052e-04	8.311223204e-12
-2.950000000e-02	1.340127453e-01	-1.053880899e-04	1.399928108e-11
-2.960000000e-02	1.340127416e-01	-1.040279748e-04	3.126451917e-11
-2.970000000e-02	1.340127378e-01	-1.026678598e-04	1.878565682e-11
-2.980000000e-02	1.340127339e-01	-1.013077449e-04	3.062987569e-11
-2.990000000e-02	1.340127300e-01	-9.994763019e-05	4.903227026e-11
-3.000000000e-02	1.340127261e-01	-9.858751555e-05	1.234719637e-11
