# Im(epsi1)     Re(omega/c)      Im(omega/c)      Eq(det).Opt det CON kz, R=0.5 \mum, mu_c=0.3, Re(epsi1)=3.90solve_det_conkz_vs_kz.py
0.000000000e+00	1.340121772e-01	-5.097129610e-04	2.299329179e-11
-1.000000000e-04	1.340121857e-01	-5.083529955e-04	2.361026292e-11
-2.000000000e-04	1.340121942e-01	-5.069930294e-04	1.399242343e-11
-3.000000000e-04	1.340122026e-01	-5.056330629e-04	2.674765214e-11
-4.000000000e-04	1.340122110e-01	-5.042730959e-04	8.720931034e-12
-5.000000000e-04	1.340122193e-01	-5.029131284e-04	3.360600609e-11
-6.000000000e-04	1.340122276e-01	-5.015531604e-04	1.052722926e-11
-7.000000000e-04	1.340122359e-01	-5.001931919e-04	2.359178349e-11
-8.000000000e-04	1.340122441e-01	-4.988332229e-04	6.187419685e-12
-9.000000000e-04	1.340122522e-01	-4.974732534e-04	1.060202663e-11
-1.000000000e-03	1.340122604e-01	-4.961132835e-04	1.157622199e-11
-1.100000000e-03	1.340122685e-01	-4.947533130e-04	9.223071177e-12
-1.200000000e-03	1.340122765e-01	-4.933933421e-04	1.009925934e-11
-1.300000000e-03	1.340122845e-01	-4.920333707e-04	1.212118269e-11
-1.400000000e-03	1.340122925e-01	-4.906733988e-04	1.766615692e-11
-1.500000000e-03	1.340123004e-01	-4.893134264e-04	3.308311233e-11
-1.600000000e-03	1.340123083e-01	-4.879534536e-04	1.547236236e-11
-1.700000000e-03	1.340123161e-01	-4.865934803e-04	1.060619379e-11
-1.800000000e-03	1.340123239e-01	-4.852335065e-04	7.257016147e-12
-1.900000000e-03	1.340123317e-01	-4.838735322e-04	1.315492397e-11
-2.000000000e-03	1.340123394e-01	-4.825135575e-04	1.189031940e-11
-2.100000000e-03	1.340123471e-01	-4.811535823e-04	2.411099724e-11
-2.200000000e-03	1.340123547e-01	-4.797936067e-04	1.152916440e-11
-2.300000000e-03	1.340123623e-01	-4.784336306e-04	1.163374002e-11
-2.400000000e-03	1.340123699e-01	-4.770736540e-04	1.293475286e-11
-2.500000000e-03	1.340123774e-01	-4.757136770e-04	6.434514036e-12
-2.600000000e-03	1.340123848e-01	-4.743536995e-04	5.196487405e-11
-2.700000000e-03	1.340123923e-01	-4.729937216e-04	3.160106642e-11
-2.800000000e-03	1.340123997e-01	-4.716337433e-04	7.568236516e-12
-2.900000000e-03	1.340124070e-01	-4.702737644e-04	1.432046878e-11
-3.000000000e-03	1.340124143e-01	-4.689137852e-04	1.087979825e-11
-3.100000000e-03	1.340124216e-01	-4.675538055e-04	1.258453691e-11
-3.200000000e-03	1.340124288e-01	-4.661938253e-04	1.509326646e-11
-3.300000000e-03	1.340124360e-01	-4.648338448e-04	3.512405111e-11
-3.400000000e-03	1.340124431e-01	-4.634738637e-04	2.362023420e-11
-3.500000000e-03	1.340124502e-01	-4.621138823e-04	1.680965496e-11
-3.600000000e-03	1.340124573e-01	-4.607539004e-04	4.673298741e-11
-3.700000000e-03	1.340124643e-01	-4.593939181e-04	6.895169658e-12
-3.800000000e-03	1.340124713e-01	-4.580339353e-04	1.608313030e-11
-3.900000000e-03	1.340124782e-01	-4.566739522e-04	1.729717164e-11
-4.000000000e-03	1.340124851e-01	-4.553139686e-04	2.232117771e-11
-4.100000000e-03	1.340124919e-01	-4.539539846e-04	1.867222084e-11
-4.200000000e-03	1.340124987e-01	-4.525940001e-04	6.377336764e-12
-4.300000000e-03	1.340125055e-01	-4.512340153e-04	2.152798413e-11
-4.400000000e-03	1.340125122e-01	-4.498740300e-04	1.780672529e-11
-4.500000000e-03	1.340125189e-01	-4.485140443e-04	2.359850392e-11
-4.600000000e-03	1.340125256e-01	-4.471540582e-04	2.405696982e-11
-4.700000000e-03	1.340125322e-01	-4.457940717e-04	1.818566937e-11
-4.800000000e-03	1.340125387e-01	-4.444340848e-04	2.076881097e-11
-4.900000000e-03	1.340125452e-01	-4.430740975e-04	8.481620416e-12
-5.000000000e-03	1.340125517e-01	-4.417141098e-04	1.531866616e-11
-5.100000000e-03	1.340125582e-01	-4.403541216e-04	9.267110197e-12
-5.200000000e-03	1.340125646e-01	-4.389941331e-04	9.126356943e-12
-5.300000000e-03	1.340125709e-01	-4.376341442e-04	9.097538126e-12
-5.400000000e-03	1.340125772e-01	-4.362741549e-04	8.141519714e-12
-5.500000000e-03	1.340125835e-01	-4.349141652e-04	7.088020159e-12
-5.600000000e-03	1.340125897e-01	-4.335541751e-04	2.338631943e-11
-5.700000000e-03	1.340125959e-01	-4.321941846e-04	9.020521604e-12
-5.800000000e-03	1.340126021e-01	-4.308341937e-04	1.427977541e-11
-5.900000000e-03	1.340126082e-01	-4.294742025e-04	9.699159472e-12
-6.000000000e-03	1.340126142e-01	-4.281142108e-04	9.642905167e-12
-6.100000000e-03	1.340126203e-01	-4.267542188e-04	1.217933538e-11
-6.200000000e-03	1.340126262e-01	-4.253942264e-04	3.151995663e-11
-6.300000000e-03	1.340126322e-01	-4.240342337e-04	8.223074435e-12
-6.400000000e-03	1.340126381e-01	-4.226742405e-04	2.395594646e-11
-6.500000000e-03	1.340126439e-01	-4.213142470e-04	6.836919540e-12
-6.600000000e-03	1.340126498e-01	-4.199542531e-04	1.130160061e-11
-6.700000000e-03	1.340126555e-01	-4.185942589e-04	1.163131156e-11
-6.800000000e-03	1.340126613e-01	-4.172342642e-04	1.302353716e-11
-6.900000000e-03	1.340126670e-01	-4.158742692e-04	1.641960920e-11
-7.000000000e-03	1.340126726e-01	-4.145142739e-04	8.985123786e-12
-7.100000000e-03	1.340126782e-01	-4.131542782e-04	1.050295207e-11
-7.200000000e-03	1.340126838e-01	-4.117942821e-04	2.324767049e-11
-7.300000000e-03	1.340126893e-01	-4.104342857e-04	2.886364148e-11
-7.400000000e-03	1.340126948e-01	-4.090742889e-04	2.281398039e-11
-7.500000000e-03	1.340127003e-01	-4.077142918e-04	7.282661193e-12
-7.600000000e-03	1.340127057e-01	-4.063542943e-04	1.706968519e-11
-7.700000000e-03	1.340127110e-01	-4.049942965e-04	1.301230133e-11
-7.800000000e-03	1.340127164e-01	-4.036342984e-04	1.213994174e-11
-7.900000000e-03	1.340127216e-01	-4.022742998e-04	6.504521695e-12
-8.000000000e-03	1.340127269e-01	-4.009143010e-04	1.067648477e-11
-8.100000000e-03	1.340127321e-01	-3.995543018e-04	9.337988314e-12
-8.200000000e-03	1.340127372e-01	-3.981943023e-04	5.553831379e-12
-8.300000000e-03	1.340127423e-01	-3.968343024e-04	8.944911288e-12
-8.400000000e-03	1.340127474e-01	-3.954743022e-04	7.754806820e-12
-8.500000000e-03	1.340127525e-01	-3.941143017e-04	2.253726542e-11
-8.600000000e-03	1.340127574e-01	-3.927543009e-04	1.993138448e-11
-8.700000000e-03	1.340127624e-01	-3.913942997e-04	4.884980322e-12
-8.800000000e-03	1.340127673e-01	-3.900342982e-04	1.111810820e-11
-8.900000000e-03	1.340127722e-01	-3.886742964e-04	4.228759966e-11
-9.000000000e-03	1.340127770e-01	-3.873142942e-04	1.173145642e-11
-9.100000000e-03	1.340127818e-01	-3.859542918e-04	1.103683591e-11
-9.200000000e-03	1.340127865e-01	-3.845942890e-04	5.437030462e-12
-9.300000000e-03	1.340127912e-01	-3.832342859e-04	1.353551873e-11
-9.400000000e-03	1.340127959e-01	-3.818742825e-04	8.437113908e-12
-9.500000000e-03	1.340128005e-01	-3.805142788e-04	1.601201076e-11
-9.600000000e-03	1.340128051e-01	-3.791542748e-04	6.616051469e-12
-9.700000000e-03	1.340128096e-01	-3.777942705e-04	1.381006659e-11
-9.800000000e-03	1.340128141e-01	-3.764342658e-04	1.067640997e-11
-9.900000000e-03	1.340128186e-01	-3.750742609e-04	1.374700344e-11
-1.000000000e-02	1.340128230e-01	-3.737142557e-04	4.235440814e-11
-1.010000000e-02	1.340128274e-01	-3.723542502e-04	1.255519598e-11
-1.020000000e-02	1.340128317e-01	-3.709942444e-04	1.583359310e-11
-1.030000000e-02	1.340128360e-01	-3.696342382e-04	3.114122550e-11
-1.040000000e-02	1.340128402e-01	-3.682742318e-04	1.266561695e-11
-1.050000000e-02	1.340128445e-01	-3.669142252e-04	1.214281689e-11
-1.060000000e-02	1.340128486e-01	-3.655542182e-04	2.995133712e-11
-1.070000000e-02	1.340128527e-01	-3.641942109e-04	6.383430982e-12
-1.080000000e-02	1.340128568e-01	-3.628342034e-04	1.094988424e-11
-1.090000000e-02	1.340128609e-01	-3.614741956e-04	1.051587643e-11
-1.100000000e-02	1.340128649e-01	-3.601141875e-04	1.324823340e-11
-1.110000000e-02	1.340128688e-01	-3.587541791e-04	1.158219016e-11
-1.120000000e-02	1.340128727e-01	-3.573941704e-04	1.222873211e-11
-1.130000000e-02	1.340128766e-01	-3.560341615e-04	1.041072938e-11
-1.140000000e-02	1.340128805e-01	-3.546741523e-04	2.807974763e-11
-1.150000000e-02	1.340128843e-01	-3.533141429e-04	2.936008294e-11
-1.160000000e-02	1.340128880e-01	-3.519541331e-04	7.865388086e-12
-1.170000000e-02	1.340128917e-01	-3.505941231e-04	1.285909912e-11
-1.180000000e-02	1.340128954e-01	-3.492341129e-04	2.178112984e-11
-1.190000000e-02	1.340128990e-01	-3.478741024e-04	2.110382787e-11
-1.200000000e-02	1.340129026e-01	-3.465140916e-04	9.917139687e-12
-1.210000000e-02	1.340129062e-01	-3.451540806e-04	8.962105054e-12
-1.220000000e-02	1.340129097e-01	-3.437940693e-04	8.224405595e-12
-1.230000000e-02	1.340129131e-01	-3.424340578e-04	7.156292323e-12
-1.240000000e-02	1.340129166e-01	-3.410740460e-04	9.963037862e-12
-1.250000000e-02	1.340129199e-01	-3.397140340e-04	6.100625751e-12
-1.260000000e-02	1.340129233e-01	-3.383540217e-04	8.498195304e-12
-1.270000000e-02	1.340129266e-01	-3.369940092e-04	8.843922915e-11
-1.280000000e-02	1.340129298e-01	-3.356339965e-04	1.050883733e-11
-1.290000000e-02	1.340129330e-01	-3.342739835e-04	1.969915526e-11
-1.300000000e-02	1.340129362e-01	-3.329139702e-04	5.828093622e-11
-1.310000000e-02	1.340129394e-01	-3.315539568e-04	1.483321255e-11
-1.320000000e-02	1.340129425e-01	-3.301939431e-04	9.015371548e-12
-1.330000000e-02	1.340129455e-01	-3.288339292e-04	1.232688870e-11
-1.340000000e-02	1.340129485e-01	-3.274739150e-04	9.015163268e-11
-1.350000000e-02	1.340129515e-01	-3.261139006e-04	2.424116506e-11
-1.360000000e-02	1.340129544e-01	-3.247538860e-04	1.633946984e-11
-1.370000000e-02	1.340129573e-01	-3.233938712e-04	1.081705517e-11
-1.380000000e-02	1.340129601e-01	-3.220338562e-04	7.526515397e-12
-1.390000000e-02	1.340129629e-01	-3.206738409e-04	4.134548253e-11
-1.400000000e-02	1.340129657e-01	-3.193138254e-04	4.925685601e-12
-1.410000000e-02	1.340129684e-01	-3.179538097e-04	6.752253397e-12
-1.420000000e-02	1.340129711e-01	-3.165937938e-04	2.642834003e-11
-1.430000000e-02	1.340129737e-01	-3.152337777e-04	1.137852079e-11
-1.440000000e-02	1.340129763e-01	-3.138737614e-04	2.636855197e-11
-1.450000000e-02	1.340129789e-01	-3.125137449e-04	1.644998388e-11
-1.460000000e-02	1.340129814e-01	-3.111537281e-04	9.229836141e-12
-1.470000000e-02	1.340129839e-01	-3.097937112e-04	1.282059109e-11
-1.480000000e-02	1.340129863e-01	-3.084336941e-04	1.285721418e-11
-1.490000000e-02	1.340129887e-01	-3.070736768e-04	5.047701375e-11
-1.500000000e-02	1.340129911e-01	-3.057136592e-04	9.250218022e-12
-1.510000000e-02	1.340129934e-01	-3.043536415e-04	1.689931615e-11
-1.520000000e-02	1.340129956e-01	-3.029936236e-04	1.789358031e-11
-1.530000000e-02	1.340129979e-01	-3.016336055e-04	8.259950119e-12
-1.540000000e-02	1.340130000e-01	-3.002735873e-04	1.093358185e-11
-1.550000000e-02	1.340130022e-01	-2.989135688e-04	2.032270087e-11
-1.560000000e-02	1.340130043e-01	-2.975535501e-04	1.588580477e-11
-1.570000000e-02	1.340130063e-01	-2.961935313e-04	1.572711800e-11
-1.580000000e-02	1.340130084e-01	-2.948335123e-04	1.657738015e-11
-1.590000000e-02	1.340130103e-01	-2.934734931e-04	2.451549853e-11
-1.600000000e-02	1.340130123e-01	-2.921134738e-04	7.471078007e-12
-1.610000000e-02	1.340130142e-01	-2.907534543e-04	2.401184234e-11
-1.620000000e-02	1.340130160e-01	-2.893934346e-04	1.597636874e-11
-1.630000000e-02	1.340130178e-01	-2.880334147e-04	9.433147571e-12
-1.640000000e-02	1.340130196e-01	-2.866733947e-04	2.030756204e-11
-1.650000000e-02	1.340130213e-01	-2.853133745e-04	1.273674481e-11
-1.660000000e-02	1.340130230e-01	-2.839533541e-04	3.731723556e-11
-1.670000000e-02	1.340130247e-01	-2.825933336e-04	1.003979325e-11
-1.680000000e-02	1.340130263e-01	-2.812333129e-04	5.830760808e-11
-1.690000000e-02	1.340130279e-01	-2.798732921e-04	2.833041332e-11
-1.700000000e-02	1.340130294e-01	-2.785132711e-04	7.536729042e-12
-1.710000000e-02	1.340130309e-01	-2.771532500e-04	1.629894369e-11
-1.720000000e-02	1.340130323e-01	-2.757932287e-04	1.258821665e-11
-1.730000000e-02	1.340130337e-01	-2.744332073e-04	9.118789438e-12
-1.740000000e-02	1.340130351e-01	-2.730731857e-04	6.970593603e-12
-1.750000000e-02	1.340130364e-01	-2.717131640e-04	2.426343968e-11
-1.760000000e-02	1.340130377e-01	-2.703531422e-04	1.858712288e-11
-1.770000000e-02	1.340130389e-01	-2.689931202e-04	1.093238433e-11
-1.780000000e-02	1.340130401e-01	-2.676330980e-04	6.387169171e-12
-1.790000000e-02	1.340130412e-01	-2.662730758e-04	1.095812936e-11
-1.800000000e-02	1.340130423e-01	-2.649130534e-04	1.288714767e-11
-1.810000000e-02	1.340130434e-01	-2.635530309e-04	1.722437922e-11
-1.820000000e-02	1.340130444e-01	-2.621930082e-04	3.177416662e-11
-1.830000000e-02	1.340130454e-01	-2.608329854e-04	7.844995314e-12
-1.840000000e-02	1.340130464e-01	-2.594729625e-04	3.595157251e-11
-1.850000000e-02	1.340130473e-01	-2.581129395e-04	2.390483671e-11
-1.860000000e-02	1.340130481e-01	-2.567529164e-04	1.624414395e-11
-1.870000000e-02	1.340130490e-01	-2.553928931e-04	1.248684216e-11
-1.880000000e-02	1.340130497e-01	-2.540328697e-04	1.289054904e-11
-1.890000000e-02	1.340130505e-01	-2.526728462e-04	1.074438342e-11
-1.900000000e-02	1.340130512e-01	-2.513128226e-04	5.274982659e-11
-1.910000000e-02	1.340130518e-01	-2.499527989e-04	1.810415699e-11
-1.920000000e-02	1.340130525e-01	-2.485927751e-04	2.517184144e-11
-1.930000000e-02	1.340130530e-01	-2.472327512e-04	2.375542861e-11
-1.940000000e-02	1.340130536e-01	-2.458727271e-04	1.695954172e-11
-1.950000000e-02	1.340130541e-01	-2.445127030e-04	5.865198481e-12
-1.960000000e-02	1.340130545e-01	-2.431526788e-04	2.486554599e-11
-1.970000000e-02	1.340130549e-01	-2.417926544e-04	2.564783806e-11
-1.980000000e-02	1.340130553e-01	-2.404326300e-04	1.290628571e-11
-1.990000000e-02	1.340130556e-01	-2.390726055e-04	2.282489703e-11
-2.000000000e-02	1.340130559e-01	-2.377125809e-04	9.018125859e-12
-2.010000000e-02	1.340130561e-01	-2.363525562e-04	3.491235458e-11
-2.020000000e-02	1.340130563e-01	-2.349925314e-04	1.216789336e-11
-2.030000000e-02	1.340130565e-01	-2.336325066e-04	1.085259283e-11
-2.040000000e-02	1.340130566e-01	-2.322724816e-04	2.475920685e-11
-2.050000000e-02	1.340130567e-01	-2.309124566e-04	1.476530614e-11
-2.060000000e-02	1.340130567e-01	-2.295524315e-04	1.679129460e-11
-2.070000000e-02	1.340130567e-01	-2.281924063e-04	1.031655214e-11
-2.080000000e-02	1.340130567e-01	-2.268323810e-04	1.698103375e-11
-2.090000000e-02	1.340130566e-01	-2.254723557e-04	2.510829983e-11
-2.100000000e-02	1.340130565e-01	-2.241123303e-04	1.589173915e-11
-2.110000000e-02	1.340130563e-01	-2.227523049e-04	1.416082050e-11
-2.120000000e-02	1.340130561e-01	-2.213922793e-04	2.382529266e-11
-2.130000000e-02	1.340130558e-01	-2.200322537e-04	2.027069273e-11
-2.140000000e-02	1.340130555e-01	-2.186722281e-04	1.136412808e-11
-2.150000000e-02	1.340130552e-01	-2.173122024e-04	8.533466657e-12
-2.160000000e-02	1.340130548e-01	-2.159521766e-04	1.595694208e-11
-2.170000000e-02	1.340130544e-01	-2.145921508e-04	8.630288946e-12
-2.180000000e-02	1.340130540e-01	-2.132321249e-04	2.624233267e-11
-2.190000000e-02	1.340130535e-01	-2.118720990e-04	1.117018814e-11
-2.200000000e-02	1.340130529e-01	-2.105120730e-04	1.138405533e-11
-2.210000000e-02	1.340130523e-01	-2.091520470e-04	2.168206582e-11
-2.220000000e-02	1.340130517e-01	-2.077920209e-04	1.496695851e-11
-2.230000000e-02	1.340130510e-01	-2.064319948e-04	6.798518455e-12
-2.240000000e-02	1.340130503e-01	-2.050719686e-04	1.130283762e-11
-2.250000000e-02	1.340130496e-01	-2.037119424e-04	9.703128539e-12
-2.260000000e-02	1.340130488e-01	-2.023519162e-04	2.810053731e-11
-2.270000000e-02	1.340130480e-01	-2.009918899e-04	1.557862769e-11
-2.280000000e-02	1.340130471e-01	-1.996318636e-04	1.788613148e-11
-2.290000000e-02	1.340130462e-01	-1.982718373e-04	2.362287475e-11
-2.300000000e-02	1.340130452e-01	-1.969118109e-04	9.479997925e-12
-2.310000000e-02	1.340130442e-01	-1.955517846e-04	1.158957300e-11
-2.320000000e-02	1.340130432e-01	-1.941917582e-04	1.071305479e-11
-2.330000000e-02	1.340130421e-01	-1.928317317e-04	1.156483489e-11
-2.340000000e-02	1.340130410e-01	-1.914717053e-04	7.294541004e-12
-2.350000000e-02	1.340130399e-01	-1.901116788e-04	4.374553243e-11
-2.360000000e-02	1.340130386e-01	-1.887516523e-04	6.798936873e-12
-2.370000000e-02	1.340130374e-01	-1.873916259e-04	7.670986713e-12
-2.380000000e-02	1.340130361e-01	-1.860315994e-04	8.549362640e-12
-2.390000000e-02	1.340130348e-01	-1.846715728e-04	4.438277880e-11
-2.400000000e-02	1.340130334e-01	-1.833115463e-04	1.898628186e-11
-2.410000000e-02	1.340130320e-01	-1.819515198e-04	5.957005094e-12
-2.420000000e-02	1.340130306e-01	-1.805914933e-04	8.476202266e-12
-2.430000000e-02	1.340130291e-01	-1.792314667e-04	2.704543022e-11
-2.440000000e-02	1.340130276e-01	-1.778714402e-04	2.591013764e-11
-2.450000000e-02	1.340130260e-01	-1.765114137e-04	2.808419745e-11
-2.460000000e-02	1.340130244e-01	-1.751513872e-04	5.667889592e-12
-2.470000000e-02	1.340130227e-01	-1.737913606e-04	4.964550883e-12
-2.480000000e-02	1.340130210e-01	-1.724313341e-04	1.440373175e-11
-2.490000000e-02	1.340130193e-01	-1.710713076e-04	2.931876844e-11
-2.500000000e-02	1.340130175e-01	-1.697112812e-04	8.897900409e-12
-2.510000000e-02	1.340130157e-01	-1.683512547e-04	6.044335048e-11
-2.520000000e-02	1.340130138e-01	-1.669912283e-04	8.669227199e-12
-2.530000000e-02	1.340130119e-01	-1.656312018e-04	7.126551071e-12
-2.540000000e-02	1.340130100e-01	-1.642711754e-04	2.060038911e-11
-2.550000000e-02	1.340130080e-01	-1.629111490e-04	1.327561584e-11
-2.560000000e-02	1.340130059e-01	-1.615511227e-04	1.500423411e-11
-2.570000000e-02	1.340130039e-01	-1.601910964e-04	1.204447533e-11
-2.580000000e-02	1.340130018e-01	-1.588310701e-04	8.165576313e-11
-2.590000000e-02	1.340129996e-01	-1.574710438e-04	9.648351265e-12
-2.600000000e-02	1.340129974e-01	-1.561110176e-04	6.832800269e-12
-2.610000000e-02	1.340129952e-01	-1.547509914e-04	1.830355959e-11
-2.620000000e-02	1.340129929e-01	-1.533909652e-04	7.814900275e-11
-2.630000000e-02	1.340129906e-01	-1.520309391e-04	1.441719997e-11
-2.640000000e-02	1.340129882e-01	-1.506709130e-04	2.502387800e-11
-2.650000000e-02	1.340129858e-01	-1.493108870e-04	8.790167006e-12
-2.660000000e-02	1.340129834e-01	-1.479508610e-04	2.216945311e-11
-2.670000000e-02	1.340129809e-01	-1.465908351e-04	2.510184690e-11
-2.680000000e-02	1.340129784e-01	-1.452308092e-04	6.409615445e-12
-2.690000000e-02	1.340129758e-01	-1.438707834e-04	1.779074297e-11
-2.700000000e-02	1.340129732e-01	-1.425107576e-04	1.082218945e-11
-2.710000000e-02	1.340129706e-01	-1.411507319e-04	1.105747687e-11
-2.720000000e-02	1.340129679e-01	-1.397907063e-04	1.725735340e-11
-2.730000000e-02	1.340129652e-01	-1.384306807e-04	1.710315549e-11
-2.740000000e-02	1.340129624e-01	-1.370706552e-04	8.301465730e-12
-2.750000000e-02	1.340129596e-01	-1.357106297e-04	3.661143509e-12
-2.760000000e-02	1.340129567e-01	-1.343506043e-04	1.320220842e-11
-2.770000000e-02	1.340129538e-01	-1.329905790e-04	1.172196184e-11
-2.780000000e-02	1.340129509e-01	-1.316305537e-04	7.615935363e-12
-2.790000000e-02	1.340129479e-01	-1.302705285e-04	2.631748760e-11
-2.800000000e-02	1.340129449e-01	-1.289105034e-04	1.217537966e-11
-2.810000000e-02	1.340129418e-01	-1.275504784e-04	1.123752114e-11
-2.820000000e-02	1.340129387e-01	-1.261904535e-04	2.373409560e-11
-2.830000000e-02	1.340129356e-01	-1.248304286e-04	8.262912268e-12
-2.840000000e-02	1.340129324e-01	-1.234704038e-04	1.087682508e-11
-2.850000000e-02	1.340129292e-01	-1.221103791e-04	2.646469758e-11
-2.860000000e-02	1.340129259e-01	-1.207503545e-04	2.325698435e-11
-2.870000000e-02	1.340129226e-01	-1.193903300e-04	1.964971614e-11
-2.880000000e-02	1.340129193e-01	-1.180303056e-04	3.347966490e-11
-2.890000000e-02	1.340129159e-01	-1.166702813e-04	7.751663618e-12
-2.900000000e-02	1.340129124e-01	-1.153102570e-04	1.743779295e-11
-2.910000000e-02	1.340129090e-01	-1.139502329e-04	2.224572797e-11
-2.920000000e-02	1.340129055e-01	-1.125902089e-04	7.886272125e-12
-2.930000000e-02	1.340129019e-01	-1.112301850e-04	2.051509769e-11
-2.940000000e-02	1.340128983e-01	-1.098701612e-04	2.463928101e-11
-2.950000000e-02	1.340128947e-01	-1.085101374e-04	1.365794648e-11
-2.960000000e-02	1.340128910e-01	-1.071501138e-04	2.001049811e-11
-2.970000000e-02	1.340128873e-01	-1.057900903e-04	4.791982194e-11
-2.980000000e-02	1.340128835e-01	-1.044300670e-04	2.398981423e-11
-2.990000000e-02	1.340128797e-01	-1.030700437e-04	1.056385288e-11
-3.000000000e-02	1.340128759e-01	-1.017100206e-04	1.640493922e-11
