# Im(epsi1)     Re(omega/c)      Im(omega/c)      Eq(det).Opt det CON kz, R=0.5 \mum, mu_c=0.3, Re(epsi1)=3.90solve_det_conkz_vs_kz.py
0.000000000e+00	1.340121479e-01	-5.121512408e-04	1.338476198e-11
-1.000000000e-04	1.340121565e-01	-5.107913478e-04	1.274861028e-11
-2.000000000e-04	1.340121650e-01	-5.094314543e-04	8.215463790e-12
-3.000000000e-04	1.340121735e-01	-5.080715603e-04	3.499822645e-11
-4.000000000e-04	1.340121820e-01	-5.067116658e-04	8.460108264e-12
-5.000000000e-04	1.340121904e-01	-5.053517707e-04	1.531465615e-11
-6.000000000e-04	1.340121987e-01	-5.039918752e-04	1.636241451e-11
-7.000000000e-04	1.340122071e-01	-5.026319792e-04	1.726742451e-11
-8.000000000e-04	1.340122154e-01	-5.012720827e-04	1.706531755e-11
-9.000000000e-04	1.340122236e-01	-4.999121857e-04	2.731210008e-11
-1.000000000e-03	1.340122318e-01	-4.985522882e-04	1.098517971e-10
-1.100000000e-03	1.340122400e-01	-4.971923902e-04	1.005694384e-11
-1.200000000e-03	1.340122481e-01	-4.958324918e-04	3.139040558e-11
-1.300000000e-03	1.340122562e-01	-4.944725928e-04	7.323349218e-12
-1.400000000e-03	1.340122642e-01	-4.931126934e-04	1.386651704e-11
-1.500000000e-03	1.340122722e-01	-4.917527935e-04	1.178613233e-11
-1.600000000e-03	1.340122802e-01	-4.903928931e-04	3.751201659e-11
-1.700000000e-03	1.340122881e-01	-4.890329922e-04	6.312762983e-12
-1.800000000e-03	1.340122960e-01	-4.876730909e-04	2.335111888e-11
-1.900000000e-03	1.340123038e-01	-4.863131891e-04	1.321412628e-11
-2.000000000e-03	1.340123116e-01	-4.849532868e-04	7.238481253e-12
-2.100000000e-03	1.340123193e-01	-4.835933840e-04	4.707075808e-12
-2.200000000e-03	1.340123270e-01	-4.822334808e-04	2.219490091e-11
-2.300000000e-03	1.340123347e-01	-4.808735771e-04	6.510840810e-12
-2.400000000e-03	1.340123423e-01	-4.795136730e-04	1.046057021e-10
-2.500000000e-03	1.340123499e-01	-4.781537684e-04	6.747824028e-12
-2.600000000e-03	1.340123575e-01	-4.767938633e-04	3.561223937e-11
-2.700000000e-03	1.340123650e-01	-4.754339578e-04	1.213220499e-11
-2.800000000e-03	1.340123724e-01	-4.740740519e-04	8.811427367e-12
-2.900000000e-03	1.340123798e-01	-4.727141455e-04	1.092403799e-11
-3.000000000e-03	1.340123872e-01	-4.713542386e-04	3.927314543e-11
-3.100000000e-03	1.340123946e-01	-4.699943313e-04	1.055852306e-11
-3.200000000e-03	1.340124018e-01	-4.686344235e-04	8.889230842e-12
-3.300000000e-03	1.340124091e-01	-4.672745153e-04	3.751634946e-11
-3.400000000e-03	1.340124163e-01	-4.659146067e-04	2.647140592e-11
-3.500000000e-03	1.340124235e-01	-4.645546976e-04	1.048417212e-11
-3.600000000e-03	1.340124306e-01	-4.631947881e-04	1.031130884e-11
-3.700000000e-03	1.340124377e-01	-4.618348782e-04	1.024970838e-11
-3.800000000e-03	1.340124448e-01	-4.604749678e-04	1.670280912e-11
-3.900000000e-03	1.340124518e-01	-4.591150570e-04	1.241428082e-11
-4.000000000e-03	1.340124587e-01	-4.577551458e-04	4.894772994e-11
-4.100000000e-03	1.340124657e-01	-4.563952341e-04	1.742449577e-11
-4.200000000e-03	1.340124725e-01	-4.550353220e-04	7.756486553e-12
-4.300000000e-03	1.340124794e-01	-4.536754095e-04	6.452462021e-12
-4.400000000e-03	1.340124862e-01	-4.523154966e-04	1.665288769e-11
-4.500000000e-03	1.340124929e-01	-4.509555833e-04	2.190759926e-11
-4.600000000e-03	1.340124997e-01	-4.495956695e-04	6.640338461e-11
-4.700000000e-03	1.340125063e-01	-4.482357553e-04	1.672423680e-11
-4.800000000e-03	1.340125130e-01	-4.468758408e-04	2.579394403e-11
-4.900000000e-03	1.340125196e-01	-4.455159258e-04	1.151473576e-11
-5.000000000e-03	1.340125261e-01	-4.441560104e-04	1.805787136e-11
-5.100000000e-03	1.340125326e-01	-4.427960946e-04	2.708804000e-11
-5.200000000e-03	1.340125391e-01	-4.414361784e-04	8.474979647e-12
-5.300000000e-03	1.340125455e-01	-4.400762618e-04	9.628840205e-12
-5.400000000e-03	1.340125519e-01	-4.387163448e-04	3.417455906e-11
-5.500000000e-03	1.340125583e-01	-4.373564273e-04	1.482202670e-11
-5.600000000e-03	1.340125646e-01	-4.359965096e-04	1.388754436e-11
-5.700000000e-03	1.340125708e-01	-4.346365914e-04	6.997241073e-12
-5.800000000e-03	1.340125770e-01	-4.332766728e-04	3.722269251e-11
-5.900000000e-03	1.340125832e-01	-4.319167538e-04	7.847591394e-12
-6.000000000e-03	1.340125894e-01	-4.305568345e-04	1.250160823e-11
-6.100000000e-03	1.340125955e-01	-4.291969147e-04	1.252645466e-11
-6.200000000e-03	1.340126015e-01	-4.278369946e-04	2.645750207e-11
-6.300000000e-03	1.340126075e-01	-4.264770741e-04	1.276818892e-11
-6.400000000e-03	1.340126135e-01	-4.251171532e-04	1.660239350e-11
-6.500000000e-03	1.340126194e-01	-4.237572320e-04	2.861736612e-11
-6.600000000e-03	1.340126253e-01	-4.223973104e-04	7.183599845e-12
-6.700000000e-03	1.340126312e-01	-4.210373884e-04	2.638239252e-11
-6.800000000e-03	1.340126370e-01	-4.196774660e-04	1.183969690e-11
-6.900000000e-03	1.340126428e-01	-4.183175433e-04	1.020086161e-11
-7.000000000e-03	1.340126485e-01	-4.169576202e-04	2.913483048e-11
-7.100000000e-03	1.340126542e-01	-4.155976967e-04	2.593300107e-11
-7.200000000e-03	1.340126598e-01	-4.142377729e-04	1.225027900e-11
-7.300000000e-03	1.340126654e-01	-4.128778487e-04	1.379474676e-11
-7.400000000e-03	1.340126710e-01	-4.115179242e-04	2.167617086e-11
-7.500000000e-03	1.340126765e-01	-4.101579993e-04	2.560071989e-11
-7.600000000e-03	1.340126820e-01	-4.087980740e-04	2.649746666e-11
-7.700000000e-03	1.340126874e-01	-4.074381484e-04	1.674796564e-11
-7.800000000e-03	1.340126928e-01	-4.060782225e-04	9.944322752e-12
-7.900000000e-03	1.340126982e-01	-4.047182962e-04	1.791773897e-11
-8.000000000e-03	1.340127035e-01	-4.033583695e-04	7.245024264e-12
-8.100000000e-03	1.340127088e-01	-4.019984426e-04	1.182921241e-11
-8.200000000e-03	1.340127140e-01	-4.006385152e-04	1.872390712e-11
-8.300000000e-03	1.340127192e-01	-3.992785876e-04	3.388035682e-11
-8.400000000e-03	1.340127243e-01	-3.979186596e-04	1.776348768e-11
-8.500000000e-03	1.340127294e-01	-3.965587313e-04	1.213162719e-11
-8.600000000e-03	1.340127345e-01	-3.951988026e-04	1.477467184e-11
-8.700000000e-03	1.340127395e-01	-3.938388736e-04	6.460950108e-12
-8.800000000e-03	1.340127445e-01	-3.924789443e-04	1.135215366e-11
-8.900000000e-03	1.340127495e-01	-3.911190146e-04	8.070708271e-12
-9.000000000e-03	1.340127544e-01	-3.897590847e-04	9.970809380e-12
-9.100000000e-03	1.340127592e-01	-3.883991544e-04	1.739939479e-11
-9.200000000e-03	1.340127640e-01	-3.870392238e-04	1.086702459e-11
-9.300000000e-03	1.340127688e-01	-3.856792929e-04	1.122298275e-11
-9.400000000e-03	1.340127736e-01	-3.843193616e-04	1.209530647e-11
-9.500000000e-03	1.340127782e-01	-3.829594301e-04	5.143960909e-11
-9.600000000e-03	1.340127829e-01	-3.815994982e-04	1.075113479e-11
-9.700000000e-03	1.340127875e-01	-3.802395660e-04	7.818599498e-12
-9.800000000e-03	1.340127921e-01	-3.788796335e-04	1.186894271e-11
-9.900000000e-03	1.340127966e-01	-3.775197008e-04	1.869335165e-11
-1.000000000e-02	1.340128011e-01	-3.761597677e-04	7.773612845e-12
-1.010000000e-02	1.340128055e-01	-3.747998343e-04	1.086062135e-11
-1.020000000e-02	1.340128100e-01	-3.734399006e-04	1.566156334e-11
-1.030000000e-02	1.340128143e-01	-3.720799666e-04	4.509828135e-11
-1.040000000e-02	1.340128186e-01	-3.707200323e-04	2.955142615e-11
-1.050000000e-02	1.340128229e-01	-3.693600977e-04	1.619193072e-11
-1.060000000e-02	1.340128272e-01	-3.680001629e-04	2.466545946e-11
-1.070000000e-02	1.340128314e-01	-3.666402277e-04	2.400522831e-11
-1.080000000e-02	1.340128355e-01	-3.652802923e-04	1.757563829e-11
-1.090000000e-02	1.340128396e-01	-3.639203566e-04	1.281913663e-11
-1.100000000e-02	1.340128437e-01	-3.625604206e-04	1.530587708e-11
-1.110000000e-02	1.340128477e-01	-3.612004843e-04	5.463130353e-11
-1.120000000e-02	1.340128517e-01	-3.598405477e-04	1.117061908e-11
-1.130000000e-02	1.340128557e-01	-3.584806109e-04	1.696960429e-11
-1.140000000e-02	1.340128596e-01	-3.571206738e-04	2.516025150e-11
-1.150000000e-02	1.340128635e-01	-3.557607364e-04	3.423060565e-11
-1.160000000e-02	1.340128673e-01	-3.544007987e-04	3.081464768e-11
-1.170000000e-02	1.340128711e-01	-3.530408608e-04	1.368138830e-11
-1.180000000e-02	1.340128748e-01	-3.516809226e-04	2.770005585e-11
-1.190000000e-02	1.340128785e-01	-3.503209842e-04	1.720419732e-11
-1.200000000e-02	1.340128822e-01	-3.489610455e-04	1.416626744e-11
-1.210000000e-02	1.340128858e-01	-3.476011065e-04	1.899316146e-11
-1.220000000e-02	1.340128894e-01	-3.462411673e-04	7.777693325e-12
-1.230000000e-02	1.340128929e-01	-3.448812278e-04	1.206361807e-11
-1.240000000e-02	1.340128964e-01	-3.435212881e-04	1.094673438e-11
-1.250000000e-02	1.340128999e-01	-3.421613481e-04	1.091571124e-11
-1.260000000e-02	1.340129033e-01	-3.408014079e-04	1.605346956e-11
-1.270000000e-02	1.340129067e-01	-3.394414674e-04	3.115094947e-11
-1.280000000e-02	1.340129100e-01	-3.380815267e-04	1.153775750e-11
-1.290000000e-02	1.340129133e-01	-3.367215857e-04	1.348181629e-11
-1.300000000e-02	1.340129166e-01	-3.353616445e-04	1.090432236e-11
-1.310000000e-02	1.340129198e-01	-3.340017031e-04	1.086329944e-11
-1.320000000e-02	1.340129229e-01	-3.326417614e-04	9.327842237e-12
-1.330000000e-02	1.340129261e-01	-3.312818195e-04	3.026765664e-11
-1.340000000e-02	1.340129291e-01	-3.299218773e-04	1.071826015e-11
-1.350000000e-02	1.340129322e-01	-3.285619349e-04	1.133832403e-11
-1.360000000e-02	1.340129352e-01	-3.272019923e-04	6.028049427e-12
-1.370000000e-02	1.340129381e-01	-3.258420495e-04	2.180523535e-11
-1.380000000e-02	1.340129411e-01	-3.244821065e-04	8.397237549e-12
-1.390000000e-02	1.340129439e-01	-3.231221632e-04	1.144184453e-11
-1.400000000e-02	1.340129468e-01	-3.217622197e-04	4.674220773e-11
-1.410000000e-02	1.340129496e-01	-3.204022760e-04	1.386999081e-11
-1.420000000e-02	1.340129523e-01	-3.190423320e-04	4.507743090e-12
-1.430000000e-02	1.340129550e-01	-3.176823879e-04	1.585816205e-11
-1.440000000e-02	1.340129577e-01	-3.163224436e-04	1.699076408e-11
-1.450000000e-02	1.340129603e-01	-3.149624990e-04	4.641326045e-11
-1.460000000e-02	1.340129629e-01	-3.136025542e-04	8.496254571e-12
-1.470000000e-02	1.340129655e-01	-3.122426093e-04	1.642116189e-11
-1.480000000e-02	1.340129680e-01	-3.108826641e-04	2.007420671e-11
-1.490000000e-02	1.340129705e-01	-3.095227187e-04	3.170206843e-11
-1.500000000e-02	1.340129729e-01	-3.081627731e-04	3.659569891e-11
-1.510000000e-02	1.340129753e-01	-3.068028274e-04	1.455234839e-11
-1.520000000e-02	1.340129776e-01	-3.054428814e-04	8.755246245e-12
-1.530000000e-02	1.340129799e-01	-3.040829352e-04	1.231447502e-11
-1.540000000e-02	1.340129822e-01	-3.027229889e-04	8.769643991e-12
-1.550000000e-02	1.340129844e-01	-3.013630424e-04	1.219463639e-11
-1.560000000e-02	1.340129866e-01	-3.000030956e-04	2.941521286e-11
-1.570000000e-02	1.340129887e-01	-2.986431487e-04	2.955138771e-11
-1.580000000e-02	1.340129908e-01	-2.972832016e-04	8.128024945e-12
-1.590000000e-02	1.340129928e-01	-2.959232544e-04	1.931402996e-11
-1.600000000e-02	1.340129948e-01	-2.945633069e-04	5.898842829e-11
-1.610000000e-02	1.340129968e-01	-2.932033593e-04	8.016283597e-11
-1.620000000e-02	1.340129987e-01	-2.918434115e-04	4.600485032e-11
-1.630000000e-02	1.340130006e-01	-2.904834635e-04	8.094990689e-12
-1.640000000e-02	1.340130025e-01	-2.891235154e-04	1.263643427e-11
-1.650000000e-02	1.340130043e-01	-2.877635671e-04	1.982918108e-11
-1.660000000e-02	1.340130060e-01	-2.864036186e-04	1.064180134e-11
-1.670000000e-02	1.340130078e-01	-2.850436700e-04	2.134382227e-11
-1.680000000e-02	1.340130095e-01	-2.836837212e-04	1.102161683e-11
-1.690000000e-02	1.340130111e-01	-2.823237723e-04	1.028510907e-11
-1.700000000e-02	1.340130127e-01	-2.809638231e-04	9.308350531e-12
-1.710000000e-02	1.340130142e-01	-2.796038739e-04	2.995627022e-11
-1.720000000e-02	1.340130158e-01	-2.782439245e-04	3.481347276e-11
-1.730000000e-02	1.340130172e-01	-2.768839749e-04	1.268021661e-11
-1.740000000e-02	1.340130187e-01	-2.755240252e-04	1.961354112e-11
-1.750000000e-02	1.340130201e-01	-2.741640753e-04	9.111658664e-12
-1.760000000e-02	1.340130214e-01	-2.728041253e-04	2.424325034e-11
-1.770000000e-02	1.340130227e-01	-2.714441752e-04	2.229946164e-11
-1.780000000e-02	1.340130240e-01	-2.700842249e-04	1.335062267e-11
-1.790000000e-02	1.340130252e-01	-2.687242744e-04	7.675125854e-12
-1.800000000e-02	1.340130264e-01	-2.673643239e-04	4.024688226e-11
-1.810000000e-02	1.340130275e-01	-2.660043732e-04	6.526071496e-12
-1.820000000e-02	1.340130287e-01	-2.646444224e-04	1.021723254e-11
-1.830000000e-02	1.340130297e-01	-2.632844714e-04	9.535154426e-12
-1.840000000e-02	1.340130307e-01	-2.619245203e-04	1.303174744e-11
-1.850000000e-02	1.340130317e-01	-2.605645691e-04	2.201836404e-11
-1.860000000e-02	1.340130326e-01	-2.592046178e-04	5.246467921e-12
-1.870000000e-02	1.340130335e-01	-2.578446663e-04	7.879402112e-12
-1.880000000e-02	1.340130344e-01	-2.564847147e-04	2.606946280e-11
-1.890000000e-02	1.340130352e-01	-2.551247630e-04	5.640922567e-11
-1.900000000e-02	1.340130360e-01	-2.537648112e-04	9.555065524e-12
-1.910000000e-02	1.340130367e-01	-2.524048593e-04	1.317890701e-11
-1.920000000e-02	1.340130374e-01	-2.510449073e-04	9.670586377e-12
-1.930000000e-02	1.340130381e-01	-2.496849551e-04	5.638479981e-11
-1.940000000e-02	1.340130387e-01	-2.483250029e-04	6.357503396e-12
-1.950000000e-02	1.340130392e-01	-2.469650505e-04	1.668653612e-11
-1.960000000e-02	1.340130398e-01	-2.456050980e-04	2.797353128e-11
-1.970000000e-02	1.340130402e-01	-2.442451455e-04	1.750007466e-11
-1.980000000e-02	1.340130407e-01	-2.428851928e-04	9.110858224e-12
-1.990000000e-02	1.340130411e-01	-2.415252401e-04	1.383553532e-11
-2.000000000e-02	1.340130414e-01	-2.401652872e-04	1.247377585e-11
-2.010000000e-02	1.340130418e-01	-2.388053343e-04	1.510496353e-10
-2.020000000e-02	1.340130420e-01	-2.374453813e-04	4.928700331e-12
-2.030000000e-02	1.340130423e-01	-2.360854281e-04	1.090198420e-11
-2.040000000e-02	1.340130425e-01	-2.347254749e-04	5.716430980e-12
-2.050000000e-02	1.340130426e-01	-2.333655216e-04	1.171701549e-11
-2.060000000e-02	1.340130427e-01	-2.320055683e-04	1.325688073e-11
-2.070000000e-02	1.340130428e-01	-2.306456148e-04	1.661013521e-11
-2.080000000e-02	1.340130428e-01	-2.292856613e-04	1.027010838e-11
-2.090000000e-02	1.340130428e-01	-2.279257077e-04	1.229060408e-11
-2.100000000e-02	1.340130428e-01	-2.265657540e-04	1.200824555e-11
-2.110000000e-02	1.340130427e-01	-2.252058003e-04	3.432421715e-11
-2.120000000e-02	1.340130425e-01	-2.238458464e-04	5.108496490e-11
-2.130000000e-02	1.340130424e-01	-2.224858925e-04	1.847261716e-11
-2.140000000e-02	1.340130421e-01	-2.211259386e-04	1.736641413e-11
-2.150000000e-02	1.340130419e-01	-2.197659846e-04	1.452946089e-11
-2.160000000e-02	1.340130416e-01	-2.184060305e-04	9.162739488e-12
-2.170000000e-02	1.340130412e-01	-2.170460764e-04	7.747117579e-12
-2.180000000e-02	1.340130409e-01	-2.156861222e-04	7.339026947e-12
-2.190000000e-02	1.340130404e-01	-2.143261679e-04	1.691299485e-11
-2.200000000e-02	1.340130400e-01	-2.129662136e-04	2.699025846e-11
-2.210000000e-02	1.340130395e-01	-2.116062593e-04	1.653590661e-11
-2.220000000e-02	1.340130389e-01	-2.102463049e-04	7.758204285e-12
-2.230000000e-02	1.340130383e-01	-2.088863504e-04	6.080699792e-12
-2.240000000e-02	1.340130377e-01	-2.075263959e-04	1.461336175e-11
-2.250000000e-02	1.340130370e-01	-2.061664414e-04	1.519084440e-11
-2.260000000e-02	1.340130363e-01	-2.048064868e-04	2.796770301e-11
-2.270000000e-02	1.340130355e-01	-2.034465322e-04	1.241297796e-11
-2.280000000e-02	1.340130348e-01	-2.020865776e-04	1.052292902e-11
-2.290000000e-02	1.340130339e-01	-2.007266229e-04	7.887075657e-12
-2.300000000e-02	1.340130330e-01	-1.993666682e-04	1.423950419e-11
-2.310000000e-02	1.340130321e-01	-1.980067134e-04	8.320743962e-12
-2.320000000e-02	1.340130312e-01	-1.966467587e-04	7.163645890e-12
-2.330000000e-02	1.340130302e-01	-1.952868039e-04	1.013944359e-11
-2.340000000e-02	1.340130291e-01	-1.939268491e-04	8.500469247e-12
-2.350000000e-02	1.340130280e-01	-1.925668942e-04	2.095747692e-11
-2.360000000e-02	1.340130269e-01	-1.912069394e-04	2.301806024e-11
-2.370000000e-02	1.340130257e-01	-1.898469845e-04	4.577470661e-11
-2.380000000e-02	1.340130245e-01	-1.884870296e-04	4.652658818e-11
-2.390000000e-02	1.340130233e-01	-1.871270747e-04	6.880942253e-11
-2.400000000e-02	1.340130220e-01	-1.857671198e-04	1.506327000e-11
-2.410000000e-02	1.340130206e-01	-1.844071648e-04	2.213928879e-11
-2.420000000e-02	1.340130193e-01	-1.830472099e-04	1.078584908e-11
-2.430000000e-02	1.340130179e-01	-1.816872550e-04	1.451081179e-11
-2.440000000e-02	1.340130164e-01	-1.803273000e-04	1.339997896e-11
-2.450000000e-02	1.340130149e-01	-1.789673451e-04	1.158986081e-11
-2.460000000e-02	1.340130134e-01	-1.776073901e-04	2.145686251e-11
-2.470000000e-02	1.340130118e-01	-1.762474352e-04	4.937327047e-11
-2.480000000e-02	1.340130102e-01	-1.748874803e-04	1.176516174e-11
-2.490000000e-02	1.340130085e-01	-1.735275253e-04	1.195159387e-11
-2.500000000e-02	1.340130068e-01	-1.721675704e-04	1.726364099e-11
-2.510000000e-02	1.340130050e-01	-1.708076155e-04	1.402688459e-11
-2.520000000e-02	1.340130033e-01	-1.694476606e-04	1.578093673e-11
-2.530000000e-02	1.340130014e-01	-1.680877058e-04	2.322059886e-11
-2.540000000e-02	1.340129996e-01	-1.667277509e-04	8.697021616e-12
-2.550000000e-02	1.340129976e-01	-1.653677961e-04	9.480675854e-12
-2.560000000e-02	1.340129957e-01	-1.640078413e-04	1.946094465e-11
-2.570000000e-02	1.340129937e-01	-1.626478865e-04	2.108817011e-11
-2.580000000e-02	1.340129917e-01	-1.612879317e-04	9.923909447e-12
-2.590000000e-02	1.340129896e-01	-1.599279770e-04	6.948192339e-12
-2.600000000e-02	1.340129875e-01	-1.585680223e-04	1.551106756e-11
-2.610000000e-02	1.340129853e-01	-1.572080676e-04	4.404600670e-12
-2.620000000e-02	1.340129831e-01	-1.558481130e-04	8.118705570e-12
-2.630000000e-02	1.340129809e-01	-1.544881584e-04	8.990184392e-12
-2.640000000e-02	1.340129786e-01	-1.531282038e-04	1.411415862e-11
-2.650000000e-02	1.340129763e-01	-1.517682493e-04	1.315033500e-11
-2.660000000e-02	1.340129739e-01	-1.504082948e-04	8.554463120e-12
-2.670000000e-02	1.340129715e-01	-1.490483404e-04	4.148336394e-11
-2.680000000e-02	1.340129690e-01	-1.476883860e-04	1.265328263e-11
-2.690000000e-02	1.340129666e-01	-1.463284317e-04	1.108344829e-11
-2.700000000e-02	1.340129640e-01	-1.449684774e-04	8.339598226e-12
-2.710000000e-02	1.340129615e-01	-1.436085232e-04	7.614672902e-12
-2.720000000e-02	1.340129588e-01	-1.422485690e-04	8.829304386e-12
-2.730000000e-02	1.340129562e-01	-1.408886149e-04	5.800795073e-12
-2.740000000e-02	1.340129535e-01	-1.395286608e-04	2.022749639e-11
-2.750000000e-02	1.340129508e-01	-1.381687068e-04	1.700475238e-11
-2.760000000e-02	1.340129480e-01	-1.368087529e-04	1.674119690e-11
-2.770000000e-02	1.340129452e-01	-1.354487990e-04	7.648748919e-12
-2.780000000e-02	1.340129423e-01	-1.340888452e-04	1.345977285e-11
-2.790000000e-02	1.340129394e-01	-1.327288915e-04	1.747352208e-11
-2.800000000e-02	1.340129365e-01	-1.313689379e-04	5.775974041e-11
-2.810000000e-02	1.340129335e-01	-1.300089843e-04	4.174460261e-11
-2.820000000e-02	1.340129304e-01	-1.286490308e-04	3.188492553e-11
-2.830000000e-02	1.340129274e-01	-1.272890774e-04	1.559427542e-11
-2.840000000e-02	1.340129243e-01	-1.259291240e-04	7.123025414e-12
-2.850000000e-02	1.340129211e-01	-1.245691708e-04	1.415138909e-11
-2.860000000e-02	1.340129179e-01	-1.232092176e-04	1.043202017e-11
-2.870000000e-02	1.340129147e-01	-1.218492645e-04	1.426430957e-11
-2.880000000e-02	1.340129114e-01	-1.204893115e-04	9.725570423e-12
-2.890000000e-02	1.340129081e-01	-1.191293586e-04	1.391876667e-11
-2.900000000e-02	1.340129047e-01	-1.177694058e-04	1.184275359e-11
-2.910000000e-02	1.340129014e-01	-1.164094531e-04	2.392905816e-11
-2.920000000e-02	1.340128979e-01	-1.150495004e-04	1.488028337e-11
-2.930000000e-02	1.340128944e-01	-1.136895479e-04	1.535364395e-11
-2.940000000e-02	1.340128909e-01	-1.123295955e-04	2.679043923e-11
-2.950000000e-02	1.340128873e-01	-1.109696432e-04	2.567687592e-11
-2.960000000e-02	1.340128837e-01	-1.096096909e-04	3.087579551e-11
-2.970000000e-02	1.340128801e-01	-1.082497388e-04	1.085684757e-11
-2.980000000e-02	1.340128764e-01	-1.068897869e-04	2.655696983e-11
-2.990000000e-02	1.340128727e-01	-1.055298350e-04	2.139094429e-11
-3.000000000e-02	1.340128689e-01	-1.041698832e-04	5.843345278e-12
