# Im(epsi1)     Re(omega/c)      Im(omega/c)      Eq(det).Opt det CON kz, R=0.5 \mum, mu_c=0.3, Re(epsi1)=3.90solve_det_conkz_vs_kz.py
0.000000000e+00	1.340120013e-01	-5.058721458e-04	1.105495743e-11
-1.000000000e-04	1.340120097e-01	-5.045120648e-04	3.184805606e-11
-2.000000000e-04	1.340120180e-01	-5.031519834e-04	7.246524307e-11
-3.000000000e-04	1.340120264e-01	-5.017919014e-04	1.061305333e-11
-4.000000000e-04	1.340120346e-01	-5.004318190e-04	7.083033736e-12
-5.000000000e-04	1.340120428e-01	-4.990717361e-04	2.279720165e-11
-6.000000000e-04	1.340120510e-01	-4.977116527e-04	4.827856038e-12
-7.000000000e-04	1.340120591e-01	-4.963515688e-04	6.986273602e-11
-8.000000000e-04	1.340120672e-01	-4.949914844e-04	2.034429119e-11
-9.000000000e-04	1.340120753e-01	-4.936313995e-04	1.320131552e-11
-1.000000000e-03	1.340120833e-01	-4.922713142e-04	1.069900549e-11
-1.100000000e-03	1.340120913e-01	-4.909112283e-04	1.315974772e-11
-1.200000000e-03	1.340120992e-01	-4.895511420e-04	1.452004073e-11
-1.300000000e-03	1.340121071e-01	-4.881910553e-04	7.938109011e-12
-1.400000000e-03	1.340121150e-01	-4.868309680e-04	2.674345789e-11
-1.500000000e-03	1.340121228e-01	-4.854708803e-04	1.466580414e-11
-1.600000000e-03	1.340121305e-01	-4.841107921e-04	1.480759116e-11
-1.700000000e-03	1.340121382e-01	-4.827507034e-04	1.433816862e-11
-1.800000000e-03	1.340121459e-01	-4.813906143e-04	1.132641792e-11
-1.900000000e-03	1.340121536e-01	-4.800305247e-04	1.353275389e-11
-2.000000000e-03	1.340121612e-01	-4.786704347e-04	2.363649089e-11
-2.100000000e-03	1.340121687e-01	-4.773103442e-04	1.276572478e-11
-2.200000000e-03	1.340121763e-01	-4.759502533e-04	1.294497897e-11
-2.300000000e-03	1.340121837e-01	-4.745901619e-04	2.818434468e-11
-2.400000000e-03	1.340121912e-01	-4.732300700e-04	5.296585943e-12
-2.500000000e-03	1.340121986e-01	-4.718699777e-04	6.151014080e-12
-2.600000000e-03	1.340122059e-01	-4.705098849e-04	6.711299050e-12
-2.700000000e-03	1.340122132e-01	-4.691497917e-04	1.062998532e-11
-2.800000000e-03	1.340122205e-01	-4.677896981e-04	7.672422063e-12
-2.900000000e-03	1.340122277e-01	-4.664296040e-04	6.545382521e-11
-3.000000000e-03	1.340122349e-01	-4.650695095e-04	1.723040151e-11
-3.100000000e-03	1.340122421e-01	-4.637094145e-04	2.564255986e-11
-3.200000000e-03	1.340122492e-01	-4.623493191e-04	8.983139063e-12
-3.300000000e-03	1.340122562e-01	-4.609892233e-04	3.007459182e-11
-3.400000000e-03	1.340122632e-01	-4.596291270e-04	1.036294172e-11
-3.500000000e-03	1.340122702e-01	-4.582690303e-04	8.982874609e-12
-3.600000000e-03	1.340122772e-01	-4.569089332e-04	7.726331512e-12
-3.700000000e-03	1.340122841e-01	-4.555488357e-04	2.092370117e-11
-3.800000000e-03	1.340122909e-01	-4.541887377e-04	8.579802687e-11
-3.900000000e-03	1.340122977e-01	-4.528286394e-04	1.276958552e-11
-4.000000000e-03	1.340123045e-01	-4.514685406e-04	1.600638559e-11
-4.100000000e-03	1.340123112e-01	-4.501084413e-04	1.384245404e-11
-4.200000000e-03	1.340123179e-01	-4.487483417e-04	2.794022874e-11
-4.300000000e-03	1.340123246e-01	-4.473882417e-04	1.503569543e-11
-4.400000000e-03	1.340123312e-01	-4.460281412e-04	1.500424259e-11
-4.500000000e-03	1.340123378e-01	-4.446680404e-04	2.415510720e-11
-4.600000000e-03	1.340123443e-01	-4.433079391e-04	4.412845112e-11
-4.700000000e-03	1.340123508e-01	-4.419478374e-04	5.364683246e-12
-4.800000000e-03	1.340123572e-01	-4.405877354e-04	7.456575190e-12
-4.900000000e-03	1.340123636e-01	-4.392276329e-04	1.271757550e-11
-5.000000000e-03	1.340123700e-01	-4.378675300e-04	1.482304523e-11
-5.100000000e-03	1.340123763e-01	-4.365074268e-04	1.399517661e-11
-5.200000000e-03	1.340123826e-01	-4.351473231e-04	1.087216742e-11
-5.300000000e-03	1.340123888e-01	-4.337872191e-04	1.086163666e-11
-5.400000000e-03	1.340123950e-01	-4.324271146e-04	9.226428870e-12
-5.500000000e-03	1.340124012e-01	-4.310670098e-04	2.120446807e-11
-5.600000000e-03	1.340124073e-01	-4.297069046e-04	9.481336387e-11
-5.700000000e-03	1.340124134e-01	-4.283467990e-04	4.265062013e-11
-5.800000000e-03	1.340124194e-01	-4.269866931e-04	1.274377419e-11
-5.900000000e-03	1.340124254e-01	-4.256265867e-04	1.338563318e-11
-6.000000000e-03	1.340124313e-01	-4.242664800e-04	5.779739777e-12
-6.100000000e-03	1.340124372e-01	-4.229063729e-04	2.601753882e-11
-6.200000000e-03	1.340124431e-01	-4.215462654e-04	1.145219412e-11
-6.300000000e-03	1.340124489e-01	-4.201861576e-04	3.984572524e-11
-6.400000000e-03	1.340124547e-01	-4.188260494e-04	8.707726058e-12
-6.500000000e-03	1.340124605e-01	-4.174659408e-04	1.847442235e-11
-6.600000000e-03	1.340124662e-01	-4.161058318e-04	2.346786775e-11
-6.700000000e-03	1.340124718e-01	-4.147457225e-04	7.636862085e-12
-6.800000000e-03	1.340124774e-01	-4.133856129e-04	7.943378662e-12
-6.900000000e-03	1.340124830e-01	-4.120255029e-04	1.335102286e-11
-7.000000000e-03	1.340124885e-01	-4.106653925e-04	1.261367419e-11
-7.100000000e-03	1.340124940e-01	-4.093052818e-04	2.357371785e-11
-7.200000000e-03	1.340124995e-01	-4.079451707e-04	2.493178745e-11
-7.300000000e-03	1.340125049e-01	-4.065850593e-04	3.987488137e-11
-7.400000000e-03	1.340125103e-01	-4.052249475e-04	8.795808778e-12
-7.500000000e-03	1.340125156e-01	-4.038648354e-04	1.607347393e-11
-7.600000000e-03	1.340125209e-01	-4.025047229e-04	1.382240872e-11
-7.700000000e-03	1.340125261e-01	-4.011446101e-04	1.863453128e-11
-7.800000000e-03	1.340125313e-01	-3.997844969e-04	8.247764985e-12
-7.900000000e-03	1.340125365e-01	-3.984243835e-04	1.905576011e-11
-8.000000000e-03	1.340125416e-01	-3.970642697e-04	6.474316121e-12
-8.100000000e-03	1.340125467e-01	-3.957041555e-04	5.537729384e-11
-8.200000000e-03	1.340125518e-01	-3.943440410e-04	1.168114141e-11
-8.300000000e-03	1.340125568e-01	-3.929839262e-04	1.994913698e-11
-8.400000000e-03	1.340125617e-01	-3.916238111e-04	1.225729323e-11
-8.500000000e-03	1.340125666e-01	-3.902636956e-04	5.295252455e-11
-8.600000000e-03	1.340125715e-01	-3.889035798e-04	6.789124707e-12
-8.700000000e-03	1.340125763e-01	-3.875434637e-04	1.104989910e-11
-8.800000000e-03	1.340125811e-01	-3.861833473e-04	1.964410630e-11
-8.900000000e-03	1.340125859e-01	-3.848232306e-04	1.212889360e-11
-9.000000000e-03	1.340125906e-01	-3.834631135e-04	5.313995004e-12
-9.100000000e-03	1.340125953e-01	-3.821029962e-04	1.039013641e-11
-9.200000000e-03	1.340125999e-01	-3.807428785e-04	1.719085323e-11
-9.300000000e-03	1.340126045e-01	-3.793827605e-04	1.083942336e-11
-9.400000000e-03	1.340126090e-01	-3.780226423e-04	9.689000564e-12
-9.500000000e-03	1.340126135e-01	-3.766625237e-04	1.665542380e-11
-9.600000000e-03	1.340126180e-01	-3.753024048e-04	9.333551151e-12
-9.700000000e-03	1.340126224e-01	-3.739422856e-04	9.231640410e-12
-9.800000000e-03	1.340126268e-01	-3.725821661e-04	8.274583444e-12
-9.900000000e-03	1.340126311e-01	-3.712220463e-04	1.039562668e-11
-1.000000000e-02	1.340126354e-01	-3.698619263e-04	8.318138925e-12
-1.010000000e-02	1.340126397e-01	-3.685018059e-04	2.609750338e-11
-1.020000000e-02	1.340126439e-01	-3.671416852e-04	9.926913717e-12
-1.030000000e-02	1.340126481e-01	-3.657815643e-04	1.718946316e-11
-1.040000000e-02	1.340126522e-01	-3.644214431e-04	6.005961300e-12
-1.050000000e-02	1.340126563e-01	-3.630613216e-04	3.709440809e-11
-1.060000000e-02	1.340126603e-01	-3.617011998e-04	8.722752796e-11
-1.070000000e-02	1.340126643e-01	-3.603410777e-04	1.615929802e-11
-1.080000000e-02	1.340126683e-01	-3.589809554e-04	5.970490908e-11
-1.090000000e-02	1.340126722e-01	-3.576208328e-04	5.361820565e-11
-1.100000000e-02	1.340126761e-01	-3.562607099e-04	9.569806151e-12
-1.110000000e-02	1.340126800e-01	-3.549005867e-04	3.178733708e-11
-1.120000000e-02	1.340126838e-01	-3.535404633e-04	1.674022175e-11
-1.130000000e-02	1.340126875e-01	-3.521803396e-04	8.317197063e-12
-1.140000000e-02	1.340126912e-01	-3.508202156e-04	1.753194455e-11
-1.150000000e-02	1.340126949e-01	-3.494600914e-04	1.528483355e-10
-1.160000000e-02	1.340126985e-01	-3.480999669e-04	5.096633797e-12
-1.170000000e-02	1.340127021e-01	-3.467398422e-04	1.787877915e-11
-1.180000000e-02	1.340127057e-01	-3.453797172e-04	3.441679186e-11
-1.190000000e-02	1.340127092e-01	-3.440195920e-04	7.512658329e-12
-1.200000000e-02	1.340127127e-01	-3.426594665e-04	2.010336480e-11
-1.210000000e-02	1.340127161e-01	-3.412993407e-04	1.731251540e-11
-1.220000000e-02	1.340127195e-01	-3.399392147e-04	8.128875375e-12
-1.230000000e-02	1.340127228e-01	-3.385790885e-04	1.642985153e-11
-1.240000000e-02	1.340127261e-01	-3.372189620e-04	1.342767775e-11
-1.250000000e-02	1.340127294e-01	-3.358588353e-04	3.242807213e-10
-1.260000000e-02	1.340127326e-01	-3.344987083e-04	1.140247227e-11
-1.270000000e-02	1.340127358e-01	-3.331385811e-04	1.281967860e-11
-1.280000000e-02	1.340127390e-01	-3.317784537e-04	1.734160479e-11
-1.290000000e-02	1.340127421e-01	-3.304183260e-04	1.826957729e-11
-1.300000000e-02	1.340127451e-01	-3.290581981e-04	1.158152701e-11
-1.310000000e-02	1.340127481e-01	-3.276980700e-04	1.355011646e-11
-1.320000000e-02	1.340127511e-01	-3.263379416e-04	1.128057849e-11
-1.330000000e-02	1.340127540e-01	-3.249778131e-04	7.120355172e-12
-1.340000000e-02	1.340127569e-01	-3.236176843e-04	1.052998243e-11
-1.350000000e-02	1.340127598e-01	-3.222575552e-04	1.387562599e-11
-1.360000000e-02	1.340127626e-01	-3.208974260e-04	3.607989657e-11
-1.370000000e-02	1.340127654e-01	-3.195372966e-04	1.637151592e-11
-1.380000000e-02	1.340127681e-01	-3.181771669e-04	8.795092368e-12
-1.390000000e-02	1.340127708e-01	-3.168170370e-04	9.999734011e-12
-1.400000000e-02	1.340127734e-01	-3.154569069e-04	1.236050672e-11
-1.410000000e-02	1.340127760e-01	-3.140967766e-04	1.006401755e-11
-1.420000000e-02	1.340127786e-01	-3.127366461e-04	1.530247173e-11
-1.430000000e-02	1.340127811e-01	-3.113765154e-04	1.885932865e-11
-1.440000000e-02	1.340127836e-01	-3.100163845e-04	1.072873716e-11
-1.450000000e-02	1.340127860e-01	-3.086562534e-04	1.249176844e-11
-1.460000000e-02	1.340127884e-01	-3.072961221e-04	1.118692946e-11
-1.470000000e-02	1.340127908e-01	-3.059359906e-04	2.190968224e-11
-1.480000000e-02	1.340127931e-01	-3.045758589e-04	2.437962971e-11
-1.490000000e-02	1.340127954e-01	-3.032157270e-04	1.415591235e-11
-1.500000000e-02	1.340127976e-01	-3.018555950e-04	8.300353296e-12
-1.510000000e-02	1.340127998e-01	-3.004954627e-04	7.090527126e-12
-1.520000000e-02	1.340128019e-01	-2.991353303e-04	7.853443517e-12
-1.530000000e-02	1.340128040e-01	-2.977751977e-04	7.013838239e-12
-1.540000000e-02	1.340128061e-01	-2.964150649e-04	2.248865434e-11
-1.550000000e-02	1.340128081e-01	-2.950549319e-04	1.246554324e-11
-1.560000000e-02	1.340128101e-01	-2.936947987e-04	1.272030064e-11
-1.570000000e-02	1.340128121e-01	-2.923346654e-04	2.719966215e-11
-1.580000000e-02	1.340128140e-01	-2.909745319e-04	1.300730799e-11
-1.590000000e-02	1.340128158e-01	-2.896143982e-04	1.293990607e-11
-1.600000000e-02	1.340128176e-01	-2.882542644e-04	8.928955127e-12
-1.610000000e-02	1.340128194e-01	-2.868941303e-04	1.001790201e-11
-1.620000000e-02	1.340128212e-01	-2.855339962e-04	9.717931054e-12
-1.630000000e-02	1.340128229e-01	-2.841738618e-04	1.510142825e-11
-1.640000000e-02	1.340128245e-01	-2.828137273e-04	1.579026586e-11
-1.650000000e-02	1.340128261e-01	-2.814535927e-04	1.205915644e-11
-1.660000000e-02	1.340128277e-01	-2.800934579e-04	1.099202038e-11
-1.670000000e-02	1.340128292e-01	-2.787333229e-04	1.079961472e-11
-1.680000000e-02	1.340128307e-01	-2.773731878e-04	1.584403931e-11
-1.690000000e-02	1.340128322e-01	-2.760130525e-04	2.367225448e-11
-1.700000000e-02	1.340128336e-01	-2.746529171e-04	9.242032252e-12
-1.710000000e-02	1.340128349e-01	-2.732927816e-04	3.469788937e-11
-1.720000000e-02	1.340128363e-01	-2.719326459e-04	1.453335597e-11
-1.730000000e-02	1.340128375e-01	-2.705725100e-04	1.513511950e-11
-1.740000000e-02	1.340128388e-01	-2.692123741e-04	7.030628798e-12
-1.750000000e-02	1.340128400e-01	-2.678522380e-04	8.548118591e-12
-1.760000000e-02	1.340128411e-01	-2.664921017e-04	9.372389256e-12
-1.770000000e-02	1.340128422e-01	-2.651319653e-04	3.249320235e-11
-1.780000000e-02	1.340128433e-01	-2.637718288e-04	3.164690612e-11
-1.790000000e-02	1.340128444e-01	-2.624116922e-04	1.034510797e-11
-1.800000000e-02	1.340128454e-01	-2.610515554e-04	1.129128559e-11
-1.810000000e-02	1.340128463e-01	-2.596914185e-04	8.232380152e-12
-1.820000000e-02	1.340128472e-01	-2.583312815e-04	3.670192624e-11
-1.830000000e-02	1.340128481e-01	-2.569711444e-04	2.426674887e-11
-1.840000000e-02	1.340128489e-01	-2.556110071e-04	1.242498386e-11
-1.850000000e-02	1.340128497e-01	-2.542508697e-04	1.038653827e-11
-1.860000000e-02	1.340128504e-01	-2.528907323e-04	1.682625813e-11
-1.870000000e-02	1.340128511e-01	-2.515305947e-04	3.603968082e-11
-1.880000000e-02	1.340128518e-01	-2.501704570e-04	1.051165196e-11
-1.890000000e-02	1.340128524e-01	-2.488103192e-04	1.226572184e-11
-1.900000000e-02	1.340128530e-01	-2.474501813e-04	2.153740404e-11
-1.910000000e-02	1.340128535e-01	-2.460900432e-04	1.227991936e-11
-1.920000000e-02	1.340128540e-01	-2.447299051e-04	9.746891137e-12
-1.930000000e-02	1.340128545e-01	-2.433697669e-04	1.177438489e-11
-1.940000000e-02	1.340128549e-01	-2.420096286e-04	9.421024815e-12
-1.950000000e-02	1.340128553e-01	-2.406494902e-04	6.393136731e-11
-1.960000000e-02	1.340128556e-01	-2.392893517e-04	6.964274522e-12
-1.970000000e-02	1.340128559e-01	-2.379292131e-04	1.138529337e-11
-1.980000000e-02	1.340128562e-01	-2.365690744e-04	5.991611116e-12
-1.990000000e-02	1.340128564e-01	-2.352089356e-04	9.591698186e-12
-2.000000000e-02	1.340128565e-01	-2.338487968e-04	1.857999388e-11
-2.010000000e-02	1.340128567e-01	-2.324886578e-04	1.016042412e-11
-2.020000000e-02	1.340128567e-01	-2.311285188e-04	1.276607139e-11
-2.030000000e-02	1.340128568e-01	-2.297683797e-04	1.535570223e-11
-2.040000000e-02	1.340128568e-01	-2.284082405e-04	1.534632762e-11
-2.050000000e-02	1.340128568e-01	-2.270481013e-04	7.596674429e-12
-2.060000000e-02	1.340128567e-01	-2.256879620e-04	1.958563518e-11
-2.070000000e-02	1.340128566e-01	-2.243278226e-04	5.163634260e-12
-2.080000000e-02	1.340128564e-01	-2.229676831e-04	1.012017030e-11
-2.090000000e-02	1.340128562e-01	-2.216075436e-04	6.102618504e-12
-2.100000000e-02	1.340128559e-01	-2.202474040e-04	1.338524074e-11
-2.110000000e-02	1.340128557e-01	-2.188872644e-04	1.622029284e-11
-2.120000000e-02	1.340128553e-01	-2.175271247e-04	8.986923531e-12
-2.130000000e-02	1.340128550e-01	-2.161669849e-04	1.622443614e-11
-2.140000000e-02	1.340128545e-01	-2.148068451e-04	1.048141093e-11
-2.150000000e-02	1.340128541e-01	-2.134467052e-04	2.770684580e-11
-2.160000000e-02	1.340128536e-01	-2.120865653e-04	2.003235731e-11
-2.170000000e-02	1.340128531e-01	-2.107264253e-04	1.340648288e-11
-2.180000000e-02	1.340128525e-01	-2.093662853e-04	1.205194431e-11
-2.190000000e-02	1.340128519e-01	-2.080061452e-04	2.437153517e-11
-2.200000000e-02	1.340128512e-01	-2.066460051e-04	2.196230962e-11
-2.210000000e-02	1.340128505e-01	-2.052858649e-04	8.277842496e-12
-2.220000000e-02	1.340128498e-01	-2.039257248e-04	5.698747667e-12
-2.230000000e-02	1.340128490e-01	-2.025655845e-04	1.936672203e-11
-2.240000000e-02	1.340128482e-01	-2.012054443e-04	1.320742705e-11
-2.250000000e-02	1.340128473e-01	-1.998453040e-04	2.062346024e-11
-2.260000000e-02	1.340128464e-01	-1.984851637e-04	5.448500948e-12
-2.270000000e-02	1.340128454e-01	-1.971250233e-04	7.349988835e-12
-2.280000000e-02	1.340128444e-01	-1.957648829e-04	9.079533398e-12
-2.290000000e-02	1.340128434e-01	-1.944047425e-04	7.054947883e-12
-2.300000000e-02	1.340128423e-01	-1.930446021e-04	1.234314699e-11
-2.310000000e-02	1.340128412e-01	-1.916844616e-04	1.085473852e-11
-2.320000000e-02	1.340128401e-01	-1.903243212e-04	1.733833079e-11
-2.330000000e-02	1.340128389e-01	-1.889641807e-04	2.823131400e-11
-2.340000000e-02	1.340128376e-01	-1.876040402e-04	7.790844256e-11
-2.350000000e-02	1.340128364e-01	-1.862438997e-04	1.653502710e-11
-2.360000000e-02	1.340128350e-01	-1.848837592e-04	1.365845331e-11
-2.370000000e-02	1.340128337e-01	-1.835236187e-04	6.114414711e-12
-2.380000000e-02	1.340128323e-01	-1.821634781e-04	1.164908796e-11
-2.390000000e-02	1.340128308e-01	-1.808033376e-04	2.578057815e-11
-2.400000000e-02	1.340128294e-01	-1.794431971e-04	7.160429053e-12
-2.410000000e-02	1.340128278e-01	-1.780830566e-04	5.852999451e-12
-2.420000000e-02	1.340128263e-01	-1.767229160e-04	3.160359979e-11
-2.430000000e-02	1.340128247e-01	-1.753627755e-04	1.007355012e-11
-2.440000000e-02	1.340128230e-01	-1.740026350e-04	8.999564525e-12
-2.450000000e-02	1.340128213e-01	-1.726424945e-04	1.247605996e-11
-2.460000000e-02	1.340128196e-01	-1.712823540e-04	7.366061085e-12
-2.470000000e-02	1.340128178e-01	-1.699222135e-04	4.083644177e-11
-2.480000000e-02	1.340128160e-01	-1.685620730e-04	1.914285478e-11
-2.490000000e-02	1.340128141e-01	-1.672019326e-04	1.635407830e-11
-2.500000000e-02	1.340128122e-01	-1.658417922e-04	2.460865855e-11
-2.510000000e-02	1.340128103e-01	-1.644816518e-04	3.623273630e-11
-2.520000000e-02	1.340128083e-01	-1.631215114e-04	1.523447645e-11
-2.530000000e-02	1.340128063e-01	-1.617613710e-04	5.630210257e-12
-2.540000000e-02	1.340128042e-01	-1.604012307e-04	2.115771202e-11
-2.550000000e-02	1.340128021e-01	-1.590410904e-04	7.012458084e-11
-2.560000000e-02	1.340128000e-01	-1.576809501e-04	1.939537061e-11
-2.570000000e-02	1.340127978e-01	-1.563208099e-04	2.293764083e-11
-2.580000000e-02	1.340127956e-01	-1.549606697e-04	2.187311999e-11
-2.590000000e-02	1.340127933e-01	-1.536005295e-04	1.444520050e-11
-2.600000000e-02	1.340127910e-01	-1.522403894e-04	1.843130235e-11
-2.610000000e-02	1.340127886e-01	-1.508802493e-04	1.805740069e-11
-2.620000000e-02	1.340127862e-01	-1.495201093e-04	1.711204519e-11
-2.630000000e-02	1.340127838e-01	-1.481599693e-04	1.990038034e-11
-2.640000000e-02	1.340127813e-01	-1.467998294e-04	7.244159812e-12
-2.650000000e-02	1.340127788e-01	-1.454396895e-04	7.348013243e-11
-2.660000000e-02	1.340127763e-01	-1.440795497e-04	1.009858344e-11
-2.670000000e-02	1.340127737e-01	-1.427194099e-04	1.738165293e-11
-2.680000000e-02	1.340127710e-01	-1.413592702e-04	8.306763030e-12
-2.690000000e-02	1.340127683e-01	-1.399991305e-04	2.331305791e-11
-2.700000000e-02	1.340127656e-01	-1.386389909e-04	1.127169937e-11
-2.710000000e-02	1.340127628e-01	-1.372788514e-04	2.509106659e-11
-2.720000000e-02	1.340127600e-01	-1.359187119e-04	2.008179019e-11
-2.730000000e-02	1.340127572e-01	-1.345585725e-04	1.018752376e-11
-2.740000000e-02	1.340127543e-01	-1.331984332e-04	1.089723828e-11
-2.750000000e-02	1.340127514e-01	-1.318382939e-04	1.564186103e-11
-2.760000000e-02	1.340127484e-01	-1.304781547e-04	4.893837649e-11
-2.770000000e-02	1.340127454e-01	-1.291180156e-04	7.924802488e-12
-2.780000000e-02	1.340127423e-01	-1.277578766e-04	1.394631083e-11
-2.790000000e-02	1.340127392e-01	-1.263977376e-04	2.033567744e-11
-2.800000000e-02	1.340127361e-01	-1.250375988e-04	6.886085946e-12
-2.810000000e-02	1.340127329e-01	-1.236774600e-04	2.857400178e-11
-2.820000000e-02	1.340127297e-01	-1.223173213e-04	1.272956893e-11
-2.830000000e-02	1.340127264e-01	-1.209571826e-04	6.037578186e-11
-2.840000000e-02	1.340127231e-01	-1.195970441e-04	1.082190732e-11
-2.850000000e-02	1.340127198e-01	-1.182369057e-04	7.906048684e-12
-2.860000000e-02	1.340127164e-01	-1.168767674e-04	3.167669997e-11
-2.870000000e-02	1.340127130e-01	-1.155166291e-04	1.196843577e-11
-2.880000000e-02	1.340127095e-01	-1.141564910e-04	7.056326250e-12
-2.890000000e-02	1.340127060e-01	-1.127963529e-04	1.515884208e-11
-2.900000000e-02	1.340127025e-01	-1.114362150e-04	1.123785258e-11
-2.910000000e-02	1.340126989e-01	-1.100760772e-04	9.034706911e-12
-2.920000000e-02	1.340126952e-01	-1.087159395e-04	2.986813661e-11
-2.930000000e-02	1.340126916e-01	-1.073558018e-04	1.265737712e-11
-2.940000000e-02	1.340126878e-01	-1.059956643e-04	1.846745719e-11
-2.950000000e-02	1.340126841e-01	-1.046355270e-04	8.324435877e-12
-2.960000000e-02	1.340126803e-01	-1.032753897e-04	3.832868537e-12
-2.970000000e-02	1.340126764e-01	-1.019152525e-04	7.677754114e-12
-2.980000000e-02	1.340126726e-01	-1.005551155e-04	1.657951409e-11
-2.990000000e-02	1.340126686e-01	-9.919497857e-05	1.274372048e-11
-3.000000000e-02	1.340126647e-01	-9.783484178e-05	9.328419023e-12
