# Im(epsi1)     Re(omega/c)      Im(omega/c)      Eq(det).Opt det CON kz, R=0.5 \mum, mu_c=0.3, Re(epsi1)=3.90solve_det_conkz_vs_kz.py
0.000000000e+00	1.340090538e-01	-4.907747747e-04	9.686227204e-12
-1.000000000e-04	1.340090618e-01	-4.894142380e-04	1.826163515e-11
-2.000000000e-04	1.340090696e-01	-4.880537007e-04	1.705681141e-11
-3.000000000e-04	1.340090775e-01	-4.866931630e-04	5.617443973e-12
-4.000000000e-04	1.340090853e-01	-4.853326249e-04	1.125086986e-11
-5.000000000e-04	1.340090930e-01	-4.839720862e-04	2.466021707e-11
-6.000000000e-04	1.340091008e-01	-4.826115471e-04	1.270155885e-11
-7.000000000e-04	1.340091084e-01	-4.812510076e-04	6.286278420e-12
-8.000000000e-04	1.340091161e-01	-4.798904676e-04	1.102589993e-11
-9.000000000e-04	1.340091237e-01	-4.785299271e-04	1.699439318e-11
-1.000000000e-03	1.340091312e-01	-4.771693861e-04	4.074703098e-12
-1.100000000e-03	1.340091387e-01	-4.758088447e-04	2.211566372e-11
-1.200000000e-03	1.340091462e-01	-4.744483029e-04	1.176764797e-11
-1.300000000e-03	1.340091536e-01	-4.730877606e-04	9.565102730e-11
-1.400000000e-03	1.340091610e-01	-4.717272178e-04	1.873271840e-11
-1.500000000e-03	1.340091684e-01	-4.703666746e-04	6.528012491e-12
-1.600000000e-03	1.340091757e-01	-4.690061310e-04	1.000114532e-11
-1.700000000e-03	1.340091829e-01	-4.676455869e-04	8.590719518e-12
-1.800000000e-03	1.340091902e-01	-4.662850424e-04	1.217123315e-11
-1.900000000e-03	1.340091974e-01	-4.649244974e-04	2.099304720e-11
-2.000000000e-03	1.340092045e-01	-4.635639520e-04	6.649752887e-11
-2.100000000e-03	1.340092116e-01	-4.622034062e-04	8.433143831e-12
-2.200000000e-03	1.340092186e-01	-4.608428599e-04	1.314002414e-11
-2.300000000e-03	1.340092257e-01	-4.594823132e-04	8.452355404e-12
-2.400000000e-03	1.340092326e-01	-4.581217661e-04	2.083668480e-11
-2.500000000e-03	1.340092396e-01	-4.567612186e-04	1.033094643e-11
-2.600000000e-03	1.340092465e-01	-4.554006706e-04	1.236790420e-11
-2.700000000e-03	1.340092533e-01	-4.540401222e-04	3.148219583e-11
-2.800000000e-03	1.340092601e-01	-4.526795734e-04	3.147315771e-11
-2.900000000e-03	1.340092669e-01	-4.513190241e-04	4.228083842e-11
-3.000000000e-03	1.340092736e-01	-4.499584745e-04	1.589139302e-11
-3.100000000e-03	1.340092803e-01	-4.485979244e-04	1.092567766e-11
-3.200000000e-03	1.340092870e-01	-4.472373739e-04	8.142273356e-12
-3.300000000e-03	1.340092936e-01	-4.458768231e-04	2.813203597e-11
-3.400000000e-03	1.340093001e-01	-4.445162718e-04	1.436998870e-11
-3.500000000e-03	1.340093066e-01	-4.431557201e-04	8.871902740e-12
-3.600000000e-03	1.340093131e-01	-4.417951680e-04	1.362395869e-11
-3.700000000e-03	1.340093196e-01	-4.404346155e-04	1.465279219e-11
-3.800000000e-03	1.340093259e-01	-4.390740626e-04	8.178781046e-12
-3.900000000e-03	1.340093323e-01	-4.377135093e-04	1.979862107e-11
-4.000000000e-03	1.340093386e-01	-4.363529556e-04	1.420742624e-11
-4.100000000e-03	1.340093449e-01	-4.349924015e-04	1.876624972e-11
-4.200000000e-03	1.340093511e-01	-4.336318470e-04	8.584035394e-12
-4.300000000e-03	1.340093573e-01	-4.322712922e-04	1.265230684e-10
-4.400000000e-03	1.340093635e-01	-4.309107369e-04	4.408898623e-11
-4.500000000e-03	1.340093696e-01	-4.295501813e-04	6.394270134e-12
-4.600000000e-03	1.340093756e-01	-4.281896252e-04	5.786300223e-12
-4.700000000e-03	1.340093817e-01	-4.268290688e-04	1.757344924e-11
-4.800000000e-03	1.340093876e-01	-4.254685121e-04	1.171212212e-11
-4.900000000e-03	1.340093936e-01	-4.241079549e-04	1.254088614e-11
-5.000000000e-03	1.340093995e-01	-4.227473974e-04	7.643415852e-12
-5.100000000e-03	1.340094053e-01	-4.213868395e-04	3.139343806e-11
-5.200000000e-03	1.340094112e-01	-4.200262812e-04	2.737149954e-11
-5.300000000e-03	1.340094169e-01	-4.186657226e-04	1.728952666e-11
-5.400000000e-03	1.340094227e-01	-4.173051636e-04	1.730392640e-11
-5.500000000e-03	1.340094284e-01	-4.159446042e-04	1.313492927e-11
-5.600000000e-03	1.340094340e-01	-4.145840445e-04	1.676644514e-11
-5.700000000e-03	1.340094396e-01	-4.132234844e-04	8.699221737e-12
-5.800000000e-03	1.340094452e-01	-4.118629240e-04	1.043188986e-11
-5.900000000e-03	1.340094507e-01	-4.105023632e-04	2.129285411e-11
-6.000000000e-03	1.340094562e-01	-4.091418020e-04	4.008304626e-11
-6.100000000e-03	1.340094617e-01	-4.077812405e-04	1.171983532e-11
-6.200000000e-03	1.340094671e-01	-4.064206787e-04	1.797763163e-11
-6.300000000e-03	1.340094724e-01	-4.050601165e-04	1.538832104e-11
-6.400000000e-03	1.340094778e-01	-4.036995540e-04	2.222744972e-11
-6.500000000e-03	1.340094830e-01	-4.023389911e-04	9.082054022e-12
-6.600000000e-03	1.340094883e-01	-4.009784278e-04	8.606139539e-12
-6.700000000e-03	1.340094935e-01	-3.996178643e-04	1.092155213e-11
-6.800000000e-03	1.340094986e-01	-3.982573004e-04	3.102513560e-11
-6.900000000e-03	1.340095037e-01	-3.968967361e-04	1.272362122e-11
-7.000000000e-03	1.340095088e-01	-3.955361716e-04	2.263841556e-11
-7.100000000e-03	1.340095138e-01	-3.941756067e-04	1.492606777e-11
-7.200000000e-03	1.340095188e-01	-3.928150415e-04	1.842004849e-11
-7.300000000e-03	1.340095238e-01	-3.914544759e-04	1.136793265e-11
-7.400000000e-03	1.340095287e-01	-3.900939100e-04	9.441341302e-12
-7.500000000e-03	1.340095336e-01	-3.887333438e-04	3.580843420e-11
-7.600000000e-03	1.340095384e-01	-3.873727773e-04	1.909352148e-11
-7.700000000e-03	1.340095432e-01	-3.860122105e-04	5.820948500e-11
-7.800000000e-03	1.340095479e-01	-3.846516433e-04	2.230854048e-11
-7.900000000e-03	1.340095526e-01	-3.832910759e-04	8.118271040e-12
-8.000000000e-03	1.340095573e-01	-3.819305081e-04	1.786554034e-11
-8.100000000e-03	1.340095619e-01	-3.805699400e-04	1.911902095e-11
-8.200000000e-03	1.340095665e-01	-3.792093716e-04	1.114906169e-11
-8.300000000e-03	1.340095710e-01	-3.778488029e-04	1.030397523e-11
-8.400000000e-03	1.340095755e-01	-3.764882339e-04	2.676261125e-11
-8.500000000e-03	1.340095800e-01	-3.751276646e-04	1.296939165e-11
-8.600000000e-03	1.340095844e-01	-3.737670950e-04	1.394568312e-11
-8.700000000e-03	1.340095888e-01	-3.724065252e-04	4.684350163e-12
-8.800000000e-03	1.340095931e-01	-3.710459550e-04	1.723181635e-11
-8.900000000e-03	1.340095974e-01	-3.696853845e-04	8.802951866e-12
-9.000000000e-03	1.340096016e-01	-3.683248137e-04	9.540706587e-12
-9.100000000e-03	1.340096058e-01	-3.669642426e-04	1.322002000e-11
-9.200000000e-03	1.340096100e-01	-3.656036713e-04	9.333241796e-12
-9.300000000e-03	1.340096141e-01	-3.642430997e-04	5.383787033e-12
-9.400000000e-03	1.340096182e-01	-3.628825278e-04	1.911009242e-11
-9.500000000e-03	1.340096222e-01	-3.615219556e-04	5.398958462e-11
-9.600000000e-03	1.340096262e-01	-3.601613831e-04	2.663121816e-11
-9.700000000e-03	1.340096302e-01	-3.588008103e-04	3.718692198e-11
-9.800000000e-03	1.340096341e-01	-3.574402373e-04	1.677516903e-11
-9.900000000e-03	1.340096380e-01	-3.560796640e-04	1.631548920e-11
-1.000000000e-02	1.340096418e-01	-3.547190905e-04	8.476928111e-12
-1.010000000e-02	1.340096456e-01	-3.533585166e-04	2.441305536e-11
-1.020000000e-02	1.340096494e-01	-3.519979426e-04	2.282483085e-11
-1.030000000e-02	1.340096531e-01	-3.506373682e-04	1.101227466e-11
-1.040000000e-02	1.340096567e-01	-3.492767936e-04	1.067643902e-11
-1.050000000e-02	1.340096604e-01	-3.479162187e-04	2.348367622e-11
-1.060000000e-02	1.340096640e-01	-3.465556436e-04	9.424447612e-12
-1.070000000e-02	1.340096675e-01	-3.451950682e-04	6.620392838e-12
-1.080000000e-02	1.340096710e-01	-3.438344925e-04	1.194981916e-11
-1.090000000e-02	1.340096745e-01	-3.424739166e-04	6.248891997e-11
-1.100000000e-02	1.340096779e-01	-3.411133405e-04	9.519871822e-12
-1.110000000e-02	1.340096813e-01	-3.397527641e-04	1.428560963e-11
-1.120000000e-02	1.340096846e-01	-3.383921875e-04	1.342608101e-11
-1.130000000e-02	1.340096879e-01	-3.370316106e-04	1.774289270e-11
-1.140000000e-02	1.340096912e-01	-3.356710335e-04	1.514257668e-11
-1.150000000e-02	1.340096944e-01	-3.343104561e-04	1.742115202e-11
-1.160000000e-02	1.340096976e-01	-3.329498785e-04	8.265635399e-12
-1.170000000e-02	1.340097007e-01	-3.315893007e-04	2.116902221e-11
-1.180000000e-02	1.340097038e-01	-3.302287226e-04	9.582583612e-12
-1.190000000e-02	1.340097068e-01	-3.288681443e-04	1.187679449e-11
-1.200000000e-02	1.340097098e-01	-3.275075658e-04	1.421250637e-11
-1.210000000e-02	1.340097128e-01	-3.261469871e-04	4.687354972e-11
-1.220000000e-02	1.340097157e-01	-3.247864081e-04	1.422594992e-10
-1.230000000e-02	1.340097186e-01	-3.234258289e-04	9.457342138e-12
-1.240000000e-02	1.340097214e-01	-3.220652495e-04	4.745358021e-11
-1.250000000e-02	1.340097243e-01	-3.207046699e-04	7.670296970e-12
-1.260000000e-02	1.340097270e-01	-3.193440901e-04	1.924012886e-11
-1.270000000e-02	1.340097297e-01	-3.179835100e-04	9.651128560e-12
-1.280000000e-02	1.340097324e-01	-3.166229297e-04	2.488643406e-11
-1.290000000e-02	1.340097350e-01	-3.152623493e-04	1.247608419e-11
-1.300000000e-02	1.340097376e-01	-3.139017686e-04	8.970958720e-12
-1.310000000e-02	1.340097402e-01	-3.125411877e-04	1.608157616e-11
-1.320000000e-02	1.340097427e-01	-3.111806066e-04	1.541328678e-11
-1.330000000e-02	1.340097452e-01	-3.098200253e-04	3.242731892e-11
-1.340000000e-02	1.340097476e-01	-3.084594438e-04	1.168180388e-11
-1.350000000e-02	1.340097500e-01	-3.070988621e-04	5.022891012e-11
-1.360000000e-02	1.340097523e-01	-3.057382803e-04	1.130371479e-11
-1.370000000e-02	1.340097546e-01	-3.043776982e-04	3.755142098e-11
-1.380000000e-02	1.340097569e-01	-3.030171159e-04	4.704146867e-11
-1.390000000e-02	1.340097591e-01	-3.016565335e-04	1.355082604e-11
-1.400000000e-02	1.340097613e-01	-3.002959509e-04	2.110143234e-11
-1.410000000e-02	1.340097635e-01	-2.989353680e-04	2.663735467e-11
-1.420000000e-02	1.340097655e-01	-2.975747850e-04	7.983990278e-12
-1.430000000e-02	1.340097676e-01	-2.962142019e-04	2.111345611e-11
-1.440000000e-02	1.340097696e-01	-2.948536185e-04	9.530145450e-12
-1.450000000e-02	1.340097716e-01	-2.934930350e-04	1.001896459e-11
-1.460000000e-02	1.340097735e-01	-2.921324513e-04	1.914269736e-11
-1.470000000e-02	1.340097754e-01	-2.907718674e-04	9.172415190e-12
-1.480000000e-02	1.340097773e-01	-2.894112833e-04	2.187997588e-11
-1.490000000e-02	1.340097791e-01	-2.880506991e-04	9.538072292e-12
-1.500000000e-02	1.340097809e-01	-2.866901147e-04	1.843587189e-11
-1.510000000e-02	1.340097826e-01	-2.853295302e-04	2.305007625e-11
-1.520000000e-02	1.340097843e-01	-2.839689455e-04	2.486120543e-11
-1.530000000e-02	1.340097859e-01	-2.826083606e-04	2.167165073e-11
-1.540000000e-02	1.340097875e-01	-2.812477756e-04	2.497510656e-11
-1.550000000e-02	1.340097891e-01	-2.798871904e-04	1.658152124e-11
-1.560000000e-02	1.340097906e-01	-2.785266051e-04	2.145663562e-11
-1.570000000e-02	1.340097921e-01	-2.771660196e-04	1.375886776e-11
-1.580000000e-02	1.340097935e-01	-2.758054340e-04	2.858615474e-11
-1.590000000e-02	1.340097949e-01	-2.744448482e-04	1.083715001e-11
-1.600000000e-02	1.340097963e-01	-2.730842623e-04	2.289050521e-11
-1.610000000e-02	1.340097976e-01	-2.717236762e-04	9.743846444e-12
-1.620000000e-02	1.340097988e-01	-2.703630900e-04	1.913472182e-11
-1.630000000e-02	1.340098001e-01	-2.690025037e-04	1.288809800e-11
-1.640000000e-02	1.340098013e-01	-2.676419172e-04	1.451726686e-11
-1.650000000e-02	1.340098024e-01	-2.662813306e-04	1.277642078e-11
-1.660000000e-02	1.340098035e-01	-2.649207438e-04	1.083968208e-11
-1.670000000e-02	1.340098046e-01	-2.635601570e-04	1.612121555e-11
-1.680000000e-02	1.340098056e-01	-2.621995700e-04	2.111071193e-11
-1.690000000e-02	1.340098066e-01	-2.608389828e-04	1.318389165e-11
-1.700000000e-02	1.340098075e-01	-2.594783956e-04	1.148378386e-11
-1.710000000e-02	1.340098084e-01	-2.581178082e-04	1.144185301e-11
-1.720000000e-02	1.340098093e-01	-2.567572207e-04	1.436539278e-11
-1.730000000e-02	1.340098101e-01	-2.553966330e-04	5.424748045e-10
-1.740000000e-02	1.340098109e-01	-2.540360454e-04	6.687453422e-12
-1.750000000e-02	1.340098116e-01	-2.526754575e-04	6.373742855e-12
-1.760000000e-02	1.340098123e-01	-2.513148696e-04	7.687414717e-12
-1.770000000e-02	1.340098130e-01	-2.499542815e-04	1.411723282e-11
-1.780000000e-02	1.340098136e-01	-2.485936934e-04	7.888741163e-12
-1.790000000e-02	1.340098142e-01	-2.472331051e-04	4.278762844e-12
-1.800000000e-02	1.340098147e-01	-2.458725167e-04	2.140000839e-11
-1.810000000e-02	1.340098152e-01	-2.445119283e-04	1.346029300e-11
-1.820000000e-02	1.340098156e-01	-2.431513396e-04	4.929622410e-10
-1.830000000e-02	1.340098160e-01	-2.417907510e-04	1.962077723e-11
-1.840000000e-02	1.340098164e-01	-2.404301623e-04	6.964745982e-12
-1.850000000e-02	1.340098167e-01	-2.390695734e-04	5.688820841e-12
-1.860000000e-02	1.340098170e-01	-2.377089845e-04	1.167336217e-11
-1.870000000e-02	1.340098172e-01	-2.363483954e-04	1.342413951e-11
-1.880000000e-02	1.340098174e-01	-2.349878063e-04	1.262442598e-11
-1.890000000e-02	1.340098176e-01	-2.336272171e-04	5.870173610e-12
-1.900000000e-02	1.340098177e-01	-2.322666278e-04	9.208452797e-12
-1.910000000e-02	1.340098178e-01	-2.309060385e-04	3.444352888e-11
-1.920000000e-02	1.340098178e-01	-2.295454490e-04	6.991565037e-12
-1.930000000e-02	1.340098178e-01	-2.281848595e-04	7.760779425e-12
-1.940000000e-02	1.340098177e-01	-2.268242699e-04	1.301539123e-11
-1.950000000e-02	1.340098176e-01	-2.254636803e-04	1.345378823e-11
-1.960000000e-02	1.340098175e-01	-2.241030905e-04	1.898761522e-11
-1.970000000e-02	1.340098173e-01	-2.227425007e-04	1.671772141e-11
-1.980000000e-02	1.340098171e-01	-2.213819108e-04	5.675848797e-10
-1.990000000e-02	1.340098169e-01	-2.200213210e-04	1.443685559e-11
-2.000000000e-02	1.340098166e-01	-2.186607310e-04	6.139857632e-12
-2.010000000e-02	1.340098162e-01	-2.173001409e-04	1.256868925e-11
-2.020000000e-02	1.340098159e-01	-2.159395508e-04	8.504803017e-12
-2.030000000e-02	1.340098154e-01	-2.145789607e-04	1.187939516e-11
-2.040000000e-02	1.340098150e-01	-2.132183704e-04	1.320537699e-11
-2.050000000e-02	1.340098145e-01	-2.118577802e-04	1.874095557e-11
-2.060000000e-02	1.340098139e-01	-2.104971899e-04	9.524967396e-12
-2.070000000e-02	1.340098133e-01	-2.091365995e-04	7.468612146e-12
-2.080000000e-02	1.340098127e-01	-2.077760091e-04	9.196308322e-12
-2.090000000e-02	1.340098120e-01	-2.064154187e-04	1.548655825e-11
-2.100000000e-02	1.340098113e-01	-2.050548282e-04	1.158700381e-11
-2.110000000e-02	1.340098106e-01	-2.036942377e-04	6.868228537e-12
-2.120000000e-02	1.340098098e-01	-2.023336471e-04	1.825848024e-11
-2.130000000e-02	1.340098089e-01	-2.009730565e-04	3.687280057e-11
-2.140000000e-02	1.340098081e-01	-1.996124659e-04	9.277420430e-11
-2.150000000e-02	1.340098071e-01	-1.982518753e-04	3.832601500e-11
-2.160000000e-02	1.340098062e-01	-1.968912846e-04	2.136978523e-11
-2.170000000e-02	1.340098052e-01	-1.955306939e-04	8.902622740e-12
-2.180000000e-02	1.340098041e-01	-1.941701032e-04	2.147014949e-11
-2.190000000e-02	1.340098031e-01	-1.928095124e-04	3.588796305e-11
-2.200000000e-02	1.340098019e-01	-1.914489216e-04	1.206542473e-11
-2.210000000e-02	1.340098008e-01	-1.900883308e-04	1.786334096e-11
-2.220000000e-02	1.340097996e-01	-1.887277400e-04	5.121312245e-11
-2.230000000e-02	1.340097983e-01	-1.873671492e-04	5.136816394e-12
-2.240000000e-02	1.340097970e-01	-1.860065584e-04	5.719520310e-12
-2.250000000e-02	1.340097957e-01	-1.846459676e-04	2.151437249e-11
-2.260000000e-02	1.340097943e-01	-1.832853767e-04	1.181854476e-11
-2.270000000e-02	1.340097929e-01	-1.819247859e-04	2.201397513e-11
-2.280000000e-02	1.340097914e-01	-1.805641951e-04	2.475407245e-11
-2.290000000e-02	1.340097899e-01	-1.792036042e-04	1.855376725e-11
-2.300000000e-02	1.340097884e-01	-1.778430134e-04	1.527625099e-11
-2.310000000e-02	1.340097868e-01	-1.764824225e-04	2.262528538e-11
-2.320000000e-02	1.340097852e-01	-1.751218317e-04	8.322762200e-12
-2.330000000e-02	1.340097835e-01	-1.737612409e-04	1.231923552e-11
-2.340000000e-02	1.340097818e-01	-1.724006500e-04	4.405277821e-11
-2.350000000e-02	1.340097801e-01	-1.710400592e-04	1.149305118e-11
-2.360000000e-02	1.340097783e-01	-1.696794684e-04	1.131734702e-11
-2.370000000e-02	1.340097765e-01	-1.683188777e-04	1.281464614e-11
-2.380000000e-02	1.340097746e-01	-1.669582869e-04	4.951246630e-11
-2.390000000e-02	1.340097727e-01	-1.655976962e-04	9.197417574e-12
-2.400000000e-02	1.340097708e-01	-1.642371055e-04	2.705238044e-11
-2.410000000e-02	1.340097688e-01	-1.628765148e-04	3.507940160e-11
-2.420000000e-02	1.340097667e-01	-1.615159241e-04	3.488455183e-11
-2.430000000e-02	1.340097647e-01	-1.601553335e-04	5.539690062e-11
-2.440000000e-02	1.340097625e-01	-1.587947429e-04	2.768759593e-11
-2.450000000e-02	1.340097604e-01	-1.574341523e-04	1.192905809e-11
-2.460000000e-02	1.340097582e-01	-1.560735618e-04	5.547668935e-12
-2.470000000e-02	1.340097559e-01	-1.547129713e-04	4.621371548e-11
-2.480000000e-02	1.340097537e-01	-1.533523808e-04	1.263381752e-11
-2.490000000e-02	1.340097513e-01	-1.519917904e-04	1.574890062e-11
-2.500000000e-02	1.340097490e-01	-1.506312000e-04	1.115203342e-11
-2.510000000e-02	1.340097466e-01	-1.492706097e-04	8.409283429e-12
-2.520000000e-02	1.340097441e-01	-1.479100194e-04	1.000342222e-11
-2.530000000e-02	1.340097416e-01	-1.465494292e-04	5.244873719e-12
-2.540000000e-02	1.340097391e-01	-1.451888390e-04	9.693973719e-12
-2.550000000e-02	1.340097365e-01	-1.438282489e-04	1.570162109e-11
-2.560000000e-02	1.340097339e-01	-1.424676588e-04	9.954055523e-12
-2.570000000e-02	1.340097313e-01	-1.411070688e-04	8.799953812e-12
-2.580000000e-02	1.340097286e-01	-1.397464788e-04	2.100551597e-11
-2.590000000e-02	1.340097258e-01	-1.383858889e-04	7.460891077e-12
-2.600000000e-02	1.340097231e-01	-1.370252991e-04	1.392671593e-11
-2.610000000e-02	1.340097202e-01	-1.356647093e-04	1.037797736e-11
-2.620000000e-02	1.340097174e-01	-1.343041197e-04	1.442948263e-11
-2.630000000e-02	1.340097145e-01	-1.329435300e-04	1.929158573e-11
-2.640000000e-02	1.340097115e-01	-1.315829405e-04	9.285327425e-12
-2.650000000e-02	1.340097085e-01	-1.302223510e-04	1.125620409e-11
-2.660000000e-02	1.340097055e-01	-1.288617616e-04	1.245577614e-11
-2.670000000e-02	1.340097025e-01	-1.275011723e-04	2.152087273e-11
-2.680000000e-02	1.340096993e-01	-1.261405831e-04	1.504145688e-11
-2.690000000e-02	1.340096962e-01	-1.247799939e-04	8.454047372e-12
-2.700000000e-02	1.340096930e-01	-1.234194048e-04	7.961099995e-12
-2.710000000e-02	1.340096898e-01	-1.220588158e-04	1.077641071e-11
-2.720000000e-02	1.340096865e-01	-1.206982270e-04	2.013299532e-11
-2.730000000e-02	1.340096832e-01	-1.193376382e-04	1.084480063e-11
-2.740000000e-02	1.340096798e-01	-1.179770494e-04	1.056203256e-11
-2.750000000e-02	1.340096764e-01	-1.166164608e-04	7.460729688e-12
-2.760000000e-02	1.340096730e-01	-1.152558723e-04	1.166971132e-11
-2.770000000e-02	1.340096695e-01	-1.138952839e-04	1.913285556e-11
-2.780000000e-02	1.340096660e-01	-1.125346956e-04	1.263666772e-11
-2.790000000e-02	1.340096624e-01	-1.111741074e-04	1.280648401e-11
-2.800000000e-02	1.340096588e-01	-1.098135193e-04	1.091447277e-11
-2.810000000e-02	1.340096552e-01	-1.084529313e-04	6.863491445e-12
-2.820000000e-02	1.340096515e-01	-1.070923434e-04	2.133314536e-11
-2.830000000e-02	1.340096478e-01	-1.057317556e-04	1.113972080e-11
-2.840000000e-02	1.340096440e-01	-1.043711680e-04	1.350875124e-11
-2.850000000e-02	1.340096402e-01	-1.030105804e-04	6.995331522e-12
-2.860000000e-02	1.340096363e-01	-1.016499930e-04	9.056020565e-12
-2.870000000e-02	1.340096324e-01	-1.002894057e-04	1.148063223e-11
-2.880000000e-02	1.340096285e-01	-9.892881853e-05	3.374396874e-11
-2.890000000e-02	1.340096245e-01	-9.756823146e-05	1.354670425e-11
-2.900000000e-02	1.340096205e-01	-9.620764453e-05	2.736488207e-11
-2.910000000e-02	1.340096165e-01	-9.484705773e-05	2.328652659e-11
-2.920000000e-02	1.340096124e-01	-9.348647106e-05	1.856235900e-11
-2.930000000e-02	1.340096082e-01	-9.212588453e-05	1.564071318e-11
-2.940000000e-02	1.340096040e-01	-9.076529813e-05	2.009539875e-11
-2.950000000e-02	1.340095998e-01	-8.940471186e-05	2.348844099e-11
-2.960000000e-02	1.340095955e-01	-8.804412573e-05	5.925585512e-11
-2.970000000e-02	1.340095912e-01	-8.668353976e-05	1.005322740e-11
-2.980000000e-02	1.340095869e-01	-8.532295392e-05	1.802288782e-11
-2.990000000e-02	1.340095825e-01	-8.396236822e-05	1.643197940e-11
-3.000000000e-02	1.340095781e-01	-8.260178268e-05	1.277246276e-11
