# Im(epsi1)     Re(omega/c)      Im(omega/c)      Eq(det).Opt det CON kz, R=0.5 \mum, mu_c=0.3, Re(epsi1)=3.90solve_det_conkz_vs_kz.py
0.000000000e+00	1.340100357e-01	-4.943186498e-04	7.912199748e-12
-1.000000000e-04	1.340100438e-01	-4.929582194e-04	1.399063352e-11
-2.000000000e-04	1.340100517e-01	-4.915977886e-04	9.064143331e-12
-3.000000000e-04	1.340100597e-01	-4.902373572e-04	5.132607694e-11
-4.000000000e-04	1.340100676e-01	-4.888769254e-04	2.920628240e-11
-5.000000000e-04	1.340100755e-01	-4.875164931e-04	9.393592093e-12
-6.000000000e-04	1.340100833e-01	-4.861560603e-04	6.853561750e-12
-7.000000000e-04	1.340100911e-01	-4.847956271e-04	3.260720940e-11
-8.000000000e-04	1.340100988e-01	-4.834351934e-04	2.095972201e-11
-9.000000000e-04	1.340101065e-01	-4.820747592e-04	6.705143611e-12
-1.000000000e-03	1.340101142e-01	-4.807143246e-04	8.100303878e-12
-1.100000000e-03	1.340101218e-01	-4.793538895e-04	1.301371481e-11
-1.200000000e-03	1.340101294e-01	-4.779934540e-04	1.110880024e-11
-1.300000000e-03	1.340101369e-01	-4.766330180e-04	1.124815759e-11
-1.400000000e-03	1.340101444e-01	-4.752725815e-04	8.724694374e-12
-1.500000000e-03	1.340101519e-01	-4.739121446e-04	1.001906744e-11
-1.600000000e-03	1.340101593e-01	-4.725517072e-04	1.060458466e-11
-1.700000000e-03	1.340101667e-01	-4.711912694e-04	2.673678716e-11
-1.800000000e-03	1.340101740e-01	-4.698308312e-04	7.307667440e-12
-1.900000000e-03	1.340101813e-01	-4.684703925e-04	1.149366457e-11
-2.000000000e-03	1.340101885e-01	-4.671099533e-04	1.075579407e-11
-2.100000000e-03	1.340101957e-01	-4.657495138e-04	1.314913882e-10
-2.200000000e-03	1.340102029e-01	-4.643890737e-04	1.199420084e-11
-2.300000000e-03	1.340102100e-01	-4.630286332e-04	2.789067834e-11
-2.400000000e-03	1.340102171e-01	-4.616681924e-04	1.463617116e-11
-2.500000000e-03	1.340102242e-01	-4.603077510e-04	1.474530441e-11
-2.600000000e-03	1.340102312e-01	-4.589473093e-04	1.345728134e-11
-2.700000000e-03	1.340102381e-01	-4.575868671e-04	1.673723379e-11
-2.800000000e-03	1.340102450e-01	-4.562264245e-04	1.436353090e-11
-2.900000000e-03	1.340102519e-01	-4.548659815e-04	1.123536380e-11
-3.000000000e-03	1.340102588e-01	-4.535055380e-04	1.543988284e-11
-3.100000000e-03	1.340102655e-01	-4.521450942e-04	1.753210782e-11
-3.200000000e-03	1.340102723e-01	-4.507846499e-04	1.262788720e-11
-3.300000000e-03	1.340102790e-01	-4.494242052e-04	2.508214322e-11
-3.400000000e-03	1.340102857e-01	-4.480637601e-04	1.285652082e-11
-3.500000000e-03	1.340102923e-01	-4.467033145e-04	1.083754212e-11
-3.600000000e-03	1.340102989e-01	-4.453428686e-04	3.162332315e-11
-3.700000000e-03	1.340103054e-01	-4.439824223e-04	2.596036163e-11
-3.800000000e-03	1.340103119e-01	-4.426219755e-04	1.348906548e-11
-3.900000000e-03	1.340103184e-01	-4.412615284e-04	8.729230624e-12
-4.000000000e-03	1.340103248e-01	-4.399010808e-04	3.295780977e-11
-4.100000000e-03	1.340103312e-01	-4.385406329e-04	1.982704089e-11
-4.200000000e-03	1.340103376e-01	-4.371801846e-04	7.861396093e-12
-4.300000000e-03	1.340103439e-01	-4.358197358e-04	7.337660693e-12
-4.400000000e-03	1.340103501e-01	-4.344592867e-04	6.031218295e-11
-4.500000000e-03	1.340103563e-01	-4.330988372e-04	8.311869977e-12
-4.600000000e-03	1.340103625e-01	-4.317383873e-04	1.439942201e-11
-4.700000000e-03	1.340103686e-01	-4.303779370e-04	1.237676767e-11
-4.800000000e-03	1.340103747e-01	-4.290174863e-04	1.048811845e-11
-4.900000000e-03	1.340103808e-01	-4.276570353e-04	3.145298615e-11
-5.000000000e-03	1.340103868e-01	-4.262965838e-04	1.852053885e-11
-5.100000000e-03	1.340103927e-01	-4.249361320e-04	7.568517379e-12
-5.200000000e-03	1.340103987e-01	-4.235756798e-04	1.477792440e-11
-5.300000000e-03	1.340104046e-01	-4.222152273e-04	1.160340928e-11
-5.400000000e-03	1.340104104e-01	-4.208547743e-04	1.441456890e-11
-5.500000000e-03	1.340104162e-01	-4.194943210e-04	2.013338534e-11
-5.600000000e-03	1.340104220e-01	-4.181338674e-04	3.994796503e-11
-5.700000000e-03	1.340104277e-01	-4.167734134e-04	1.823904255e-11
-5.800000000e-03	1.340104334e-01	-4.154129590e-04	1.725053275e-11
-5.900000000e-03	1.340104390e-01	-4.140525042e-04	1.197765319e-11
-6.000000000e-03	1.340104446e-01	-4.126920491e-04	3.011855156e-11
-6.100000000e-03	1.340104502e-01	-4.113315936e-04	6.526602130e-12
-6.200000000e-03	1.340104557e-01	-4.099711378e-04	8.403929985e-12
-6.300000000e-03	1.340104611e-01	-4.086106816e-04	1.227162224e-11
-6.400000000e-03	1.340104666e-01	-4.072502251e-04	1.001910407e-11
-6.500000000e-03	1.340104720e-01	-4.058897682e-04	8.836135030e-12
-6.600000000e-03	1.340104773e-01	-4.045293110e-04	2.315902701e-11
-6.700000000e-03	1.340104826e-01	-4.031688534e-04	1.166656546e-11
-6.800000000e-03	1.340104879e-01	-4.018083955e-04	2.911986827e-11
-6.900000000e-03	1.340104931e-01	-4.004479373e-04	6.117311741e-12
-7.000000000e-03	1.340104983e-01	-3.990874787e-04	1.426614270e-11
-7.100000000e-03	1.340105034e-01	-3.977270198e-04	7.512092250e-12
-7.200000000e-03	1.340105085e-01	-3.963665605e-04	1.201817753e-11
-7.300000000e-03	1.340105136e-01	-3.950061009e-04	1.129977604e-11
-7.400000000e-03	1.340105186e-01	-3.936456410e-04	1.449402064e-11
-7.500000000e-03	1.340105236e-01	-3.922851808e-04	1.087854590e-11
-7.600000000e-03	1.340105285e-01	-3.909247202e-04	2.815275764e-11
-7.700000000e-03	1.340105334e-01	-3.895642593e-04	1.360249528e-11
-7.800000000e-03	1.340105383e-01	-3.882037981e-04	1.327163904e-11
-7.900000000e-03	1.340105431e-01	-3.868433366e-04	5.512234512e-12
-8.000000000e-03	1.340105478e-01	-3.854828747e-04	8.901525959e-11
-8.100000000e-03	1.340105526e-01	-3.841224126e-04	1.215869321e-11
-8.200000000e-03	1.340105573e-01	-3.827619501e-04	9.140935571e-12
-8.300000000e-03	1.340105619e-01	-3.814014873e-04	9.204677107e-12
-8.400000000e-03	1.340105665e-01	-3.800410242e-04	1.339344133e-11
-8.500000000e-03	1.340105711e-01	-3.786805608e-04	3.079677281e-11
-8.600000000e-03	1.340105756e-01	-3.773200971e-04	1.915592167e-11
-8.700000000e-03	1.340105801e-01	-3.759596331e-04	9.078449732e-12
-8.800000000e-03	1.340105845e-01	-3.745991688e-04	2.011158954e-11
-8.900000000e-03	1.340105889e-01	-3.732387042e-04	9.341098569e-12
-9.000000000e-03	1.340105933e-01	-3.718782393e-04	9.532978122e-11
-9.100000000e-03	1.340105976e-01	-3.705177741e-04	8.844703696e-12
-9.200000000e-03	1.340106018e-01	-3.691573086e-04	1.073647453e-11
-9.300000000e-03	1.340106061e-01	-3.677968429e-04	1.174149069e-11
-9.400000000e-03	1.340106103e-01	-3.664363768e-04	2.445612517e-11
-9.500000000e-03	1.340106144e-01	-3.650759105e-04	1.093878779e-11
-9.600000000e-03	1.340106185e-01	-3.637154438e-04	1.331612888e-11
-9.700000000e-03	1.340106226e-01	-3.623549769e-04	1.043633683e-11
-9.800000000e-03	1.340106266e-01	-3.609945097e-04	1.185175906e-10
-9.900000000e-03	1.340106306e-01	-3.596340422e-04	7.821992362e-12
-1.000000000e-02	1.340106345e-01	-3.582735745e-04	6.660782595e-12
-1.010000000e-02	1.340106384e-01	-3.569131065e-04	7.285492968e-12
-1.020000000e-02	1.340106423e-01	-3.555526382e-04	1.773274683e-11
-1.030000000e-02	1.340106461e-01	-3.541921696e-04	2.241276506e-11
-1.040000000e-02	1.340106499e-01	-3.528317008e-04	6.174363826e-12
-1.050000000e-02	1.340106536e-01	-3.514712317e-04	7.949591154e-12
-1.060000000e-02	1.340106573e-01	-3.501107624e-04	3.172696668e-11
-1.070000000e-02	1.340106610e-01	-3.487502928e-04	2.893381127e-11
-1.080000000e-02	1.340106646e-01	-3.473898229e-04	1.438394933e-11
-1.090000000e-02	1.340106682e-01	-3.460293528e-04	9.048522476e-12
-1.100000000e-02	1.340106717e-01	-3.446688824e-04	2.021513173e-10
-1.110000000e-02	1.340106752e-01	-3.433084117e-04	1.891123416e-11
-1.120000000e-02	1.340106786e-01	-3.419479409e-04	2.633778717e-11
-1.130000000e-02	1.340106820e-01	-3.405874697e-04	2.554594877e-11
-1.140000000e-02	1.340106854e-01	-3.392269984e-04	4.288593236e-12
-1.150000000e-02	1.340106887e-01	-3.378665267e-04	1.220531565e-11
-1.160000000e-02	1.340106920e-01	-3.365060549e-04	9.003586052e-12
-1.170000000e-02	1.340106953e-01	-3.351455828e-04	1.025225915e-11
-1.180000000e-02	1.340106985e-01	-3.337851104e-04	3.382162183e-11
-1.190000000e-02	1.340107016e-01	-3.324246378e-04	7.658949534e-12
-1.200000000e-02	1.340107047e-01	-3.310641650e-04	2.008274092e-11
-1.210000000e-02	1.340107078e-01	-3.297036920e-04	8.406960576e-12
-1.220000000e-02	1.340107108e-01	-3.283432187e-04	8.532243551e-12
-1.230000000e-02	1.340107138e-01	-3.269827452e-04	1.421079141e-11
-1.240000000e-02	1.340107168e-01	-3.256222715e-04	1.641437450e-11
-1.250000000e-02	1.340107197e-01	-3.242617976e-04	2.666535404e-11
-1.260000000e-02	1.340107226e-01	-3.229013234e-04	9.730870436e-12
-1.270000000e-02	1.340107254e-01	-3.215408490e-04	1.089875246e-11
-1.280000000e-02	1.340107282e-01	-3.201803744e-04	1.351865613e-11
-1.290000000e-02	1.340107309e-01	-3.188198996e-04	1.486353310e-11
-1.300000000e-02	1.340107336e-01	-3.174594246e-04	1.786455199e-11
-1.310000000e-02	1.340107363e-01	-3.160989493e-04	1.200334120e-11
-1.320000000e-02	1.340107389e-01	-3.147384739e-04	8.323625462e-12
-1.330000000e-02	1.340107415e-01	-3.133779982e-04	7.056446540e-12
-1.340000000e-02	1.340107440e-01	-3.120175224e-04	1.137933143e-11
-1.350000000e-02	1.340107465e-01	-3.106570463e-04	2.828704582e-11
-1.360000000e-02	1.340107490e-01	-3.092965700e-04	1.188071404e-11
-1.370000000e-02	1.340107514e-01	-3.079360936e-04	2.597295481e-11
-1.380000000e-02	1.340107538e-01	-3.065756169e-04	1.107578436e-11
-1.390000000e-02	1.340107561e-01	-3.052151401e-04	2.403662446e-11
-1.400000000e-02	1.340107584e-01	-3.038546630e-04	6.017871119e-12
-1.410000000e-02	1.340107606e-01	-3.024941858e-04	3.450086643e-11
-1.420000000e-02	1.340107628e-01	-3.011337084e-04	1.069568795e-11
-1.430000000e-02	1.340107650e-01	-2.997732308e-04	2.151817537e-11
-1.440000000e-02	1.340107671e-01	-2.984127530e-04	1.276939026e-11
-1.450000000e-02	1.340107692e-01	-2.970522750e-04	7.793740754e-11
-1.460000000e-02	1.340107713e-01	-2.956917969e-04	1.256838524e-11
-1.470000000e-02	1.340107733e-01	-2.943313186e-04	8.472186264e-12
-1.480000000e-02	1.340107752e-01	-2.929708401e-04	1.928390454e-11
-1.490000000e-02	1.340107771e-01	-2.916103614e-04	9.489431616e-12
-1.500000000e-02	1.340107790e-01	-2.902498826e-04	1.513112106e-11
-1.510000000e-02	1.340107809e-01	-2.888894035e-04	3.568130397e-11
-1.520000000e-02	1.340107827e-01	-2.875289244e-04	9.228915543e-12
-1.530000000e-02	1.340107844e-01	-2.861684450e-04	2.123445329e-11
-1.540000000e-02	1.340107861e-01	-2.848079655e-04	4.836110428e-12
-1.550000000e-02	1.340107878e-01	-2.834474859e-04	9.777963244e-12
-1.560000000e-02	1.340107894e-01	-2.820870060e-04	1.136804761e-11
-1.570000000e-02	1.340107910e-01	-2.807265261e-04	2.504023383e-11
-1.580000000e-02	1.340107926e-01	-2.793660459e-04	7.489312241e-12
-1.590000000e-02	1.340107941e-01	-2.780055656e-04	7.467665332e-12
-1.600000000e-02	1.340107955e-01	-2.766450852e-04	1.520572015e-11
-1.610000000e-02	1.340107969e-01	-2.752846046e-04	1.086870799e-11
-1.620000000e-02	1.340107983e-01	-2.739241239e-04	7.680369505e-12
-1.630000000e-02	1.340107997e-01	-2.725636430e-04	1.262318297e-11
-1.640000000e-02	1.340108010e-01	-2.712031620e-04	3.309737136e-11
-1.650000000e-02	1.340108022e-01	-2.698426808e-04	3.584386686e-11
-1.660000000e-02	1.340108034e-01	-2.684821995e-04	1.464401316e-11
-1.670000000e-02	1.340108046e-01	-2.671217181e-04	9.334388223e-12
-1.680000000e-02	1.340108057e-01	-2.657612366e-04	7.209250774e-12
-1.690000000e-02	1.340108068e-01	-2.644007549e-04	1.099168361e-11
-1.700000000e-02	1.340108079e-01	-2.630402730e-04	2.196069032e-11
-1.710000000e-02	1.340108089e-01	-2.616797911e-04	1.039382644e-11
-1.720000000e-02	1.340108099e-01	-2.603193090e-04	3.387299063e-11
-1.730000000e-02	1.340108108e-01	-2.589588268e-04	1.426242991e-11
-1.740000000e-02	1.340108117e-01	-2.575983445e-04	1.805843093e-11
-1.750000000e-02	1.340108125e-01	-2.562378621e-04	5.061045275e-12
-1.760000000e-02	1.340108133e-01	-2.548773795e-04	2.082526439e-11
-1.770000000e-02	1.340108141e-01	-2.535168969e-04	1.350417927e-11
-1.780000000e-02	1.340108148e-01	-2.521564141e-04	7.658607032e-12
-1.790000000e-02	1.340108155e-01	-2.507959312e-04	1.142249719e-11
-1.800000000e-02	1.340108161e-01	-2.494354482e-04	2.845570970e-11
-1.810000000e-02	1.340108167e-01	-2.480749651e-04	1.577849850e-11
-1.820000000e-02	1.340108173e-01	-2.467144819e-04	1.571117067e-11
-1.830000000e-02	1.340108178e-01	-2.453539986e-04	1.255912230e-11
-1.840000000e-02	1.340108183e-01	-2.439935152e-04	1.162024341e-11
-1.850000000e-02	1.340108187e-01	-2.426330317e-04	1.004599427e-11
-1.860000000e-02	1.340108191e-01	-2.412725481e-04	1.021645118e-11
-1.870000000e-02	1.340108194e-01	-2.399120644e-04	3.206269716e-11
-1.880000000e-02	1.340108197e-01	-2.385515806e-04	1.503786111e-11
-1.890000000e-02	1.340108200e-01	-2.371910967e-04	1.051292614e-11
-1.900000000e-02	1.340108202e-01	-2.358306127e-04	1.052973192e-11
-1.910000000e-02	1.340108204e-01	-2.344701287e-04	3.057508605e-11
-1.920000000e-02	1.340108206e-01	-2.331096445e-04	6.435370599e-12
-1.930000000e-02	1.340108207e-01	-2.317491603e-04	1.139184984e-11
-1.940000000e-02	1.340108207e-01	-2.303886760e-04	3.597468229e-11
-1.950000000e-02	1.340108207e-01	-2.290281917e-04	2.010578103e-11
-1.960000000e-02	1.340108207e-01	-2.276677072e-04	2.662120664e-11
-1.970000000e-02	1.340108206e-01	-2.263072227e-04	1.253039468e-11
-1.980000000e-02	1.340108205e-01	-2.249467381e-04	1.933336777e-11
-1.990000000e-02	1.340108204e-01	-2.235862535e-04	1.097718621e-11
-2.000000000e-02	1.340108202e-01	-2.222257687e-04	1.347328057e-11
-2.010000000e-02	1.340108200e-01	-2.208652839e-04	9.832739332e-12
-2.020000000e-02	1.340108197e-01	-2.195047991e-04	7.940346255e-12
-2.030000000e-02	1.340108194e-01	-2.181443142e-04	1.458638923e-11
-2.040000000e-02	1.340108190e-01	-2.167838292e-04	1.124862578e-11
-2.050000000e-02	1.340108186e-01	-2.154233442e-04	1.462862027e-11
-2.060000000e-02	1.340108182e-01	-2.140628591e-04	1.346104713e-11
-2.070000000e-02	1.340108177e-01	-2.127023740e-04	9.839449326e-12
-2.080000000e-02	1.340108172e-01	-2.113418888e-04	3.133098615e-11
-2.090000000e-02	1.340108166e-01	-2.099814036e-04	1.242617438e-11
-2.100000000e-02	1.340108160e-01	-2.086209183e-04	1.896960313e-11
-2.110000000e-02	1.340108154e-01	-2.072604330e-04	1.434005422e-11
-2.120000000e-02	1.340108147e-01	-2.058999476e-04	1.824161750e-11
-2.130000000e-02	1.340108140e-01	-2.045394622e-04	2.235000204e-11
-2.140000000e-02	1.340108132e-01	-2.031789768e-04	4.088451605e-11
-2.150000000e-02	1.340108124e-01	-2.018184913e-04	1.763070274e-10
-2.160000000e-02	1.340108116e-01	-2.004580058e-04	3.019710996e-11
-2.170000000e-02	1.340108107e-01	-1.990975203e-04	9.630015211e-12
-2.180000000e-02	1.340108097e-01	-1.977370347e-04	7.981231406e-12
-2.190000000e-02	1.340108088e-01	-1.963765491e-04	1.340777111e-11
-2.200000000e-02	1.340108077e-01	-1.950160635e-04	1.394810387e-11
-2.210000000e-02	1.340108067e-01	-1.936555779e-04	1.210526072e-11
-2.220000000e-02	1.340108056e-01	-1.922950922e-04	6.759997033e-12
-2.230000000e-02	1.340108045e-01	-1.909346065e-04	2.121290598e-11
-2.240000000e-02	1.340108033e-01	-1.895741208e-04	7.937463899e-12
-2.250000000e-02	1.340108021e-01	-1.882136351e-04	1.437641152e-11
-2.260000000e-02	1.340108008e-01	-1.868531494e-04	6.927275520e-12
-2.270000000e-02	1.340107995e-01	-1.854926636e-04	6.174075147e-11
-2.280000000e-02	1.340107981e-01	-1.841321779e-04	3.839841376e-11
-2.290000000e-02	1.340107968e-01	-1.827716922e-04	1.965814260e-11
-2.300000000e-02	1.340107953e-01	-1.814112064e-04	9.990537325e-12
-2.310000000e-02	1.340107939e-01	-1.800507207e-04	2.869048783e-11
-2.320000000e-02	1.340107923e-01	-1.786902349e-04	1.576792081e-11
-2.330000000e-02	1.340107908e-01	-1.773297492e-04	8.978619111e-12
-2.340000000e-02	1.340107892e-01	-1.759692634e-04	1.437906576e-11
-2.350000000e-02	1.340107876e-01	-1.746087777e-04	1.566116116e-11
-2.360000000e-02	1.340107859e-01	-1.732482920e-04	1.013429990e-11
-2.370000000e-02	1.340107842e-01	-1.718878062e-04	3.912677772e-11
-2.380000000e-02	1.340107824e-01	-1.705273205e-04	1.495312761e-11
-2.390000000e-02	1.340107806e-01	-1.691668348e-04	1.912856260e-11
-2.400000000e-02	1.340107788e-01	-1.678063492e-04	2.115544414e-11
-2.410000000e-02	1.340107769e-01	-1.664458635e-04	1.489754217e-11
-2.420000000e-02	1.340107750e-01	-1.650853779e-04	2.769378187e-11
-2.430000000e-02	1.340107730e-01	-1.637248923e-04	2.526289416e-11
-2.440000000e-02	1.340107710e-01	-1.623644067e-04	4.086789551e-11
-2.450000000e-02	1.340107689e-01	-1.610039211e-04	9.738091879e-12
-2.460000000e-02	1.340107668e-01	-1.596434356e-04	1.131652026e-11
-2.470000000e-02	1.340107647e-01	-1.582829501e-04	9.958060189e-12
-2.480000000e-02	1.340107625e-01	-1.569224646e-04	1.823865221e-11
-2.490000000e-02	1.340107603e-01	-1.555619792e-04	6.541028514e-12
-2.500000000e-02	1.340107581e-01	-1.542014938e-04	1.531600116e-11
-2.510000000e-02	1.340107558e-01	-1.528410085e-04	1.086427282e-11
-2.520000000e-02	1.340107534e-01	-1.514805231e-04	2.440780804e-11
-2.530000000e-02	1.340107511e-01	-1.501200379e-04	6.232700286e-12
-2.540000000e-02	1.340107486e-01	-1.487595527e-04	1.374723105e-11
-2.550000000e-02	1.340107462e-01	-1.473990675e-04	1.219087863e-11
-2.560000000e-02	1.340107437e-01	-1.460385824e-04	7.737881454e-12
-2.570000000e-02	1.340107411e-01	-1.446780973e-04	9.862504072e-12
-2.580000000e-02	1.340107386e-01	-1.433176123e-04	1.681075340e-11
-2.590000000e-02	1.340107359e-01	-1.419571273e-04	2.240546937e-11
-2.600000000e-02	1.340107333e-01	-1.405966424e-04	4.723965318e-11
-2.610000000e-02	1.340107305e-01	-1.392361576e-04	1.408499891e-11
-2.620000000e-02	1.340107278e-01	-1.378756728e-04	7.722333043e-12
-2.630000000e-02	1.340107250e-01	-1.365151881e-04	2.414835936e-11
-2.640000000e-02	1.340107222e-01	-1.351547035e-04	2.910921733e-11
-2.650000000e-02	1.340107193e-01	-1.337942189e-04	1.115380332e-11
-2.660000000e-02	1.340107164e-01	-1.324337344e-04	1.674981606e-11
-2.670000000e-02	1.340107134e-01	-1.310732500e-04	1.388321053e-11
-2.680000000e-02	1.340107104e-01	-1.297127656e-04	3.236103803e-11
-2.690000000e-02	1.340107074e-01	-1.283522813e-04	9.580701048e-12
-2.700000000e-02	1.340107043e-01	-1.269917971e-04	1.955702416e-11
-2.710000000e-02	1.340107012e-01	-1.256313130e-04	2.911469471e-11
-2.720000000e-02	1.340106980e-01	-1.242708290e-04	8.951653987e-12
-2.730000000e-02	1.340106948e-01	-1.229103450e-04	7.524816453e-11
-2.740000000e-02	1.340106916e-01	-1.215498612e-04	1.898823197e-11
-2.750000000e-02	1.340106883e-01	-1.201893774e-04	1.127383637e-11
-2.760000000e-02	1.340106850e-01	-1.188288938e-04	6.941007285e-11
-2.770000000e-02	1.340106816e-01	-1.174684102e-04	7.470159616e-12
-2.780000000e-02	1.340106782e-01	-1.161079267e-04	1.446982830e-11
-2.790000000e-02	1.340106747e-01	-1.147474433e-04	2.063514823e-11
-2.800000000e-02	1.340106712e-01	-1.133869600e-04	3.213145811e-11
-2.810000000e-02	1.340106677e-01	-1.120264768e-04	1.373484682e-11
-2.820000000e-02	1.340106641e-01	-1.106659937e-04	1.306609795e-11
-2.830000000e-02	1.340106605e-01	-1.093055108e-04	1.995712134e-11
-2.840000000e-02	1.340106568e-01	-1.079450279e-04	6.017744773e-12
-2.850000000e-02	1.340106531e-01	-1.065845451e-04	1.085299416e-11
-2.860000000e-02	1.340106494e-01	-1.052240625e-04	3.326275823e-11
-2.870000000e-02	1.340106456e-01	-1.038635800e-04	1.155340520e-11
-2.880000000e-02	1.340106418e-01	-1.025030976e-04	1.591107933e-11
-2.890000000e-02	1.340106379e-01	-1.011426153e-04	3.977530668e-11
-2.900000000e-02	1.340106340e-01	-9.978213311e-05	1.458917681e-11
-2.910000000e-02	1.340106301e-01	-9.842165106e-05	3.890422925e-11
-2.920000000e-02	1.340106261e-01	-9.706116914e-05	1.089437557e-11
-2.930000000e-02	1.340106220e-01	-9.570068735e-05	1.092279398e-11
-2.940000000e-02	1.340106180e-01	-9.434020568e-05	1.121124571e-11
-2.950000000e-02	1.340106138e-01	-9.297972414e-05	4.423595105e-11
-2.960000000e-02	1.340106097e-01	-9.161924275e-05	2.118479096e-11
-2.970000000e-02	1.340106055e-01	-9.025876149e-05	1.879061207e-11
-2.980000000e-02	1.340106013e-01	-8.889828036e-05	2.068041294e-11
-2.990000000e-02	1.340105970e-01	-8.753779938e-05	1.039463334e-11
-3.000000000e-02	1.340105927e-01	-8.617731854e-05	1.002842777e-11
