# Im(epsi1)     Re(omega/c)      Im(omega/c)      Eq(det).Opt det CON kz, R=0.5 \mum, mu_c=0.3, Re(epsi1)=3.90solve_det_conkz_vs_kz.py
0.000000000e+00	1.340061254e-01	-4.824027897e-04	1.571325657e-11
-1.000000000e-04	1.340061331e-01	-4.810420054e-04	1.546264929e-11
-2.000000000e-04	1.340061407e-01	-4.796812205e-04	1.322322259e-11
-3.000000000e-04	1.340061483e-01	-4.783204353e-04	1.162977263e-11
-4.000000000e-04	1.340061558e-01	-4.769596495e-04	3.428902096e-11
-5.000000000e-04	1.340061633e-01	-4.755988633e-04	1.510584734e-11
-6.000000000e-04	1.340061708e-01	-4.742380767e-04	1.223547067e-11
-7.000000000e-04	1.340061782e-01	-4.728772896e-04	1.310866517e-11
-8.000000000e-04	1.340061856e-01	-4.715165020e-04	2.356747126e-11
-9.000000000e-04	1.340061929e-01	-4.701557140e-04	9.626803456e-12
-1.000000000e-03	1.340062002e-01	-4.687949256e-04	7.534402000e-11
-1.100000000e-03	1.340062075e-01	-4.674341367e-04	1.595717843e-11
-1.200000000e-03	1.340062147e-01	-4.660733474e-04	3.434249248e-11
-1.300000000e-03	1.340062219e-01	-4.647125576e-04	2.536218987e-11
-1.400000000e-03	1.340062290e-01	-4.633517675e-04	1.629218739e-11
-1.500000000e-03	1.340062361e-01	-4.619909768e-04	9.935648955e-12
-1.600000000e-03	1.340062432e-01	-4.606301858e-04	2.648575968e-11
-1.700000000e-03	1.340062502e-01	-4.592693943e-04	6.831821967e-11
-1.800000000e-03	1.340062571e-01	-4.579086024e-04	7.604254749e-12
-1.900000000e-03	1.340062641e-01	-4.565478100e-04	2.929135511e-11
-2.000000000e-03	1.340062709e-01	-4.551870173e-04	1.238642857e-11
-2.100000000e-03	1.340062778e-01	-4.538262241e-04	2.023082351e-11
-2.200000000e-03	1.340062846e-01	-4.524654305e-04	3.162478284e-11
-2.300000000e-03	1.340062913e-01	-4.511046364e-04	1.750860449e-11
-2.400000000e-03	1.340062981e-01	-4.497438420e-04	1.763242318e-11
-2.500000000e-03	1.340063047e-01	-4.483830472e-04	1.619026105e-11
-2.600000000e-03	1.340063114e-01	-4.470222519e-04	6.826187803e-12
-2.700000000e-03	1.340063180e-01	-4.456614562e-04	1.511724315e-11
-2.800000000e-03	1.340063245e-01	-4.443006601e-04	7.175579710e-12
-2.900000000e-03	1.340063310e-01	-4.429398636e-04	2.032965022e-11
-3.000000000e-03	1.340063375e-01	-4.415790667e-04	1.504660006e-10
-3.100000000e-03	1.340063439e-01	-4.402182695e-04	1.313691799e-11
-3.200000000e-03	1.340063503e-01	-4.388574718e-04	1.037418970e-11
-3.300000000e-03	1.340063567e-01	-4.374966737e-04	9.554560067e-12
-3.400000000e-03	1.340063630e-01	-4.361358752e-04	5.834348280e-11
-3.500000000e-03	1.340063692e-01	-4.347750764e-04	1.235200216e-11
-3.600000000e-03	1.340063755e-01	-4.334142771e-04	8.344050266e-12
-3.700000000e-03	1.340063816e-01	-4.320534775e-04	1.211787796e-11
-3.800000000e-03	1.340063878e-01	-4.306926774e-04	2.366691872e-11
-3.900000000e-03	1.340063939e-01	-4.293318770e-04	5.047323597e-12
-4.000000000e-03	1.340063999e-01	-4.279710762e-04	1.174465345e-11
-4.100000000e-03	1.340064060e-01	-4.266102750e-04	1.009534414e-11
-4.200000000e-03	1.340064119e-01	-4.252494735e-04	8.424895262e-12
-4.300000000e-03	1.340064179e-01	-4.238886716e-04	1.327594359e-11
-4.400000000e-03	1.340064238e-01	-4.225278692e-04	1.384975987e-11
-4.500000000e-03	1.340064296e-01	-4.211670666e-04	1.461390200e-11
-4.600000000e-03	1.340064354e-01	-4.198062635e-04	1.227246631e-11
-4.700000000e-03	1.340064412e-01	-4.184454601e-04	2.220286678e-11
-4.800000000e-03	1.340064469e-01	-4.170846564e-04	9.902323616e-11
-4.900000000e-03	1.340064526e-01	-4.157238522e-04	5.966486334e-12
-5.000000000e-03	1.340064582e-01	-4.143630477e-04	1.126350936e-11
-5.100000000e-03	1.340064638e-01	-4.130022428e-04	3.361662647e-11
-5.200000000e-03	1.340064694e-01	-4.116414376e-04	2.165174980e-11
-5.300000000e-03	1.340064749e-01	-4.102806320e-04	1.360041185e-11
-5.400000000e-03	1.340064804e-01	-4.089198261e-04	7.638817878e-12
-5.500000000e-03	1.340064858e-01	-4.075590198e-04	1.228468181e-11
-5.600000000e-03	1.340064912e-01	-4.061982132e-04	1.664955198e-11
-5.700000000e-03	1.340064966e-01	-4.048374063e-04	1.302774013e-11
-5.800000000e-03	1.340065019e-01	-4.034765989e-04	2.216020616e-11
-5.900000000e-03	1.340065072e-01	-4.021157913e-04	1.352966123e-11
-6.000000000e-03	1.340065124e-01	-4.007549833e-04	7.139667143e-12
-6.100000000e-03	1.340065176e-01	-3.993941750e-04	1.196880375e-11
-6.200000000e-03	1.340065227e-01	-3.980333663e-04	1.372069055e-11
-6.300000000e-03	1.340065279e-01	-3.966725573e-04	1.081059074e-11
-6.400000000e-03	1.340065329e-01	-3.953117479e-04	8.816113740e-12
-6.500000000e-03	1.340065379e-01	-3.939509383e-04	1.607737752e-11
-6.600000000e-03	1.340065429e-01	-3.925901283e-04	1.946869619e-10
-6.700000000e-03	1.340065479e-01	-3.912293180e-04	1.126113130e-11
-6.800000000e-03	1.340065528e-01	-3.898685073e-04	7.891278312e-12
-6.900000000e-03	1.340065576e-01	-3.885076964e-04	1.280346343e-11
-7.000000000e-03	1.340065624e-01	-3.871468851e-04	9.830255392e-11
-7.100000000e-03	1.340065672e-01	-3.857860735e-04	9.107134339e-12
-7.200000000e-03	1.340065720e-01	-3.844252616e-04	1.763794495e-11
-7.300000000e-03	1.340065767e-01	-3.830644493e-04	1.075233107e-11
-7.400000000e-03	1.340065813e-01	-3.817036368e-04	2.120278628e-11
-7.500000000e-03	1.340065859e-01	-3.803428240e-04	1.051031070e-11
-7.600000000e-03	1.340065905e-01	-3.789820108e-04	1.191916607e-11
-7.700000000e-03	1.340065950e-01	-3.776211973e-04	1.886016480e-11
-7.800000000e-03	1.340065995e-01	-3.762603836e-04	9.652697984e-12
-7.900000000e-03	1.340066039e-01	-3.748995695e-04	7.205609681e-12
-8.000000000e-03	1.340066083e-01	-3.735387552e-04	1.812478441e-11
-8.100000000e-03	1.340066127e-01	-3.721779405e-04	1.230935658e-11
-8.200000000e-03	1.340066170e-01	-3.708171256e-04	3.271986120e-11
-8.300000000e-03	1.340066213e-01	-3.694563103e-04	9.807718519e-12
-8.400000000e-03	1.340066256e-01	-3.680954948e-04	6.460657255e-11
-8.500000000e-03	1.340066297e-01	-3.667346790e-04	1.966192319e-11
-8.600000000e-03	1.340066339e-01	-3.653738629e-04	2.495965133e-11
-8.700000000e-03	1.340066380e-01	-3.640130465e-04	4.167310165e-11
-8.800000000e-03	1.340066421e-01	-3.626522298e-04	7.036524631e-12
-8.900000000e-03	1.340066461e-01	-3.612914129e-04	8.346968194e-12
-9.000000000e-03	1.340066501e-01	-3.599305956e-04	7.862737350e-10
-9.100000000e-03	1.340066541e-01	-3.585697781e-04	2.878406050e-11
-9.200000000e-03	1.340066580e-01	-3.572089604e-04	2.141982139e-11
-9.300000000e-03	1.340066618e-01	-3.558481423e-04	9.328837515e-12
-9.400000000e-03	1.340066657e-01	-3.544873240e-04	1.225135680e-11
-9.500000000e-03	1.340066694e-01	-3.531265054e-04	9.310225399e-12
-9.600000000e-03	1.340066732e-01	-3.517656865e-04	1.019374849e-11
-9.700000000e-03	1.340066769e-01	-3.504048674e-04	1.304131797e-11
-9.800000000e-03	1.340066806e-01	-3.490440481e-04	9.071835852e-12
-9.900000000e-03	1.340066842e-01	-3.476832284e-04	1.136427660e-11
-1.000000000e-02	1.340066877e-01	-3.463224085e-04	1.864437497e-11
-1.010000000e-02	1.340066913e-01	-3.449615884e-04	7.650580429e-12
-1.020000000e-02	1.340066948e-01	-3.436007680e-04	1.721867899e-11
-1.030000000e-02	1.340066982e-01	-3.422399474e-04	7.375385567e-12
-1.040000000e-02	1.340067016e-01	-3.408791265e-04	8.176994498e-12
-1.050000000e-02	1.340067050e-01	-3.395183054e-04	8.443821428e-11
-1.060000000e-02	1.340067083e-01	-3.381574840e-04	1.129355177e-11
-1.070000000e-02	1.340067116e-01	-3.367966623e-04	1.433528855e-11
-1.080000000e-02	1.340067149e-01	-3.354358405e-04	1.460800770e-11
-1.090000000e-02	1.340067181e-01	-3.340750184e-04	7.466366436e-12
-1.100000000e-02	1.340067212e-01	-3.327141960e-04	4.462985091e-12
-1.110000000e-02	1.340067244e-01	-3.313533735e-04	1.577469390e-11
-1.120000000e-02	1.340067275e-01	-3.299925507e-04	1.287977928e-11
-1.130000000e-02	1.340067305e-01	-3.286317276e-04	5.861707696e-12
-1.140000000e-02	1.340067335e-01	-3.272709044e-04	1.296609906e-11
-1.150000000e-02	1.340067364e-01	-3.259100809e-04	1.117088666e-11
-1.160000000e-02	1.340067394e-01	-3.245492572e-04	1.367342191e-11
-1.170000000e-02	1.340067422e-01	-3.231884332e-04	2.037364636e-11
-1.180000000e-02	1.340067451e-01	-3.218276091e-04	8.749311270e-12
-1.190000000e-02	1.340067479e-01	-3.204667847e-04	9.769038717e-12
-1.200000000e-02	1.340067506e-01	-3.191059602e-04	1.672738641e-11
-1.210000000e-02	1.340067533e-01	-3.177451354e-04	6.502117503e-12
-1.220000000e-02	1.340067560e-01	-3.163843104e-04	1.936921381e-11
-1.230000000e-02	1.340067586e-01	-3.150234851e-04	2.052168232e-11
-1.240000000e-02	1.340067612e-01	-3.136626597e-04	8.517462297e-12
-1.250000000e-02	1.340067637e-01	-3.123018341e-04	1.439254775e-11
-1.260000000e-02	1.340067662e-01	-3.109410083e-04	1.665920211e-11
-1.270000000e-02	1.340067687e-01	-3.095801823e-04	7.443993498e-12
-1.280000000e-02	1.340067711e-01	-3.082193560e-04	1.573062630e-11
-1.290000000e-02	1.340067735e-01	-3.068585296e-04	9.283593675e-12
-1.300000000e-02	1.340067758e-01	-3.054977030e-04	1.023019359e-11
-1.310000000e-02	1.340067781e-01	-3.041368762e-04	1.245774368e-11
-1.320000000e-02	1.340067804e-01	-3.027760492e-04	2.498240761e-11
-1.330000000e-02	1.340067826e-01	-3.014152220e-04	4.955286277e-11
-1.340000000e-02	1.340067848e-01	-3.000543947e-04	2.086270229e-11
-1.350000000e-02	1.340067869e-01	-2.986935671e-04	9.223807456e-12
-1.360000000e-02	1.340067890e-01	-2.973327394e-04	6.646644719e-12
-1.370000000e-02	1.340067910e-01	-2.959719115e-04	1.933811707e-11
-1.380000000e-02	1.340067931e-01	-2.946110834e-04	1.502729642e-11
-1.390000000e-02	1.340067950e-01	-2.932502551e-04	8.238550788e-12
-1.400000000e-02	1.340067969e-01	-2.918894267e-04	5.054006929e-12
-1.410000000e-02	1.340067988e-01	-2.905285981e-04	8.017114469e-12
-1.420000000e-02	1.340068007e-01	-2.891677693e-04	1.098688354e-11
-1.430000000e-02	1.340068025e-01	-2.878069403e-04	8.082729244e-12
-1.440000000e-02	1.340068042e-01	-2.864461112e-04	7.678901521e-11
-1.450000000e-02	1.340068059e-01	-2.850852820e-04	1.083922182e-11
-1.460000000e-02	1.340068076e-01	-2.837244525e-04	6.664037067e-12
-1.470000000e-02	1.340068093e-01	-2.823636229e-04	3.010295404e-11
-1.480000000e-02	1.340068108e-01	-2.810027932e-04	1.312439002e-11
-1.490000000e-02	1.340068124e-01	-2.796419633e-04	7.398423945e-11
-1.500000000e-02	1.340068139e-01	-2.782811332e-04	1.028376692e-11
-1.510000000e-02	1.340068154e-01	-2.769203030e-04	3.762145390e-11
-1.520000000e-02	1.340068168e-01	-2.755594727e-04	1.317231239e-11
-1.530000000e-02	1.340068182e-01	-2.741986422e-04	1.417153871e-11
-1.540000000e-02	1.340068195e-01	-2.728378115e-04	1.954478491e-11
-1.550000000e-02	1.340068208e-01	-2.714769808e-04	5.159513847e-12
-1.560000000e-02	1.340068221e-01	-2.701161498e-04	1.905003606e-11
-1.570000000e-02	1.340068233e-01	-2.687553188e-04	8.009124171e-12
-1.580000000e-02	1.340068245e-01	-2.673944876e-04	4.416537996e-11
-1.590000000e-02	1.340068256e-01	-2.660336562e-04	2.379711138e-11
-1.600000000e-02	1.340068267e-01	-2.646728248e-04	1.587761114e-11
-1.610000000e-02	1.340068278e-01	-2.633119932e-04	7.559145465e-12
-1.620000000e-02	1.340068288e-01	-2.619511615e-04	2.707678392e-11
-1.630000000e-02	1.340068298e-01	-2.605903296e-04	1.259142395e-11
-1.640000000e-02	1.340068307e-01	-2.592294977e-04	5.495759921e-12
-1.650000000e-02	1.340068316e-01	-2.578686656e-04	2.852623008e-11
-1.660000000e-02	1.340068324e-01	-2.565078334e-04	2.586799905e-11
-1.670000000e-02	1.340068333e-01	-2.551470011e-04	7.519292430e-12
-1.680000000e-02	1.340068340e-01	-2.537861686e-04	1.643379276e-11
-1.690000000e-02	1.340068347e-01	-2.524253361e-04	7.087459794e-11
-1.700000000e-02	1.340068354e-01	-2.510645034e-04	1.999884444e-11
-1.710000000e-02	1.340068361e-01	-2.497036706e-04	2.675841529e-11
-1.720000000e-02	1.340068367e-01	-2.483428378e-04	1.264123140e-11
-1.730000000e-02	1.340068372e-01	-2.469820048e-04	1.447833666e-10
-1.740000000e-02	1.340068378e-01	-2.456211717e-04	7.027674497e-12
-1.750000000e-02	1.340068382e-01	-2.442603385e-04	1.622684888e-11
-1.760000000e-02	1.340068387e-01	-2.428995053e-04	2.578640330e-11
-1.770000000e-02	1.340068391e-01	-2.415386719e-04	1.199986256e-11
-1.780000000e-02	1.340068394e-01	-2.401778384e-04	1.153097932e-11
-1.790000000e-02	1.340068397e-01	-2.388170049e-04	1.785848338e-11
-1.800000000e-02	1.340068400e-01	-2.374561712e-04	1.417022492e-11
-1.810000000e-02	1.340068402e-01	-2.360953375e-04	4.060301488e-11
-1.820000000e-02	1.340068404e-01	-2.347345037e-04	1.519038972e-11
-1.830000000e-02	1.340068406e-01	-2.333736698e-04	2.268942740e-11
-1.840000000e-02	1.340068407e-01	-2.320128358e-04	8.742645723e-12
-1.850000000e-02	1.340068407e-01	-2.306520017e-04	1.624207180e-11
-1.860000000e-02	1.340068407e-01	-2.292911676e-04	2.713579939e-11
-1.870000000e-02	1.340068407e-01	-2.279303333e-04	8.867786766e-12
-1.880000000e-02	1.340068407e-01	-2.265694991e-04	8.622305692e-12
-1.890000000e-02	1.340068406e-01	-2.252086647e-04	1.538855351e-11
-1.900000000e-02	1.340068404e-01	-2.238478303e-04	1.056060473e-11
-1.910000000e-02	1.340068402e-01	-2.224869958e-04	2.825662561e-11
-1.920000000e-02	1.340068400e-01	-2.211261612e-04	1.393071229e-11
-1.930000000e-02	1.340068397e-01	-2.197653266e-04	1.016548891e-11
-1.940000000e-02	1.340068394e-01	-2.184044919e-04	9.069264364e-12
-1.950000000e-02	1.340068391e-01	-2.170436572e-04	8.997983600e-12
-1.960000000e-02	1.340068387e-01	-2.156828224e-04	2.296955262e-11
-1.970000000e-02	1.340068383e-01	-2.143219875e-04	1.121580156e-11
-1.980000000e-02	1.340068378e-01	-2.129611526e-04	1.052850357e-10
-1.990000000e-02	1.340068373e-01	-2.116003177e-04	1.242998273e-11
-2.000000000e-02	1.340068367e-01	-2.102394827e-04	8.221847375e-12
-2.010000000e-02	1.340068361e-01	-2.088786476e-04	1.345777542e-11
-2.020000000e-02	1.340068355e-01	-2.075178125e-04	7.508506137e-12
-2.030000000e-02	1.340068348e-01	-2.061569774e-04	9.330420974e-12
-2.040000000e-02	1.340068341e-01	-2.047961422e-04	1.331110604e-11
-2.050000000e-02	1.340068333e-01	-2.034353070e-04	1.829304812e-11
-2.060000000e-02	1.340068325e-01	-2.020744718e-04	1.377690928e-11
-2.070000000e-02	1.340068317e-01	-2.007136365e-04	9.852362666e-12
-2.080000000e-02	1.340068308e-01	-1.993528012e-04	2.729335324e-11
-2.090000000e-02	1.340068298e-01	-1.979919659e-04	6.629503675e-11
-2.100000000e-02	1.340068289e-01	-1.966311305e-04	5.091084029e-11
-2.110000000e-02	1.340068279e-01	-1.952702951e-04	2.010409925e-11
-2.120000000e-02	1.340068268e-01	-1.939094597e-04	1.818714785e-11
-2.130000000e-02	1.340068257e-01	-1.925486243e-04	4.197484009e-11
-2.140000000e-02	1.340068246e-01	-1.911877888e-04	1.475429112e-11
-2.150000000e-02	1.340068234e-01	-1.898269533e-04	1.500005059e-11
-2.160000000e-02	1.340068222e-01	-1.884661179e-04	2.215045563e-11
-2.170000000e-02	1.340068209e-01	-1.871052824e-04	1.205957426e-11
-2.180000000e-02	1.340068196e-01	-1.857444469e-04	5.553404740e-11
-2.190000000e-02	1.340068183e-01	-1.843836113e-04	2.567758155e-11
-2.200000000e-02	1.340068169e-01	-1.830227758e-04	1.064098071e-11
-2.210000000e-02	1.340068155e-01	-1.816619403e-04	8.818977190e-12
-2.220000000e-02	1.340068140e-01	-1.803011048e-04	2.133721422e-11
-2.230000000e-02	1.340068125e-01	-1.789402693e-04	1.097013765e-11
-2.240000000e-02	1.340068110e-01	-1.775794337e-04	2.736009154e-11
-2.250000000e-02	1.340068094e-01	-1.762185982e-04	7.522765111e-12
-2.260000000e-02	1.340068077e-01	-1.748577627e-04	1.972790772e-11
-2.270000000e-02	1.340068061e-01	-1.734969272e-04	8.034008082e-12
-2.280000000e-02	1.340068043e-01	-1.721360917e-04	7.852272644e-12
-2.290000000e-02	1.340068026e-01	-1.707752562e-04	8.659535613e-12
-2.300000000e-02	1.340068008e-01	-1.694144208e-04	3.200133690e-11
-2.310000000e-02	1.340067990e-01	-1.680535853e-04	1.922779659e-11
-2.320000000e-02	1.340067971e-01	-1.666927499e-04	1.268902070e-11
-2.330000000e-02	1.340067952e-01	-1.653319145e-04	1.214679548e-11
-2.340000000e-02	1.340067932e-01	-1.639710791e-04	1.301350021e-11
-2.350000000e-02	1.340067912e-01	-1.626102437e-04	1.207277405e-11
-2.360000000e-02	1.340067891e-01	-1.612494084e-04	1.773371712e-11
-2.370000000e-02	1.340067871e-01	-1.598885731e-04	6.492188228e-12
-2.380000000e-02	1.340067849e-01	-1.585277379e-04	4.093724746e-11
-2.390000000e-02	1.340067828e-01	-1.571669026e-04	7.626477212e-12
-2.400000000e-02	1.340067805e-01	-1.558060674e-04	1.068001443e-11
-2.410000000e-02	1.340067783e-01	-1.544452322e-04	9.981418032e-12
-2.420000000e-02	1.340067760e-01	-1.530843971e-04	8.888188775e-12
-2.430000000e-02	1.340067737e-01	-1.517235620e-04	8.444977815e-12
-2.440000000e-02	1.340067713e-01	-1.503627270e-04	7.354961682e-12
-2.450000000e-02	1.340067689e-01	-1.490018920e-04	2.684903342e-11
-2.460000000e-02	1.340067664e-01	-1.476410571e-04	2.109546198e-11
-2.470000000e-02	1.340067639e-01	-1.462802222e-04	1.215447878e-11
-2.480000000e-02	1.340067614e-01	-1.449193873e-04	2.034294369e-11
-2.490000000e-02	1.340067588e-01	-1.435585525e-04	8.175753653e-12
-2.500000000e-02	1.340067562e-01	-1.421977178e-04	3.704838705e-11
-2.510000000e-02	1.340067535e-01	-1.408368831e-04	1.519384143e-11
-2.520000000e-02	1.340067508e-01	-1.394760485e-04	3.898793968e-11
-2.530000000e-02	1.340067481e-01	-1.381152140e-04	1.316786079e-11
-2.540000000e-02	1.340067453e-01	-1.367543795e-04	8.813973118e-12
-2.550000000e-02	1.340067424e-01	-1.353935451e-04	2.293407425e-11
-2.560000000e-02	1.340067396e-01	-1.340327107e-04	8.480454245e-12
-2.570000000e-02	1.340067366e-01	-1.326718765e-04	7.547180755e-12
-2.580000000e-02	1.340067337e-01	-1.313110423e-04	1.348729719e-11
-2.590000000e-02	1.340067307e-01	-1.299502081e-04	1.312484921e-11
-2.600000000e-02	1.340067277e-01	-1.285893741e-04	2.305131417e-11
-2.610000000e-02	1.340067246e-01	-1.272285401e-04	1.278402877e-11
-2.620000000e-02	1.340067215e-01	-1.258677062e-04	7.910060248e-12
-2.630000000e-02	1.340067183e-01	-1.245068724e-04	1.678902190e-11
-2.640000000e-02	1.340067151e-01	-1.231460387e-04	2.359674550e-11
-2.650000000e-02	1.340067119e-01	-1.217852051e-04	1.265808899e-11
-2.660000000e-02	1.340067086e-01	-1.204243716e-04	2.371750635e-11
-2.670000000e-02	1.340067052e-01	-1.190635381e-04	4.012235940e-11
-2.680000000e-02	1.340067019e-01	-1.177027047e-04	2.440680385e-11
-2.690000000e-02	1.340066985e-01	-1.163418715e-04	1.256583381e-11
-2.700000000e-02	1.340066950e-01	-1.149810383e-04	1.033406862e-11
-2.710000000e-02	1.340066915e-01	-1.136202053e-04	1.925817230e-11
-2.720000000e-02	1.340066880e-01	-1.122593723e-04	7.437125752e-12
-2.730000000e-02	1.340066844e-01	-1.108985395e-04	1.826524726e-11
-2.740000000e-02	1.340066808e-01	-1.095377067e-04	1.280519991e-11
-2.750000000e-02	1.340066771e-01	-1.081768741e-04	2.407257352e-11
-2.760000000e-02	1.340066734e-01	-1.068160416e-04	1.069814978e-11
-2.770000000e-02	1.340066697e-01	-1.054552092e-04	2.157390974e-11
-2.780000000e-02	1.340066659e-01	-1.040943769e-04	1.227671610e-11
-2.790000000e-02	1.340066621e-01	-1.027335447e-04	1.103303918e-11
-2.800000000e-02	1.340066582e-01	-1.013727126e-04	2.131968905e-11
-2.810000000e-02	1.340066543e-01	-1.000118807e-04	1.467448890e-11
-2.820000000e-02	1.340066504e-01	-9.865104885e-05	9.069657977e-12
-2.830000000e-02	1.340066464e-01	-9.729021717e-05	8.022889660e-12
-2.840000000e-02	1.340066424e-01	-9.592938560e-05	1.378001125e-11
-2.850000000e-02	1.340066383e-01	-9.456855417e-05	8.543501530e-12
-2.860000000e-02	1.340066342e-01	-9.320772287e-05	7.468996693e-12
-2.870000000e-02	1.340066300e-01	-9.184689170e-05	1.164822297e-11
-2.880000000e-02	1.340066258e-01	-9.048606066e-05	1.120561057e-11
-2.890000000e-02	1.340066216e-01	-8.912522978e-05	2.187407090e-11
-2.900000000e-02	1.340066173e-01	-8.776439902e-05	1.639594126e-11
-2.910000000e-02	1.340066130e-01	-8.640356841e-05	7.348829322e-12
-2.920000000e-02	1.340066086e-01	-8.504273794e-05	1.110312837e-11
-2.930000000e-02	1.340066042e-01	-8.368190762e-05	2.118580524e-11
-2.940000000e-02	1.340065998e-01	-8.232107744e-05	2.137989888e-11
-2.950000000e-02	1.340065953e-01	-8.096024744e-05	5.988534389e-11
-2.960000000e-02	1.340065908e-01	-7.959941755e-05	7.443532836e-12
-2.970000000e-02	1.340065862e-01	-7.823858784e-05	1.245407462e-11
-2.980000000e-02	1.340065816e-01	-7.687775828e-05	1.251933577e-11
-2.990000000e-02	1.340065770e-01	-7.551692889e-05	2.539751829e-11
-3.000000000e-02	1.340065723e-01	-7.415609965e-05	1.296790055e-11
