# Im(epsi1)     Re(omega/c)      Im(omega/c)      Eq(det).Opt det CON kz, R=0.5 \mum, mu_c=0.3, Re(epsi1)=3.90solve_det_conkz_vs_kz.py
0.000000000e+00	1.340093354e-01	-4.917334626e-04	1.004939787e-11
-1.000000000e-04	1.340093434e-01	-4.903729546e-04	1.627654398e-11
-2.000000000e-04	1.340093513e-01	-4.890124460e-04	1.602333631e-11
-3.000000000e-04	1.340093592e-01	-4.876519370e-04	9.716628078e-12
-4.000000000e-04	1.340093670e-01	-4.862914276e-04	1.178861748e-11
-5.000000000e-04	1.340093748e-01	-4.849309176e-04	1.002852667e-11
-6.000000000e-04	1.340093825e-01	-4.835704072e-04	9.142543103e-12
-7.000000000e-04	1.340093903e-01	-4.822098963e-04	6.759061342e-12
-8.000000000e-04	1.340093979e-01	-4.808493850e-04	1.459020197e-11
-9.000000000e-04	1.340094055e-01	-4.794888732e-04	9.059918552e-12
-1.000000000e-03	1.340094131e-01	-4.781283609e-04	2.545842512e-11
-1.100000000e-03	1.340094207e-01	-4.767678482e-04	3.211554524e-11
-1.200000000e-03	1.340094282e-01	-4.754073351e-04	1.294270670e-11
-1.300000000e-03	1.340094356e-01	-4.740468215e-04	8.786859967e-12
-1.400000000e-03	1.340094430e-01	-4.726863074e-04	5.850484725e-12
-1.500000000e-03	1.340094504e-01	-4.713257929e-04	1.198214338e-11
-1.600000000e-03	1.340094578e-01	-4.699652779e-04	3.952819723e-11
-1.700000000e-03	1.340094650e-01	-4.686047625e-04	1.436792881e-11
-1.800000000e-03	1.340094723e-01	-4.672442466e-04	2.010383979e-11
-1.900000000e-03	1.340094795e-01	-4.658837303e-04	2.339320661e-11
-2.000000000e-03	1.340094867e-01	-4.645232136e-04	1.462776722e-11
-2.100000000e-03	1.340094938e-01	-4.631626964e-04	1.596979368e-11
-2.200000000e-03	1.340095009e-01	-4.618021788e-04	1.797832022e-11
-2.300000000e-03	1.340095079e-01	-4.604416608e-04	1.360932181e-11
-2.400000000e-03	1.340095149e-01	-4.590811423e-04	9.660192117e-12
-2.500000000e-03	1.340095219e-01	-4.577206235e-04	1.057802491e-11
-2.600000000e-03	1.340095288e-01	-4.563601042e-04	4.109241395e-11
-2.700000000e-03	1.340095357e-01	-4.549995844e-04	1.486430901e-11
-2.800000000e-03	1.340095425e-01	-4.536390642e-04	1.117622853e-11
-2.900000000e-03	1.340095493e-01	-4.522785437e-04	1.193692981e-11
-3.000000000e-03	1.340095561e-01	-4.509180227e-04	1.226292875e-11
-3.100000000e-03	1.340095628e-01	-4.495575013e-04	2.803746524e-11
-3.200000000e-03	1.340095695e-01	-4.481969794e-04	1.088891206e-11
-3.300000000e-03	1.340095761e-01	-4.468364572e-04	1.002502229e-11
-3.400000000e-03	1.340095827e-01	-4.454759346e-04	1.274112237e-11
-3.500000000e-03	1.340095893e-01	-4.441154115e-04	2.276452863e-11
-3.600000000e-03	1.340095958e-01	-4.427548881e-04	1.634259130e-11
-3.700000000e-03	1.340096022e-01	-4.413943642e-04	4.239557041e-11
-3.800000000e-03	1.340096087e-01	-4.400338399e-04	2.034967139e-11
-3.900000000e-03	1.340096150e-01	-4.386733153e-04	1.038345827e-11
-4.000000000e-03	1.340096214e-01	-4.373127902e-04	1.064567530e-11
-4.100000000e-03	1.340096277e-01	-4.359522648e-04	3.768410511e-11
-4.200000000e-03	1.340096340e-01	-4.345917389e-04	2.109536073e-11
-4.300000000e-03	1.340096402e-01	-4.332312127e-04	2.409698380e-11
-4.400000000e-03	1.340096464e-01	-4.318706861e-04	7.034069421e-12
-4.500000000e-03	1.340096525e-01	-4.305101591e-04	2.051647782e-11
-4.600000000e-03	1.340096586e-01	-4.291496317e-04	6.312599696e-12
-4.700000000e-03	1.340096646e-01	-4.277891039e-04	8.604604438e-12
-4.800000000e-03	1.340096706e-01	-4.264285758e-04	1.354563206e-11
-4.900000000e-03	1.340096766e-01	-4.250680473e-04	1.246625933e-11
-5.000000000e-03	1.340096825e-01	-4.237075184e-04	1.878801483e-11
-5.100000000e-03	1.340096884e-01	-4.223469891e-04	1.135949687e-11
-5.200000000e-03	1.340096943e-01	-4.209864595e-04	1.296117604e-11
-5.300000000e-03	1.340097001e-01	-4.196259294e-04	1.320293196e-11
-5.400000000e-03	1.340097059e-01	-4.182653991e-04	9.279853993e-12
-5.500000000e-03	1.340097116e-01	-4.169048683e-04	9.373949037e-12
-5.600000000e-03	1.340097173e-01	-4.155443372e-04	1.234831891e-11
-5.700000000e-03	1.340097229e-01	-4.141838057e-04	8.339296938e-12
-5.800000000e-03	1.340097285e-01	-4.128232739e-04	1.316774006e-11
-5.900000000e-03	1.340097341e-01	-4.114627417e-04	1.826440314e-11
-6.000000000e-03	1.340097396e-01	-4.101022092e-04	1.709755194e-11
-6.100000000e-03	1.340097451e-01	-4.087416763e-04	1.187738466e-11
-6.200000000e-03	1.340097505e-01	-4.073811430e-04	7.030366377e-12
-6.300000000e-03	1.340097559e-01	-4.060206095e-04	1.198676594e-11
-6.400000000e-03	1.340097612e-01	-4.046600755e-04	1.587849643e-11
-6.500000000e-03	1.340097665e-01	-4.032995412e-04	1.229567868e-11
-6.600000000e-03	1.340097718e-01	-4.019390066e-04	1.127314785e-11
-6.700000000e-03	1.340097770e-01	-4.005784716e-04	8.691985732e-12
-6.800000000e-03	1.340097822e-01	-3.992179363e-04	1.642798954e-11
-6.900000000e-03	1.340097874e-01	-3.978574007e-04	3.929636757e-11
-7.000000000e-03	1.340097925e-01	-3.964968647e-04	1.108266358e-11
-7.100000000e-03	1.340097975e-01	-3.951363284e-04	8.576345003e-12
-7.200000000e-03	1.340098026e-01	-3.937757918e-04	1.612095808e-11
-7.300000000e-03	1.340098075e-01	-3.924152548e-04	1.287786826e-11
-7.400000000e-03	1.340098125e-01	-3.910547176e-04	2.796700864e-11
-7.500000000e-03	1.340098174e-01	-3.896941800e-04	2.798773090e-11
-7.600000000e-03	1.340098222e-01	-3.883336420e-04	1.275991468e-11
-7.700000000e-03	1.340098270e-01	-3.869731038e-04	2.258217190e-11
-7.800000000e-03	1.340098318e-01	-3.856125652e-04	8.966734621e-12
-7.900000000e-03	1.340098365e-01	-3.842520263e-04	7.594616034e-12
-8.000000000e-03	1.340098412e-01	-3.828914871e-04	1.135350168e-11
-8.100000000e-03	1.340098459e-01	-3.815309476e-04	1.506972342e-11
-8.200000000e-03	1.340098505e-01	-3.801704078e-04	1.822027833e-11
-8.300000000e-03	1.340098551e-01	-3.788098677e-04	1.000884907e-11
-8.400000000e-03	1.340098596e-01	-3.774493273e-04	1.568437417e-11
-8.500000000e-03	1.340098641e-01	-3.760887866e-04	1.658408585e-11
-8.600000000e-03	1.340098685e-01	-3.747282455e-04	7.757407117e-12
-8.700000000e-03	1.340098729e-01	-3.733677042e-04	4.006413081e-11
-8.800000000e-03	1.340098773e-01	-3.720071626e-04	2.090344344e-11
-8.900000000e-03	1.340098816e-01	-3.706466207e-04	6.995187721e-12
-9.000000000e-03	1.340098859e-01	-3.692860785e-04	2.923267786e-11
-9.100000000e-03	1.340098901e-01	-3.679255360e-04	9.138119030e-12
-9.200000000e-03	1.340098943e-01	-3.665649932e-04	1.453684954e-11
-9.300000000e-03	1.340098984e-01	-3.652044501e-04	1.095681277e-11
-9.400000000e-03	1.340099026e-01	-3.638439068e-04	1.738158367e-11
-9.500000000e-03	1.340099066e-01	-3.624833631e-04	2.548906014e-11
-9.600000000e-03	1.340099107e-01	-3.611228192e-04	1.316319738e-11
-9.700000000e-03	1.340099146e-01	-3.597622750e-04	7.756641332e-12
-9.800000000e-03	1.340099186e-01	-3.584017306e-04	1.219018966e-11
-9.900000000e-03	1.340099225e-01	-3.570411858e-04	3.749031228e-11
-1.000000000e-02	1.340099264e-01	-3.556806408e-04	7.778832950e-12
-1.010000000e-02	1.340099302e-01	-3.543200955e-04	1.597325774e-11
-1.020000000e-02	1.340099340e-01	-3.529595500e-04	1.315242756e-11
-1.030000000e-02	1.340099377e-01	-3.515990042e-04	3.552746754e-11
-1.040000000e-02	1.340099414e-01	-3.502384581e-04	5.354823624e-11
-1.050000000e-02	1.340099451e-01	-3.488779117e-04	6.343997673e-12
-1.060000000e-02	1.340099487e-01	-3.475173652e-04	9.878349098e-12
-1.070000000e-02	1.340099522e-01	-3.461568183e-04	1.321515695e-11
-1.080000000e-02	1.340099558e-01	-3.447962712e-04	1.049614605e-11
-1.090000000e-02	1.340099593e-01	-3.434357238e-04	8.060859372e-12
-1.100000000e-02	1.340099627e-01	-3.420751762e-04	1.568236493e-11
-1.110000000e-02	1.340099661e-01	-3.407146284e-04	1.099016786e-11
-1.120000000e-02	1.340099695e-01	-3.393540803e-04	2.069655495e-11
-1.130000000e-02	1.340099728e-01	-3.379935319e-04	1.220760337e-11
-1.140000000e-02	1.340099761e-01	-3.366329833e-04	1.090803897e-11
-1.150000000e-02	1.340099794e-01	-3.352724345e-04	4.226035110e-11
-1.160000000e-02	1.340099826e-01	-3.339118854e-04	1.704522125e-11
-1.170000000e-02	1.340099857e-01	-3.325513361e-04	2.842557252e-11
-1.180000000e-02	1.340099888e-01	-3.311907866e-04	1.134737318e-11
-1.190000000e-02	1.340099919e-01	-3.298302368e-04	1.372508615e-11
-1.200000000e-02	1.340099950e-01	-3.284696868e-04	3.608987010e-11
-1.210000000e-02	1.340099980e-01	-3.271091366e-04	1.041440875e-11
-1.220000000e-02	1.340100009e-01	-3.257485862e-04	6.987688991e-12
-1.230000000e-02	1.340100038e-01	-3.243880355e-04	5.938623239e-11
-1.240000000e-02	1.340100067e-01	-3.230274846e-04	1.222087187e-11
-1.250000000e-02	1.340100095e-01	-3.216669335e-04	1.954964993e-11
-1.260000000e-02	1.340100123e-01	-3.203063822e-04	1.495334797e-11
-1.270000000e-02	1.340100151e-01	-3.189458306e-04	1.888334114e-11
-1.280000000e-02	1.340100178e-01	-3.175852789e-04	8.625463472e-12
-1.290000000e-02	1.340100204e-01	-3.162247269e-04	3.637326086e-11
-1.300000000e-02	1.340100231e-01	-3.148641747e-04	7.950822971e-12
-1.310000000e-02	1.340100256e-01	-3.135036224e-04	1.205040083e-11
-1.320000000e-02	1.340100282e-01	-3.121430698e-04	7.537251417e-12
-1.330000000e-02	1.340100307e-01	-3.107825170e-04	1.482271096e-11
-1.340000000e-02	1.340100331e-01	-3.094219640e-04	2.521950537e-11
-1.350000000e-02	1.340100356e-01	-3.080614108e-04	1.307743789e-11
-1.360000000e-02	1.340100379e-01	-3.067008574e-04	1.269750936e-11
-1.370000000e-02	1.340100403e-01	-3.053403039e-04	1.002153156e-11
-1.380000000e-02	1.340100426e-01	-3.039797501e-04	5.745420702e-12
-1.390000000e-02	1.340100448e-01	-3.026191961e-04	1.412177086e-11
-1.400000000e-02	1.340100470e-01	-3.012586420e-04	9.162547646e-12
-1.410000000e-02	1.340100492e-01	-2.998980877e-04	1.381872181e-11
-1.420000000e-02	1.340100513e-01	-2.985375331e-04	1.174156275e-11
-1.430000000e-02	1.340100534e-01	-2.971769784e-04	9.634491108e-12
-1.440000000e-02	1.340100555e-01	-2.958164236e-04	1.219025426e-11
-1.450000000e-02	1.340100575e-01	-2.944558685e-04	2.404647959e-11
-1.460000000e-02	1.340100594e-01	-2.930953133e-04	1.463424691e-11
-1.470000000e-02	1.340100613e-01	-2.917347579e-04	1.624946114e-11
-1.480000000e-02	1.340100632e-01	-2.903742023e-04	3.271878956e-11
-1.490000000e-02	1.340100651e-01	-2.890136466e-04	5.264173585e-11
-1.500000000e-02	1.340100669e-01	-2.876530907e-04	1.702880150e-11
-1.510000000e-02	1.340100686e-01	-2.862925346e-04	2.171911431e-11
-1.520000000e-02	1.340100703e-01	-2.849319784e-04	1.088155153e-11
-1.530000000e-02	1.340100720e-01	-2.835714220e-04	1.411553490e-11
-1.540000000e-02	1.340100736e-01	-2.822108654e-04	9.814825996e-12
-1.550000000e-02	1.340100752e-01	-2.808503087e-04	9.298561038e-12
-1.560000000e-02	1.340100768e-01	-2.794897518e-04	9.650805658e-12
-1.570000000e-02	1.340100783e-01	-2.781291949e-04	2.006476135e-10
-1.580000000e-02	1.340100798e-01	-2.767686377e-04	1.087109496e-11
-1.590000000e-02	1.340100812e-01	-2.754080803e-04	1.745741786e-11
-1.600000000e-02	1.340100826e-01	-2.740475229e-04	2.115214161e-11
-1.610000000e-02	1.340100839e-01	-2.726869653e-04	1.171322557e-11
-1.620000000e-02	1.340100852e-01	-2.713264075e-04	1.629915579e-11
-1.630000000e-02	1.340100865e-01	-2.699658496e-04	1.206906623e-11
-1.640000000e-02	1.340100877e-01	-2.686052916e-04	6.386361478e-12
-1.650000000e-02	1.340100889e-01	-2.672447335e-04	9.307989888e-12
-1.660000000e-02	1.340100900e-01	-2.658841752e-04	3.671702120e-11
-1.670000000e-02	1.340100911e-01	-2.645236168e-04	3.261669545e-11
-1.680000000e-02	1.340100922e-01	-2.631630582e-04	1.683650516e-11
-1.690000000e-02	1.340100932e-01	-2.618024995e-04	1.569911662e-11
-1.700000000e-02	1.340100941e-01	-2.604419407e-04	2.360703938e-11
-1.710000000e-02	1.340100951e-01	-2.590813818e-04	6.121384242e-12
-1.720000000e-02	1.340100960e-01	-2.577208227e-04	1.239641663e-11
-1.730000000e-02	1.340100968e-01	-2.563602636e-04	3.188961281e-11
-1.740000000e-02	1.340100976e-01	-2.549997043e-04	2.164981667e-11
-1.750000000e-02	1.340100984e-01	-2.536391449e-04	1.369110482e-11
-1.760000000e-02	1.340100991e-01	-2.522785854e-04	9.985155728e-12
-1.770000000e-02	1.340100998e-01	-2.509180258e-04	1.912158263e-11
-1.780000000e-02	1.340101004e-01	-2.495574660e-04	3.160241886e-11
-1.790000000e-02	1.340101010e-01	-2.481969062e-04	1.298464610e-11
-1.800000000e-02	1.340101016e-01	-2.468363463e-04	1.086466450e-11
-1.810000000e-02	1.340101021e-01	-2.454757862e-04	9.276692961e-12
-1.820000000e-02	1.340101026e-01	-2.441152261e-04	1.174456424e-11
-1.830000000e-02	1.340101030e-01	-2.427546658e-04	1.586311915e-11
-1.840000000e-02	1.340101034e-01	-2.413941055e-04	6.010919428e-12
-1.850000000e-02	1.340101037e-01	-2.400335451e-04	1.385848491e-11
-1.860000000e-02	1.340101041e-01	-2.386729845e-04	1.131840216e-11
-1.870000000e-02	1.340101043e-01	-2.373124239e-04	1.380788815e-11
-1.880000000e-02	1.340101046e-01	-2.359518632e-04	5.737672111e-12
-1.890000000e-02	1.340101047e-01	-2.345913024e-04	9.154651231e-12
-1.900000000e-02	1.340101049e-01	-2.332307416e-04	1.197054645e-11
-1.910000000e-02	1.340101050e-01	-2.318701806e-04	2.825554996e-11
-1.920000000e-02	1.340101050e-01	-2.305096196e-04	2.081220129e-11
-1.930000000e-02	1.340101051e-01	-2.291490585e-04	8.302214375e-12
-1.940000000e-02	1.340101050e-01	-2.277884973e-04	2.375749981e-11
-1.950000000e-02	1.340101050e-01	-2.264279361e-04	5.860968891e-12
-1.960000000e-02	1.340101049e-01	-2.250673747e-04	1.302605448e-11
-1.970000000e-02	1.340101047e-01	-2.237068133e-04	7.267480696e-12
-1.980000000e-02	1.340101046e-01	-2.223462519e-04	3.710981399e-11
-1.990000000e-02	1.340101043e-01	-2.209856904e-04	8.376075705e-12
-2.000000000e-02	1.340101041e-01	-2.196251288e-04	3.277254661e-11
-2.010000000e-02	1.340101037e-01	-2.182645671e-04	4.515358552e-12
-2.020000000e-02	1.340101034e-01	-2.169040054e-04	8.370219671e-12
-2.030000000e-02	1.340101030e-01	-2.155434437e-04	6.345616453e-12
-2.040000000e-02	1.340101026e-01	-2.141828819e-04	1.848334042e-11
-2.050000000e-02	1.340101021e-01	-2.128223200e-04	2.429864234e-11
-2.060000000e-02	1.340101016e-01	-2.114617581e-04	5.647031057e-11
-2.070000000e-02	1.340101010e-01	-2.101011961e-04	1.657848230e-11
-2.080000000e-02	1.340101004e-01	-2.087406341e-04	9.747579867e-12
-2.090000000e-02	1.340100998e-01	-2.073800720e-04	1.298669573e-11
-2.100000000e-02	1.340100991e-01	-2.060195099e-04	1.106693916e-11
-2.110000000e-02	1.340100984e-01	-2.046589478e-04	2.528470033e-11
-2.120000000e-02	1.340100976e-01	-2.032983856e-04	1.139597916e-11
-2.130000000e-02	1.340100968e-01	-2.019378234e-04	7.573038236e-12
-2.140000000e-02	1.340100960e-01	-2.005772612e-04	8.465215979e-12
-2.150000000e-02	1.340100951e-01	-1.992166989e-04	1.710657775e-11
-2.160000000e-02	1.340100941e-01	-1.978561366e-04	1.431659802e-11
-2.170000000e-02	1.340100932e-01	-1.964955743e-04	1.412192201e-11
-2.180000000e-02	1.340100922e-01	-1.951350119e-04	1.172410950e-11
-2.190000000e-02	1.340100911e-01	-1.937744495e-04	1.197043110e-11
-2.200000000e-02	1.340100900e-01	-1.924138871e-04	1.717365343e-11
-2.210000000e-02	1.340100889e-01	-1.910533247e-04	8.208980417e-12
-2.220000000e-02	1.340100877e-01	-1.896927623e-04	1.501283008e-11
-2.230000000e-02	1.340100865e-01	-1.883321998e-04	2.899526973e-11
-2.240000000e-02	1.340100852e-01	-1.869716374e-04	1.199515011e-11
-2.250000000e-02	1.340100839e-01	-1.856110749e-04	9.623005300e-12
-2.260000000e-02	1.340100826e-01	-1.842505124e-04	8.182579050e-12
-2.270000000e-02	1.340100812e-01	-1.828899500e-04	1.313937447e-11
-2.280000000e-02	1.340100798e-01	-1.815293875e-04	2.816164335e-11
-2.290000000e-02	1.340100783e-01	-1.801688250e-04	4.727911957e-11
-2.300000000e-02	1.340100768e-01	-1.788082625e-04	7.690211309e-12
-2.310000000e-02	1.340100752e-01	-1.774477000e-04	9.635751070e-12
-2.320000000e-02	1.340100736e-01	-1.760871375e-04	1.172792372e-11
-2.330000000e-02	1.340100720e-01	-1.747265750e-04	3.178324053e-11
-2.340000000e-02	1.340100703e-01	-1.733660126e-04	9.678670035e-12
-2.350000000e-02	1.340100686e-01	-1.720054501e-04	1.515069466e-11
-2.360000000e-02	1.340100669e-01	-1.706448877e-04	8.494204374e-12
-2.370000000e-02	1.340100651e-01	-1.692843252e-04	2.543259154e-11
-2.380000000e-02	1.340100632e-01	-1.679237628e-04	1.000001716e-11
-2.390000000e-02	1.340100614e-01	-1.665632004e-04	1.408857265e-11
-2.400000000e-02	1.340100594e-01	-1.652026380e-04	8.351076283e-12
-2.410000000e-02	1.340100575e-01	-1.638420757e-04	9.048290696e-12
-2.420000000e-02	1.340100555e-01	-1.624815134e-04	9.116301571e-12
-2.430000000e-02	1.340100534e-01	-1.611209511e-04	1.066944087e-11
-2.440000000e-02	1.340100513e-01	-1.597603888e-04	1.153590733e-11
-2.450000000e-02	1.340100492e-01	-1.583998266e-04	1.471361289e-11
-2.460000000e-02	1.340100470e-01	-1.570392644e-04	6.192878959e-12
-2.470000000e-02	1.340100448e-01	-1.556787022e-04	3.410113433e-11
-2.480000000e-02	1.340100426e-01	-1.543181401e-04	1.610940146e-11
-2.490000000e-02	1.340100403e-01	-1.529575780e-04	5.095356442e-11
-2.500000000e-02	1.340100379e-01	-1.515970159e-04	1.335210139e-11
-2.510000000e-02	1.340100356e-01	-1.502364539e-04	1.444899398e-11
-2.520000000e-02	1.340100331e-01	-1.488758920e-04	2.400057393e-11
-2.530000000e-02	1.340100307e-01	-1.475153300e-04	1.020128589e-11
-2.540000000e-02	1.340100282e-01	-1.461547682e-04	1.021787534e-11
-2.550000000e-02	1.340100256e-01	-1.447942064e-04	9.249938349e-12
-2.560000000e-02	1.340100231e-01	-1.434336446e-04	1.064213462e-11
-2.570000000e-02	1.340100204e-01	-1.420730829e-04	1.401095956e-11
-2.580000000e-02	1.340100178e-01	-1.407125213e-04	8.437144927e-12
-2.590000000e-02	1.340100151e-01	-1.393519597e-04	4.691512311e-12
-2.600000000e-02	1.340100123e-01	-1.379913982e-04	1.217508097e-11
-2.610000000e-02	1.340100095e-01	-1.366308367e-04	1.225033037e-11
-2.620000000e-02	1.340100067e-01	-1.352702754e-04	3.493171153e-11
-2.630000000e-02	1.340100038e-01	-1.339097140e-04	9.665330297e-12
-2.640000000e-02	1.340100009e-01	-1.325491528e-04	1.184994249e-11
-2.650000000e-02	1.340099980e-01	-1.311885916e-04	3.536357919e-11
-2.660000000e-02	1.340099950e-01	-1.298280305e-04	6.173040087e-12
-2.670000000e-02	1.340099919e-01	-1.284674695e-04	1.033156215e-11
-2.680000000e-02	1.340099889e-01	-1.271069086e-04	1.242209230e-11
-2.690000000e-02	1.340099857e-01	-1.257463477e-04	3.488605383e-11
-2.700000000e-02	1.340099826e-01	-1.243857869e-04	2.630964333e-11
-2.710000000e-02	1.340099794e-01	-1.230252262e-04	6.331996942e-12
-2.720000000e-02	1.340099761e-01	-1.216646656e-04	1.867906918e-11
-2.730000000e-02	1.340099728e-01	-1.203041051e-04	8.798320313e-12
-2.740000000e-02	1.340099695e-01	-1.189435447e-04	1.133427187e-11
-2.750000000e-02	1.340099661e-01	-1.175829844e-04	1.379796635e-11
-2.760000000e-02	1.340099627e-01	-1.162224242e-04	8.151820980e-12
-2.770000000e-02	1.340099593e-01	-1.148618640e-04	1.055967564e-11
-2.780000000e-02	1.340099558e-01	-1.135013040e-04	1.452721326e-11
-2.790000000e-02	1.340099523e-01	-1.121407441e-04	3.293029310e-11
-2.800000000e-02	1.340099487e-01	-1.107801842e-04	2.713226995e-11
-2.810000000e-02	1.340099451e-01	-1.094196245e-04	1.215953218e-11
-2.820000000e-02	1.340099414e-01	-1.080590649e-04	1.118182604e-11
-2.830000000e-02	1.340099377e-01	-1.066985054e-04	6.688024126e-12
-2.840000000e-02	1.340099340e-01	-1.053379460e-04	1.578289045e-11
-2.850000000e-02	1.340099302e-01	-1.039773868e-04	9.666205652e-12
-2.860000000e-02	1.340099264e-01	-1.026168276e-04	1.505938209e-11
-2.870000000e-02	1.340099225e-01	-1.012562686e-04	1.456150145e-11
-2.880000000e-02	1.340099186e-01	-9.989570966e-05	1.471564053e-11
-2.890000000e-02	1.340099147e-01	-9.853515087e-05	1.363766085e-11
-2.900000000e-02	1.340099107e-01	-9.717459221e-05	5.857214490e-11
-2.910000000e-02	1.340099066e-01	-9.581403367e-05	2.018009079e-11
-2.920000000e-02	1.340099026e-01	-9.445347526e-05	2.624932363e-11
-2.930000000e-02	1.340098985e-01	-9.309291698e-05	1.030318463e-11
-2.940000000e-02	1.340098943e-01	-9.173235884e-05	1.152275932e-11
-2.950000000e-02	1.340098901e-01	-9.037180084e-05	3.110598462e-11
-2.960000000e-02	1.340098859e-01	-8.901124297e-05	1.565277317e-11
-2.970000000e-02	1.340098816e-01	-8.765068524e-05	3.505816109e-11
-2.980000000e-02	1.340098773e-01	-8.629012765e-05	1.844105240e-11
-2.990000000e-02	1.340098729e-01	-8.492957021e-05	1.108025298e-11
-3.000000000e-02	1.340098685e-01	-8.356901291e-05	2.411570520e-11
