# Im(epsi1)     Re(omega/c)      Im(omega/c)      Eq(det).Opt det CON kz, R=0.5 \mum, mu_c=0.3, Re(epsi1)=3.90solve_det_conkz_vs_kz.py
0.000000000e+00	1.340094764e-01	-4.922289446e-04	1.821967098e-11
-1.000000000e-04	1.340094844e-01	-4.908684514e-04	7.832416281e-12
-2.000000000e-04	1.340094923e-01	-4.895079578e-04	1.255328991e-11
-3.000000000e-04	1.340095002e-01	-4.881474636e-04	9.148032508e-12
-4.000000000e-04	1.340095080e-01	-4.867869690e-04	1.109318444e-11
-5.000000000e-04	1.340095158e-01	-4.854264739e-04	2.169640887e-11
-6.000000000e-04	1.340095236e-01	-4.840659783e-04	1.490886348e-11
-7.000000000e-04	1.340095313e-01	-4.827054823e-04	3.383753961e-11
-8.000000000e-04	1.340095390e-01	-4.813449858e-04	2.188486901e-11
-9.000000000e-04	1.340095466e-01	-4.799844889e-04	3.328628207e-11
-1.000000000e-03	1.340095542e-01	-4.786239915e-04	6.365045179e-12
-1.100000000e-03	1.340095618e-01	-4.772634936e-04	4.672479053e-12
-1.200000000e-03	1.340095693e-01	-4.759029953e-04	1.387182483e-11
-1.300000000e-03	1.340095768e-01	-4.745424965e-04	9.772261249e-12
-1.400000000e-03	1.340095842e-01	-4.731819973e-04	3.037481645e-11
-1.500000000e-03	1.340095916e-01	-4.718214976e-04	1.436652798e-11
-1.600000000e-03	1.340095990e-01	-4.704609975e-04	2.160895014e-11
-1.700000000e-03	1.340096063e-01	-4.691004969e-04	6.247567211e-12
-1.800000000e-03	1.340096135e-01	-4.677399959e-04	1.042846503e-11
-1.900000000e-03	1.340096208e-01	-4.663794945e-04	1.459259737e-11
-2.000000000e-03	1.340096279e-01	-4.650189926e-04	2.348618517e-11
-2.100000000e-03	1.340096351e-01	-4.636584902e-04	1.519318439e-11
-2.200000000e-03	1.340096422e-01	-4.622979875e-04	1.199239232e-11
-2.300000000e-03	1.340096492e-01	-4.609374843e-04	1.021326119e-11
-2.400000000e-03	1.340096563e-01	-4.595769807e-04	3.014916398e-11
-2.500000000e-03	1.340096632e-01	-4.582164766e-04	1.424757987e-11
-2.600000000e-03	1.340096702e-01	-4.568559721e-04	9.820041105e-12
-2.700000000e-03	1.340096771e-01	-4.554954672e-04	2.856654804e-11
-2.800000000e-03	1.340096839e-01	-4.541349619e-04	1.441592166e-11
-2.900000000e-03	1.340096907e-01	-4.527744561e-04	8.850993202e-12
-3.000000000e-03	1.340096975e-01	-4.514139500e-04	1.512571431e-11
-3.100000000e-03	1.340097042e-01	-4.500534434e-04	2.104151789e-11
-3.200000000e-03	1.340097109e-01	-4.486929364e-04	2.335171431e-11
-3.300000000e-03	1.340097176e-01	-4.473324290e-04	1.413701219e-11
-3.400000000e-03	1.340097242e-01	-4.459719212e-04	2.076069039e-11
-3.500000000e-03	1.340097307e-01	-4.446114130e-04	6.793960687e-12
-3.600000000e-03	1.340097373e-01	-4.432509044e-04	1.435331595e-11
-3.700000000e-03	1.340097438e-01	-4.418903953e-04	2.280506426e-11
-3.800000000e-03	1.340097502e-01	-4.405298859e-04	1.054397754e-11
-3.900000000e-03	1.340097566e-01	-4.391693761e-04	8.867863996e-12
-4.000000000e-03	1.340097630e-01	-4.378088658e-04	1.055361086e-11
-4.100000000e-03	1.340097693e-01	-4.364483552e-04	8.611079505e-12
-4.200000000e-03	1.340097755e-01	-4.350878442e-04	2.968549678e-11
-4.300000000e-03	1.340097818e-01	-4.337273328e-04	8.356182030e-12
-4.400000000e-03	1.340097880e-01	-4.323668210e-04	9.947845962e-12
-4.500000000e-03	1.340097941e-01	-4.310063088e-04	1.037393012e-11
-4.600000000e-03	1.340098002e-01	-4.296457962e-04	5.341846575e-12
-4.700000000e-03	1.340098063e-01	-4.282852833e-04	9.378578396e-11
-4.800000000e-03	1.340098123e-01	-4.269247700e-04	8.768899104e-12
-4.900000000e-03	1.340098183e-01	-4.255642563e-04	2.071720537e-11
-5.000000000e-03	1.340098243e-01	-4.242037422e-04	9.326614188e-12
-5.100000000e-03	1.340098302e-01	-4.228432277e-04	1.298895962e-11
-5.200000000e-03	1.340098360e-01	-4.214827129e-04	2.004080698e-11
-5.300000000e-03	1.340098418e-01	-4.201221977e-04	1.342806673e-11
-5.400000000e-03	1.340098476e-01	-4.187616821e-04	2.490590789e-11
-5.500000000e-03	1.340098534e-01	-4.174011662e-04	1.568528557e-11
-5.600000000e-03	1.340098591e-01	-4.160406499e-04	1.936004559e-11
-5.700000000e-03	1.340098647e-01	-4.146801332e-04	1.335792511e-11
-5.800000000e-03	1.340098703e-01	-4.133196162e-04	1.947591782e-11
-5.900000000e-03	1.340098759e-01	-4.119590988e-04	1.685276900e-11
-6.000000000e-03	1.340098814e-01	-4.105985811e-04	1.562923336e-11
-6.100000000e-03	1.340098869e-01	-4.092380630e-04	1.695456478e-11
-6.200000000e-03	1.340098924e-01	-4.078775446e-04	2.029833746e-11
-6.300000000e-03	1.340098978e-01	-4.065170258e-04	2.530670707e-11
-6.400000000e-03	1.340099032e-01	-4.051565067e-04	1.069399106e-11
-6.500000000e-03	1.340099085e-01	-4.037959872e-04	3.409399262e-11
-6.600000000e-03	1.340099138e-01	-4.024354674e-04	2.067419705e-11
-6.700000000e-03	1.340099190e-01	-4.010749472e-04	4.217265289e-11
-6.800000000e-03	1.340099242e-01	-3.997144267e-04	1.192135742e-11
-6.900000000e-03	1.340099294e-01	-3.983539059e-04	2.083138684e-11
-7.000000000e-03	1.340099345e-01	-3.969933847e-04	1.004455312e-11
-7.100000000e-03	1.340099396e-01	-3.956328632e-04	1.579922022e-11
-7.200000000e-03	1.340099446e-01	-3.942723414e-04	8.283396618e-12
-7.300000000e-03	1.340099496e-01	-3.929118192e-04	2.566391944e-11
-7.400000000e-03	1.340099545e-01	-3.915512968e-04	4.640439627e-12
-7.500000000e-03	1.340099595e-01	-3.901907739e-04	3.332642121e-11
-7.600000000e-03	1.340099643e-01	-3.888302508e-04	6.606230858e-12
-7.700000000e-03	1.340099692e-01	-3.874697274e-04	1.475519910e-11
-7.800000000e-03	1.340099739e-01	-3.861092036e-04	1.064318751e-11
-7.900000000e-03	1.340099787e-01	-3.847486795e-04	1.118361872e-11
-8.000000000e-03	1.340099834e-01	-3.833881551e-04	1.059233593e-11
-8.100000000e-03	1.340099881e-01	-3.820276304e-04	2.441098822e-11
-8.200000000e-03	1.340099927e-01	-3.806671054e-04	1.010890875e-11
-8.300000000e-03	1.340099973e-01	-3.793065801e-04	1.156597168e-11
-8.400000000e-03	1.340100018e-01	-3.779460544e-04	6.270315785e-11
-8.500000000e-03	1.340100063e-01	-3.765855285e-04	9.007799560e-12
-8.600000000e-03	1.340100108e-01	-3.752250022e-04	1.148167956e-11
-8.700000000e-03	1.340100152e-01	-3.738644757e-04	2.678597836e-11
-8.800000000e-03	1.340100196e-01	-3.725039489e-04	2.020140245e-11
-8.900000000e-03	1.340100239e-01	-3.711434218e-04	1.796570070e-11
-9.000000000e-03	1.340100282e-01	-3.697828943e-04	9.350671152e-12
-9.100000000e-03	1.340100324e-01	-3.684223666e-04	1.013121667e-11
-9.200000000e-03	1.340100366e-01	-3.670618386e-04	1.059898177e-11
-9.300000000e-03	1.340100408e-01	-3.657013103e-04	1.849038803e-11
-9.400000000e-03	1.340100449e-01	-3.643407818e-04	1.291711023e-11
-9.500000000e-03	1.340100490e-01	-3.629802529e-04	6.169323034e-12
-9.600000000e-03	1.340100531e-01	-3.616197238e-04	7.308060272e-12
-9.700000000e-03	1.340100571e-01	-3.602591944e-04	2.826885549e-11
-9.800000000e-03	1.340100610e-01	-3.588986647e-04	1.501568558e-11
-9.900000000e-03	1.340100649e-01	-3.575381347e-04	2.178654063e-11
-1.000000000e-02	1.340100688e-01	-3.561776045e-04	1.100716440e-11
-1.010000000e-02	1.340100727e-01	-3.548170740e-04	5.616981141e-12
-1.020000000e-02	1.340100765e-01	-3.534565432e-04	1.775049598e-11
-1.030000000e-02	1.340100802e-01	-3.520960122e-04	2.112919525e-11
-1.040000000e-02	1.340100839e-01	-3.507354809e-04	9.508013632e-12
-1.050000000e-02	1.340100876e-01	-3.493749493e-04	1.294539636e-11
-1.060000000e-02	1.340100912e-01	-3.480144175e-04	1.904260127e-11
-1.070000000e-02	1.340100948e-01	-3.466538854e-04	8.628449600e-12
-1.080000000e-02	1.340100984e-01	-3.452933531e-04	1.843417251e-11
-1.090000000e-02	1.340101019e-01	-3.439328205e-04	3.189989490e-11
-1.100000000e-02	1.340101053e-01	-3.425722877e-04	1.395715600e-11
-1.110000000e-02	1.340101088e-01	-3.412117546e-04	8.628689298e-12
-1.120000000e-02	1.340101122e-01	-3.398512213e-04	7.630468980e-12
-1.130000000e-02	1.340101155e-01	-3.384906877e-04	1.433031911e-11
-1.140000000e-02	1.340101188e-01	-3.371301539e-04	7.312563934e-12
-1.150000000e-02	1.340101221e-01	-3.357696198e-04	9.552824580e-12
-1.160000000e-02	1.340101253e-01	-3.344090855e-04	1.433358434e-11
-1.170000000e-02	1.340101284e-01	-3.330485510e-04	2.302585921e-11
-1.180000000e-02	1.340101316e-01	-3.316880162e-04	1.245169097e-11
-1.190000000e-02	1.340101347e-01	-3.303274812e-04	9.086222420e-12
-1.200000000e-02	1.340101377e-01	-3.289669460e-04	2.107977924e-11
-1.210000000e-02	1.340101407e-01	-3.276064105e-04	1.408947550e-11
-1.220000000e-02	1.340101437e-01	-3.262458748e-04	2.880732713e-11
-1.230000000e-02	1.340101466e-01	-3.248853389e-04	1.594451052e-11
-1.240000000e-02	1.340101495e-01	-3.235248028e-04	8.859450049e-12
-1.250000000e-02	1.340101524e-01	-3.221642664e-04	5.977032144e-12
-1.260000000e-02	1.340101552e-01	-3.208037298e-04	3.230413321e-11
-1.270000000e-02	1.340101579e-01	-3.194431931e-04	1.780071490e-11
-1.280000000e-02	1.340101607e-01	-3.180826561e-04	1.148749104e-11
-1.290000000e-02	1.340101633e-01	-3.167221189e-04	1.588706153e-11
-1.300000000e-02	1.340101660e-01	-3.153615814e-04	7.017844367e-12
-1.310000000e-02	1.340101686e-01	-3.140010438e-04	7.585305045e-12
-1.320000000e-02	1.340101711e-01	-3.126405060e-04	1.477958457e-11
-1.330000000e-02	1.340101737e-01	-3.112799679e-04	3.671306583e-11
-1.340000000e-02	1.340101761e-01	-3.099194297e-04	2.163221949e-11
-1.350000000e-02	1.340101786e-01	-3.085588913e-04	4.530422878e-12
-1.360000000e-02	1.340101810e-01	-3.071983526e-04	1.256250190e-11
-1.370000000e-02	1.340101833e-01	-3.058378138e-04	1.521399001e-11
-1.380000000e-02	1.340101856e-01	-3.044772748e-04	1.007612563e-11
-1.390000000e-02	1.340101879e-01	-3.031167356e-04	1.168898539e-11
-1.400000000e-02	1.340101901e-01	-3.017561962e-04	1.407161788e-11
-1.410000000e-02	1.340101923e-01	-3.003956566e-04	7.674017737e-12
-1.420000000e-02	1.340101944e-01	-2.990351169e-04	4.955172264e-11
-1.430000000e-02	1.340101965e-01	-2.976745769e-04	1.723303688e-11
-1.440000000e-02	1.340101986e-01	-2.963140368e-04	3.090405753e-11
-1.450000000e-02	1.340102006e-01	-2.949534965e-04	1.126243145e-11
-1.460000000e-02	1.340102026e-01	-2.935929560e-04	1.214826783e-11
-1.470000000e-02	1.340102045e-01	-2.922324153e-04	1.482542186e-11
-1.480000000e-02	1.340102064e-01	-2.908718745e-04	8.832169756e-12
-1.490000000e-02	1.340102083e-01	-2.895113335e-04	7.428927139e-12
-1.500000000e-02	1.340102101e-01	-2.881507923e-04	8.446910877e-12
-1.510000000e-02	1.340102119e-01	-2.867902510e-04	1.144797799e-11
-1.520000000e-02	1.340102136e-01	-2.854297095e-04	3.344770059e-11
-1.530000000e-02	1.340102153e-01	-2.840691678e-04	9.078257840e-12
-1.540000000e-02	1.340102169e-01	-2.827086260e-04	6.949237907e-12
-1.550000000e-02	1.340102185e-01	-2.813480840e-04	2.212081992e-11
-1.560000000e-02	1.340102201e-01	-2.799875419e-04	1.975653419e-11
-1.570000000e-02	1.340102216e-01	-2.786269996e-04	8.703500903e-12
-1.580000000e-02	1.340102231e-01	-2.772664572e-04	1.033612819e-11
-1.590000000e-02	1.340102245e-01	-2.759059146e-04	7.512910289e-12
-1.600000000e-02	1.340102259e-01	-2.745453719e-04	2.466709539e-11
-1.610000000e-02	1.340102273e-01	-2.731848290e-04	8.179086184e-12
-1.620000000e-02	1.340102286e-01	-2.718242860e-04	8.078052091e-12
-1.630000000e-02	1.340102299e-01	-2.704637429e-04	1.941156082e-10
-1.640000000e-02	1.340102311e-01	-2.691031996e-04	1.281539860e-11
-1.650000000e-02	1.340102323e-01	-2.677426561e-04	1.560953295e-11
-1.660000000e-02	1.340102335e-01	-2.663821126e-04	1.916824846e-11
-1.670000000e-02	1.340102346e-01	-2.650215689e-04	1.623299742e-11
-1.680000000e-02	1.340102357e-01	-2.636610250e-04	1.427808592e-11
-1.690000000e-02	1.340102367e-01	-2.623004811e-04	5.726887780e-12
-1.700000000e-02	1.340102377e-01	-2.609399370e-04	1.000169231e-11
-1.710000000e-02	1.340102386e-01	-2.595793928e-04	1.008901006e-11
-1.720000000e-02	1.340102395e-01	-2.582188485e-04	1.748001356e-11
-1.730000000e-02	1.340102404e-01	-2.568583040e-04	2.032005117e-11
-1.740000000e-02	1.340102412e-01	-2.554977595e-04	2.244186114e-11
-1.750000000e-02	1.340102420e-01	-2.541372148e-04	1.180529787e-11
-1.760000000e-02	1.340102427e-01	-2.527766700e-04	7.201509515e-12
-1.770000000e-02	1.340102434e-01	-2.514161251e-04	1.158871828e-11
-1.780000000e-02	1.340102441e-01	-2.500555801e-04	1.026023447e-11
-1.790000000e-02	1.340102447e-01	-2.486950350e-04	2.661881778e-11
-1.800000000e-02	1.340102453e-01	-2.473344897e-04	9.468529856e-12
-1.810000000e-02	1.340102458e-01	-2.459739444e-04	2.759843145e-11
-1.820000000e-02	1.340102463e-01	-2.446133990e-04	1.120891279e-11
-1.830000000e-02	1.340102467e-01	-2.432528535e-04	4.924677167e-12
-1.840000000e-02	1.340102471e-01	-2.418923079e-04	2.210478735e-11
-1.850000000e-02	1.340102475e-01	-2.405317621e-04	7.600011302e-12
-1.860000000e-02	1.340102478e-01	-2.391712163e-04	1.320033405e-11
-1.870000000e-02	1.340102481e-01	-2.378106704e-04	2.047434556e-11
-1.880000000e-02	1.340102484e-01	-2.364501244e-04	2.291500535e-11
-1.890000000e-02	1.340102486e-01	-2.350895784e-04	4.581066566e-11
-1.900000000e-02	1.340102487e-01	-2.337290322e-04	1.501233750e-11
-1.910000000e-02	1.340102488e-01	-2.323684860e-04	8.513579293e-12
-1.920000000e-02	1.340102489e-01	-2.310079396e-04	2.037919934e-11
-1.930000000e-02	1.340102490e-01	-2.296473932e-04	1.936246497e-11
-1.940000000e-02	1.340102490e-01	-2.282868468e-04	6.578877021e-12
-1.950000000e-02	1.340102489e-01	-2.269263002e-04	1.821348710e-11
-1.960000000e-02	1.340102488e-01	-2.255657536e-04	8.594510045e-12
-1.970000000e-02	1.340102487e-01	-2.242052069e-04	1.407785597e-11
-1.980000000e-02	1.340102485e-01	-2.228446602e-04	8.482625220e-12
-1.990000000e-02	1.340102483e-01	-2.214841133e-04	1.004139579e-11
-2.000000000e-02	1.340102481e-01	-2.201235664e-04	8.732184119e-12
-2.010000000e-02	1.340102478e-01	-2.187630195e-04	8.783929402e-12
-2.020000000e-02	1.340102474e-01	-2.174024725e-04	9.988436899e-12
-2.030000000e-02	1.340102470e-01	-2.160419254e-04	1.483654485e-11
-2.040000000e-02	1.340102466e-01	-2.146813783e-04	2.088250370e-11
-2.050000000e-02	1.340102462e-01	-2.133208311e-04	1.345281629e-11
-2.060000000e-02	1.340102457e-01	-2.119602839e-04	6.492127051e-12
-2.070000000e-02	1.340102451e-01	-2.105997367e-04	6.116008931e-12
-2.080000000e-02	1.340102445e-01	-2.092391893e-04	2.019298762e-11
-2.090000000e-02	1.340102439e-01	-2.078786420e-04	3.097457196e-11
-2.100000000e-02	1.340102432e-01	-2.065180946e-04	9.193198357e-12
-2.110000000e-02	1.340102425e-01	-2.051575471e-04	8.280995186e-12
-2.120000000e-02	1.340102418e-01	-2.037969997e-04	1.293597192e-11
-2.130000000e-02	1.340102410e-01	-2.024364521e-04	1.789503988e-11
-2.140000000e-02	1.340102402e-01	-2.010759046e-04	9.517601132e-12
-2.150000000e-02	1.340102393e-01	-1.997153570e-04	1.097507850e-11
-2.160000000e-02	1.340102384e-01	-1.983548094e-04	5.463080937e-12
-2.170000000e-02	1.340102374e-01	-1.969942617e-04	1.320144565e-11
-2.180000000e-02	1.340102364e-01	-1.956337141e-04	1.984383224e-11
-2.190000000e-02	1.340102354e-01	-1.942731664e-04	1.223443188e-11
-2.200000000e-02	1.340102343e-01	-1.929126187e-04	7.547235132e-12
-2.210000000e-02	1.340102332e-01	-1.915520709e-04	7.778703206e-12
-2.220000000e-02	1.340102320e-01	-1.901915232e-04	1.027009099e-11
-2.230000000e-02	1.340102308e-01	-1.888309754e-04	9.451352359e-12
-2.240000000e-02	1.340102296e-01	-1.874704277e-04	1.988751193e-11
-2.250000000e-02	1.340102283e-01	-1.861098799e-04	2.360168482e-11
-2.260000000e-02	1.340102270e-01	-1.847493321e-04	6.876159920e-12
-2.270000000e-02	1.340102256e-01	-1.833887843e-04	1.309346422e-11
-2.280000000e-02	1.340102242e-01	-1.820282365e-04	1.808537480e-11
-2.290000000e-02	1.340102227e-01	-1.806676887e-04	1.220039653e-11
-2.300000000e-02	1.340102212e-01	-1.793071408e-04	5.421340893e-11
-2.310000000e-02	1.340102197e-01	-1.779465930e-04	1.341213870e-11
-2.320000000e-02	1.340102181e-01	-1.765860452e-04	1.090813387e-11
-2.330000000e-02	1.340102165e-01	-1.752254974e-04	1.767934074e-11
-2.340000000e-02	1.340102149e-01	-1.738649496e-04	1.647350478e-11
-2.350000000e-02	1.340102132e-01	-1.725044018e-04	1.359559432e-11
-2.360000000e-02	1.340102114e-01	-1.711438541e-04	9.609957079e-12
-2.370000000e-02	1.340102096e-01	-1.697833063e-04	1.335110367e-11
-2.380000000e-02	1.340102078e-01	-1.684227586e-04	6.950395415e-12
-2.390000000e-02	1.340102059e-01	-1.670622108e-04	3.599693432e-11
-2.400000000e-02	1.340102040e-01	-1.657016631e-04	5.343689181e-12
-2.410000000e-02	1.340102021e-01	-1.643411155e-04	1.366057612e-11
-2.420000000e-02	1.340102001e-01	-1.629805678e-04	8.452361458e-12
-2.430000000e-02	1.340101981e-01	-1.616200202e-04	1.180882744e-11
-2.440000000e-02	1.340101960e-01	-1.602594726e-04	2.320096623e-11
-2.450000000e-02	1.340101939e-01	-1.588989250e-04	9.762175683e-12
-2.460000000e-02	1.340101917e-01	-1.575383775e-04	1.084368553e-11
-2.470000000e-02	1.340101895e-01	-1.561778300e-04	1.684753526e-11
-2.480000000e-02	1.340101873e-01	-1.548172825e-04	1.092391997e-11
-2.490000000e-02	1.340101850e-01	-1.534567351e-04	1.092269672e-11
-2.500000000e-02	1.340101827e-01	-1.520961877e-04	7.894974075e-12
-2.510000000e-02	1.340101803e-01	-1.507356403e-04	1.001115842e-11
-2.520000000e-02	1.340101779e-01	-1.493750931e-04	3.568215590e-10
-2.530000000e-02	1.340101755e-01	-1.480145458e-04	7.520810881e-12
-2.540000000e-02	1.340101730e-01	-1.466539986e-04	7.073287841e-12
-2.550000000e-02	1.340101705e-01	-1.452934514e-04	8.194244523e-12
-2.560000000e-02	1.340101679e-01	-1.439329043e-04	1.704620333e-11
-2.570000000e-02	1.340101653e-01	-1.425723573e-04	1.080309937e-11
-2.580000000e-02	1.340101627e-01	-1.412118103e-04	1.365499742e-11
-2.590000000e-02	1.340101600e-01	-1.398512634e-04	1.985497193e-11
-2.600000000e-02	1.340101572e-01	-1.384907165e-04	2.320753261e-11
-2.610000000e-02	1.340101545e-01	-1.371301697e-04	9.768665653e-12
-2.620000000e-02	1.340101516e-01	-1.357696230e-04	1.504633051e-11
-2.630000000e-02	1.340101488e-01	-1.344090763e-04	9.515429064e-12
-2.640000000e-02	1.340101459e-01	-1.330485297e-04	9.932816623e-12
-2.650000000e-02	1.340101430e-01	-1.316879832e-04	6.438481522e-11
-2.660000000e-02	1.340101400e-01	-1.303274368e-04	1.420375930e-11
-2.670000000e-02	1.340101370e-01	-1.289668904e-04	2.115099616e-11
-2.680000000e-02	1.340101339e-01	-1.276063441e-04	2.043566992e-11
-2.690000000e-02	1.340101308e-01	-1.262457979e-04	1.476164369e-11
-2.700000000e-02	1.340101276e-01	-1.248852518e-04	7.195345977e-12
-2.710000000e-02	1.340101245e-01	-1.235247057e-04	8.391191071e-12
-2.720000000e-02	1.340101212e-01	-1.221641598e-04	4.550618250e-11
-2.730000000e-02	1.340101180e-01	-1.208036139e-04	1.356283306e-11
-2.740000000e-02	1.340101146e-01	-1.194430681e-04	1.322161499e-11
-2.750000000e-02	1.340101113e-01	-1.180825224e-04	2.942577067e-11
-2.760000000e-02	1.340101079e-01	-1.167219768e-04	7.250684392e-12
-2.770000000e-02	1.340101045e-01	-1.153614314e-04	7.277906838e-12
-2.780000000e-02	1.340101010e-01	-1.140008860e-04	1.137783344e-11
-2.790000000e-02	1.340100975e-01	-1.126403407e-04	1.666901865e-11
-2.800000000e-02	1.340100939e-01	-1.112797955e-04	1.322842813e-11
-2.810000000e-02	1.340100903e-01	-1.099192504e-04	1.098015847e-11
-2.820000000e-02	1.340100867e-01	-1.085587054e-04	1.220522755e-11
-2.830000000e-02	1.340100830e-01	-1.071981606e-04	1.322617600e-11
-2.840000000e-02	1.340100793e-01	-1.058376158e-04	7.766958475e-12
-2.850000000e-02	1.340100755e-01	-1.044770712e-04	5.753956860e-12
-2.860000000e-02	1.340100717e-01	-1.031165267e-04	1.618079154e-11
-2.870000000e-02	1.340100678e-01	-1.017559823e-04	2.646210960e-11
-2.880000000e-02	1.340100639e-01	-1.003954380e-04	2.874588828e-11
-2.890000000e-02	1.340100600e-01	-9.903489384e-05	9.719562257e-12
-2.900000000e-02	1.340100560e-01	-9.767434981e-05	1.362962469e-11
-2.910000000e-02	1.340100520e-01	-9.631380590e-05	9.094900477e-12
-2.920000000e-02	1.340100480e-01	-9.495326212e-05	1.149030876e-11
-2.930000000e-02	1.340100439e-01	-9.359271848e-05	7.402332598e-12
-2.940000000e-02	1.340100397e-01	-9.223217496e-05	1.645347837e-11
-2.950000000e-02	1.340100356e-01	-9.087163158e-05	9.574665759e-12
-2.960000000e-02	1.340100313e-01	-8.951108834e-05	5.474504242e-12
-2.970000000e-02	1.340100271e-01	-8.815054524e-05	1.225567606e-11
-2.980000000e-02	1.340100228e-01	-8.679000228e-05	9.556927605e-12
-2.990000000e-02	1.340100184e-01	-8.542945946e-05	2.635836919e-11
-3.000000000e-02	1.340100140e-01	-8.406891679e-05	1.192774087e-11
