# Im(epsi1)     Re(omega/c)      Im(omega/c)      Eq(det).Opt det CON kz, R=0.5 \mum, mu_c=0.3, Re(epsi1)=3.90solve_det_conkz_vs_kz.py
0.000000000e+00	1.340071025e-01	-4.849512145e-04	9.288826483e-12
-1.000000000e-04	1.340071102e-01	-4.835905048e-04	1.661597372e-11
-2.000000000e-04	1.340071179e-01	-4.822297948e-04	1.208889906e-11
-3.000000000e-04	1.340071256e-01	-4.808690842e-04	5.830862543e-11
-4.000000000e-04	1.340071332e-01	-4.795083732e-04	1.339487657e-11
-5.000000000e-04	1.340071408e-01	-4.781476617e-04	1.375206304e-11
-6.000000000e-04	1.340071484e-01	-4.767869498e-04	1.698173383e-11
-7.000000000e-04	1.340071559e-01	-4.754262375e-04	2.393855663e-11
-8.000000000e-04	1.340071633e-01	-4.740655246e-04	1.985702569e-11
-9.000000000e-04	1.340071707e-01	-4.727048113e-04	1.641465748e-11
-1.000000000e-03	1.340071781e-01	-4.713440976e-04	1.603963363e-11
-1.100000000e-03	1.340071854e-01	-4.699833835e-04	1.705257193e-11
-1.200000000e-03	1.340071927e-01	-4.686226688e-04	1.995510767e-11
-1.300000000e-03	1.340072000e-01	-4.672619538e-04	1.112194499e-11
-1.400000000e-03	1.340072072e-01	-4.659012383e-04	5.711739367e-12
-1.500000000e-03	1.340072144e-01	-4.645405223e-04	1.009638005e-11
-1.600000000e-03	1.340072215e-01	-4.631798060e-04	5.009908086e-11
-1.700000000e-03	1.340072286e-01	-4.618190892e-04	1.139659223e-11
-1.800000000e-03	1.340072356e-01	-4.604583719e-04	1.280433422e-11
-1.900000000e-03	1.340072426e-01	-4.590976543e-04	1.407733698e-11
-2.000000000e-03	1.340072496e-01	-4.577369362e-04	8.116110449e-12
-2.100000000e-03	1.340072565e-01	-4.563762176e-04	6.418222347e-12
-2.200000000e-03	1.340072634e-01	-4.550154987e-04	1.135539639e-11
-2.300000000e-03	1.340072702e-01	-4.536547793e-04	9.677778727e-12
-2.400000000e-03	1.340072770e-01	-4.522940596e-04	1.357495633e-11
-2.500000000e-03	1.340072838e-01	-4.509333394e-04	1.271030363e-11
-2.600000000e-03	1.340072905e-01	-4.495726187e-04	9.278215995e-12
-2.700000000e-03	1.340072972e-01	-4.482118977e-04	1.622016175e-11
-2.800000000e-03	1.340073038e-01	-4.468511763e-04	5.045083391e-11
-2.900000000e-03	1.340073104e-01	-4.454904544e-04	1.169226547e-11
-3.000000000e-03	1.340073169e-01	-4.441297322e-04	8.159601337e-12
-3.100000000e-03	1.340073234e-01	-4.427690095e-04	6.029033631e-12
-3.200000000e-03	1.340073299e-01	-4.414082864e-04	1.593170141e-11
-3.300000000e-03	1.340073363e-01	-4.400475630e-04	8.578585123e-12
-3.400000000e-03	1.340073427e-01	-4.386868391e-04	9.610750093e-12
-3.500000000e-03	1.340073491e-01	-4.373261149e-04	1.773156775e-11
-3.600000000e-03	1.340073554e-01	-4.359653902e-04	3.095484225e-11
-3.700000000e-03	1.340073616e-01	-4.346046652e-04	2.193583817e-11
-3.800000000e-03	1.340073678e-01	-4.332439397e-04	2.148022905e-11
-3.900000000e-03	1.340073740e-01	-4.318832139e-04	1.552670902e-11
-4.000000000e-03	1.340073802e-01	-4.305224877e-04	1.479386787e-11
-4.100000000e-03	1.340073863e-01	-4.291617611e-04	9.876151687e-12
-4.200000000e-03	1.340073923e-01	-4.278010341e-04	1.443099821e-11
-4.300000000e-03	1.340073983e-01	-4.264403068e-04	1.145681636e-11
-4.400000000e-03	1.340074043e-01	-4.250795791e-04	5.318404192e-12
-4.500000000e-03	1.340074102e-01	-4.237188510e-04	1.319479257e-11
-4.600000000e-03	1.340074161e-01	-4.223581225e-04	2.675442598e-11
-4.700000000e-03	1.340074219e-01	-4.209973936e-04	1.221094508e-11
-4.800000000e-03	1.340074278e-01	-4.196366644e-04	1.333123431e-11
-4.900000000e-03	1.340074335e-01	-4.182759348e-04	1.298619396e-11
-5.000000000e-03	1.340074392e-01	-4.169152049e-04	1.384668019e-10
-5.100000000e-03	1.340074449e-01	-4.155544746e-04	2.633136708e-11
-5.200000000e-03	1.340074506e-01	-4.141937439e-04	9.302256402e-12
-5.300000000e-03	1.340074562e-01	-4.128330129e-04	2.783688443e-11
-5.400000000e-03	1.340074617e-01	-4.114722815e-04	8.378446928e-12
-5.500000000e-03	1.340074672e-01	-4.101115497e-04	9.172107757e-12
-5.600000000e-03	1.340074727e-01	-4.087508176e-04	1.066865740e-11
-5.700000000e-03	1.340074781e-01	-4.073900852e-04	7.980240944e-12
-5.800000000e-03	1.340074835e-01	-4.060293524e-04	1.343355267e-11
-5.900000000e-03	1.340074889e-01	-4.046686193e-04	1.424783624e-11
-6.000000000e-03	1.340074942e-01	-4.033078858e-04	1.624384112e-11
-6.100000000e-03	1.340074995e-01	-4.019471520e-04	7.968855489e-12
-6.200000000e-03	1.340075047e-01	-4.005864178e-04	2.205947189e-11
-6.300000000e-03	1.340075099e-01	-3.992256833e-04	1.640666264e-11
-6.400000000e-03	1.340075150e-01	-3.978649484e-04	9.610426266e-12
-6.500000000e-03	1.340075201e-01	-3.965042133e-04	5.086070588e-12
-6.600000000e-03	1.340075252e-01	-3.951434778e-04	3.239828188e-11
-6.700000000e-03	1.340075302e-01	-3.937827419e-04	1.552292345e-11
-6.800000000e-03	1.340075352e-01	-3.924220058e-04	9.855896670e-12
-6.900000000e-03	1.340075401e-01	-3.910612693e-04	9.116991252e-12
-7.000000000e-03	1.340075450e-01	-3.897005325e-04	1.797583876e-11
-7.100000000e-03	1.340075499e-01	-3.883397953e-04	6.292561672e-12
-7.200000000e-03	1.340075547e-01	-3.869790579e-04	1.872507564e-11
-7.300000000e-03	1.340075594e-01	-3.856183201e-04	7.963885889e-12
-7.400000000e-03	1.340075642e-01	-3.842575821e-04	1.219862804e-11
-7.500000000e-03	1.340075689e-01	-3.828968437e-04	8.431771464e-12
-7.600000000e-03	1.340075735e-01	-3.815361050e-04	1.537743022e-11
-7.700000000e-03	1.340075781e-01	-3.801753659e-04	5.242819408e-11
-7.800000000e-03	1.340075827e-01	-3.788146266e-04	4.095073964e-11
-7.900000000e-03	1.340075872e-01	-3.774538870e-04	7.817325608e-12
-8.000000000e-03	1.340075917e-01	-3.760931471e-04	1.524294786e-11
-8.100000000e-03	1.340075961e-01	-3.747324068e-04	1.014794236e-11
-8.200000000e-03	1.340076005e-01	-3.733716663e-04	5.155096651e-12
-8.300000000e-03	1.340076049e-01	-3.720109255e-04	1.156202694e-11
-8.400000000e-03	1.340076092e-01	-3.706501844e-04	1.258959244e-11
-8.500000000e-03	1.340076135e-01	-3.692894430e-04	1.423830218e-11
-8.600000000e-03	1.340076177e-01	-3.679287013e-04	8.713523600e-12
-8.700000000e-03	1.340076219e-01	-3.665679593e-04	1.762634482e-11
-8.800000000e-03	1.340076261e-01	-3.652072170e-04	3.256432784e-11
-8.900000000e-03	1.340076302e-01	-3.638464745e-04	1.261998100e-11
-9.000000000e-03	1.340076342e-01	-3.624857316e-04	3.187992494e-11
-9.100000000e-03	1.340076383e-01	-3.611249885e-04	8.914274789e-12
-9.200000000e-03	1.340076423e-01	-3.597642451e-04	2.544067990e-11
-9.300000000e-03	1.340076462e-01	-3.584035015e-04	1.390786178e-11
-9.400000000e-03	1.340076501e-01	-3.570427575e-04	5.213175059e-12
-9.500000000e-03	1.340076540e-01	-3.556820133e-04	2.057665101e-11
-9.600000000e-03	1.340076578e-01	-3.543212689e-04	1.998320535e-11
-9.700000000e-03	1.340076616e-01	-3.529605241e-04	8.165603034e-12
-9.800000000e-03	1.340076653e-01	-3.515997791e-04	1.251723334e-11
-9.900000000e-03	1.340076690e-01	-3.502390338e-04	7.554880788e-12
-1.000000000e-02	1.340076727e-01	-3.488782883e-04	6.827633721e-11
-1.010000000e-02	1.340076763e-01	-3.475175425e-04	1.057082524e-11
-1.020000000e-02	1.340076798e-01	-3.461567965e-04	7.206535940e-12
-1.030000000e-02	1.340076834e-01	-3.447960502e-04	2.117078317e-11
-1.040000000e-02	1.340076869e-01	-3.434353036e-04	1.347981853e-11
-1.050000000e-02	1.340076903e-01	-3.420745568e-04	9.975785402e-12
-1.060000000e-02	1.340076937e-01	-3.407138097e-04	8.763588988e-12
-1.070000000e-02	1.340076971e-01	-3.393530625e-04	1.187092992e-11
-1.080000000e-02	1.340077004e-01	-3.379923149e-04	4.624101417e-11
-1.090000000e-02	1.340077037e-01	-3.366315671e-04	3.630227891e-11
-1.100000000e-02	1.340077069e-01	-3.352708191e-04	1.498933966e-11
-1.110000000e-02	1.340077101e-01	-3.339100708e-04	1.630297709e-11
-1.120000000e-02	1.340077133e-01	-3.325493223e-04	7.547042654e-12
-1.130000000e-02	1.340077164e-01	-3.311885736e-04	9.329479424e-12
-1.140000000e-02	1.340077195e-01	-3.298278246e-04	1.440490418e-11
-1.150000000e-02	1.340077225e-01	-3.284670755e-04	5.696579953e-11
-1.160000000e-02	1.340077255e-01	-3.271063260e-04	2.482254804e-11
-1.170000000e-02	1.340077285e-01	-3.257455764e-04	1.286188504e-11
-1.180000000e-02	1.340077314e-01	-3.243848265e-04	1.914305962e-11
-1.190000000e-02	1.340077343e-01	-3.230240764e-04	1.819719127e-11
-1.200000000e-02	1.340077371e-01	-3.216633261e-04	5.616134864e-12
-1.210000000e-02	1.340077399e-01	-3.203025756e-04	5.773616215e-12
-1.220000000e-02	1.340077426e-01	-3.189418249e-04	2.240386210e-11
-1.230000000e-02	1.340077453e-01	-3.175810739e-04	8.843938224e-12
-1.240000000e-02	1.340077480e-01	-3.162203228e-04	6.171960700e-12
-1.250000000e-02	1.340077506e-01	-3.148595714e-04	1.972192454e-11
-1.260000000e-02	1.340077532e-01	-3.134988198e-04	2.273468036e-11
-1.270000000e-02	1.340077557e-01	-3.121380681e-04	1.160541864e-11
-1.280000000e-02	1.340077582e-01	-3.107773161e-04	9.723983733e-12
-1.290000000e-02	1.340077607e-01	-3.094165639e-04	1.418826212e-11
-1.300000000e-02	1.340077631e-01	-3.080558115e-04	5.405033282e-11
-1.310000000e-02	1.340077655e-01	-3.066950589e-04	2.436106845e-11
-1.320000000e-02	1.340077678e-01	-3.053343062e-04	2.908142449e-11
-1.330000000e-02	1.340077701e-01	-3.039735532e-04	9.552217796e-12
-1.340000000e-02	1.340077723e-01	-3.026128001e-04	2.717937748e-11
-1.350000000e-02	1.340077746e-01	-3.012520467e-04	1.723065843e-11
-1.360000000e-02	1.340077767e-01	-2.998912932e-04	3.060130576e-11
-1.370000000e-02	1.340077789e-01	-2.985305395e-04	2.062561758e-11
-1.380000000e-02	1.340077809e-01	-2.971697856e-04	2.853644235e-11
-1.390000000e-02	1.340077830e-01	-2.958090315e-04	1.410751173e-11
-1.400000000e-02	1.340077850e-01	-2.944482773e-04	1.070710716e-11
-1.410000000e-02	1.340077869e-01	-2.930875229e-04	1.197532255e-11
-1.420000000e-02	1.340077889e-01	-2.917267683e-04	7.832676421e-12
-1.430000000e-02	1.340077907e-01	-2.903660135e-04	1.446654987e-11
-1.440000000e-02	1.340077926e-01	-2.890052586e-04	9.527385314e-10
-1.450000000e-02	1.340077944e-01	-2.876445035e-04	8.305709115e-12
-1.460000000e-02	1.340077961e-01	-2.862837482e-04	8.278668355e-12
-1.470000000e-02	1.340077978e-01	-2.849229928e-04	7.245701356e-12
-1.480000000e-02	1.340077995e-01	-2.835622372e-04	1.247800045e-11
-1.490000000e-02	1.340078011e-01	-2.822014815e-04	6.157144636e-12
-1.500000000e-02	1.340078027e-01	-2.808407256e-04	2.869228322e-11
-1.510000000e-02	1.340078043e-01	-2.794799695e-04	1.113387465e-11
-1.520000000e-02	1.340078058e-01	-2.781192133e-04	1.356360060e-11
-1.530000000e-02	1.340078072e-01	-2.767584570e-04	1.355743563e-11
-1.540000000e-02	1.340078087e-01	-2.753977005e-04	2.679431918e-11
-1.550000000e-02	1.340078101e-01	-2.740369438e-04	1.161924152e-11
-1.560000000e-02	1.340078114e-01	-2.726761870e-04	2.113546475e-11
-1.570000000e-02	1.340078127e-01	-2.713154301e-04	6.969789622e-12
-1.580000000e-02	1.340078140e-01	-2.699546730e-04	7.776258224e-12
-1.590000000e-02	1.340078152e-01	-2.685939158e-04	7.580734476e-11
-1.600000000e-02	1.340078163e-01	-2.672331585e-04	5.365114237e-12
-1.610000000e-02	1.340078175e-01	-2.658724010e-04	1.053538377e-11
-1.620000000e-02	1.340078186e-01	-2.645116434e-04	9.960938483e-12
-1.630000000e-02	1.340078196e-01	-2.631508856e-04	1.349499454e-11
-1.640000000e-02	1.340078206e-01	-2.617901278e-04	1.893249543e-11
-1.650000000e-02	1.340078216e-01	-2.604293698e-04	1.567620953e-11
-1.660000000e-02	1.340078225e-01	-2.590686117e-04	9.570796337e-12
-1.670000000e-02	1.340078234e-01	-2.577078534e-04	1.467720098e-11
-1.680000000e-02	1.340078243e-01	-2.563470951e-04	8.095153953e-12
-1.690000000e-02	1.340078251e-01	-2.549863366e-04	6.708504239e-12
-1.700000000e-02	1.340078258e-01	-2.536255780e-04	1.378699927e-11
-1.710000000e-02	1.340078265e-01	-2.522648193e-04	1.043073960e-11
-1.720000000e-02	1.340078272e-01	-2.509040605e-04	6.255850364e-12
-1.730000000e-02	1.340078279e-01	-2.495433016e-04	6.557159022e-12
-1.740000000e-02	1.340078285e-01	-2.481825426e-04	6.125691696e-12
-1.750000000e-02	1.340078290e-01	-2.468217835e-04	7.596044491e-11
-1.760000000e-02	1.340078295e-01	-2.454610242e-04	1.988738279e-11
-1.770000000e-02	1.340078300e-01	-2.441002649e-04	5.348136514e-11
-1.780000000e-02	1.340078304e-01	-2.427395055e-04	1.755581131e-11
-1.790000000e-02	1.340078308e-01	-2.413787460e-04	2.500213699e-11
-1.800000000e-02	1.340078312e-01	-2.400179864e-04	7.156101503e-12
-1.810000000e-02	1.340078315e-01	-2.386572267e-04	5.253699291e-11
-1.820000000e-02	1.340078317e-01	-2.372964669e-04	2.717340069e-11
-1.830000000e-02	1.340078320e-01	-2.359357070e-04	1.521238582e-11
-1.840000000e-02	1.340078322e-01	-2.345749470e-04	1.125087830e-11
-1.850000000e-02	1.340078323e-01	-2.332141870e-04	1.685338140e-11
-1.860000000e-02	1.340078324e-01	-2.318534268e-04	7.280901289e-12
-1.870000000e-02	1.340078325e-01	-2.304926666e-04	2.152495289e-11
-1.880000000e-02	1.340078325e-01	-2.291319063e-04	2.315768304e-11
-1.890000000e-02	1.340078325e-01	-2.277711460e-04	7.141091267e-12
-1.900000000e-02	1.340078324e-01	-2.264103855e-04	1.612994361e-11
-1.910000000e-02	1.340078323e-01	-2.250496250e-04	1.882100688e-11
-1.920000000e-02	1.340078321e-01	-2.236888645e-04	1.746199587e-11
-1.930000000e-02	1.340078319e-01	-2.223281038e-04	2.605982653e-11
-1.940000000e-02	1.340078317e-01	-2.209673431e-04	9.858028900e-12
-1.950000000e-02	1.340078314e-01	-2.196065824e-04	1.431706483e-11
-1.960000000e-02	1.340078311e-01	-2.182458215e-04	1.758091943e-11
-1.970000000e-02	1.340078308e-01	-2.168850606e-04	2.705173821e-11
-1.980000000e-02	1.340078304e-01	-2.155242997e-04	4.910066730e-11
-1.990000000e-02	1.340078299e-01	-2.141635387e-04	1.396337603e-11
-2.000000000e-02	1.340078295e-01	-2.128027776e-04	2.136066129e-11
-2.010000000e-02	1.340078290e-01	-2.114420166e-04	1.196483546e-11
-2.020000000e-02	1.340078284e-01	-2.100812554e-04	1.703078644e-11
-2.030000000e-02	1.340078278e-01	-2.087204942e-04	1.397577499e-11
-2.040000000e-02	1.340078271e-01	-2.073597330e-04	6.704367569e-12
-2.050000000e-02	1.340078265e-01	-2.059989717e-04	4.428392882e-12
-2.060000000e-02	1.340078257e-01	-2.046382104e-04	2.029438774e-11
-2.070000000e-02	1.340078250e-01	-2.032774491e-04	1.729359994e-11
-2.080000000e-02	1.340078242e-01	-2.019166877e-04	4.831372709e-11
-2.090000000e-02	1.340078233e-01	-2.005559263e-04	1.268968241e-11
-2.100000000e-02	1.340078224e-01	-1.991951648e-04	1.193446849e-11
-2.110000000e-02	1.340078215e-01	-1.978344033e-04	1.545558864e-11
-2.120000000e-02	1.340078205e-01	-1.964736418e-04	8.322216690e-12
-2.130000000e-02	1.340078195e-01	-1.951128803e-04	1.344856840e-11
-2.140000000e-02	1.340078184e-01	-1.937521187e-04	2.865954485e-11
-2.150000000e-02	1.340078173e-01	-1.923913572e-04	7.394728611e-12
-2.160000000e-02	1.340078162e-01	-1.910305956e-04	1.106029319e-11
-2.170000000e-02	1.340078150e-01	-1.896698340e-04	9.294119372e-12
-2.180000000e-02	1.340078138e-01	-1.883090723e-04	8.061435292e-12
-2.190000000e-02	1.340078125e-01	-1.869483107e-04	6.570669992e-12
-2.200000000e-02	1.340078112e-01	-1.855875491e-04	1.079168153e-11
-2.210000000e-02	1.340078099e-01	-1.842267874e-04	1.501404618e-11
-2.220000000e-02	1.340078085e-01	-1.828660258e-04	8.356027728e-12
-2.230000000e-02	1.340078071e-01	-1.815052641e-04	2.724144993e-11
-2.240000000e-02	1.340078056e-01	-1.801445024e-04	1.624124946e-11
-2.250000000e-02	1.340078041e-01	-1.787837408e-04	7.480082307e-12
-2.260000000e-02	1.340078025e-01	-1.774229791e-04	1.204613281e-11
-2.270000000e-02	1.340078009e-01	-1.760622175e-04	2.240445601e-11
-2.280000000e-02	1.340077993e-01	-1.747014558e-04	1.140187100e-11
-2.290000000e-02	1.340077976e-01	-1.733406942e-04	1.036261292e-11
-2.300000000e-02	1.340077959e-01	-1.719799325e-04	8.494270470e-12
-2.310000000e-02	1.340077942e-01	-1.706191709e-04	1.475425966e-11
-2.320000000e-02	1.340077924e-01	-1.692584093e-04	1.680701453e-11
-2.330000000e-02	1.340077905e-01	-1.678976477e-04	1.352470186e-11
-2.340000000e-02	1.340077886e-01	-1.665368862e-04	8.708095307e-12
-2.350000000e-02	1.340077867e-01	-1.651761246e-04	1.054974489e-11
-2.360000000e-02	1.340077847e-01	-1.638153631e-04	3.186676447e-11
-2.370000000e-02	1.340077827e-01	-1.624546016e-04	7.144860991e-12
-2.380000000e-02	1.340077807e-01	-1.610938401e-04	6.264359362e-12
-2.390000000e-02	1.340077786e-01	-1.597330787e-04	5.098458211e-12
-2.400000000e-02	1.340077765e-01	-1.583723173e-04	1.918485925e-10
-2.410000000e-02	1.340077743e-01	-1.570115559e-04	3.652882056e-11
-2.420000000e-02	1.340077721e-01	-1.556507946e-04	2.898675204e-11
-2.430000000e-02	1.340077698e-01	-1.542900333e-04	1.810617889e-11
-2.440000000e-02	1.340077675e-01	-1.529292720e-04	8.521760540e-12
-2.450000000e-02	1.340077652e-01	-1.515685108e-04	1.339271919e-11
-2.460000000e-02	1.340077628e-01	-1.502077496e-04	1.166024856e-11
-2.470000000e-02	1.340077604e-01	-1.488469885e-04	4.285165927e-11
-2.480000000e-02	1.340077579e-01	-1.474862274e-04	1.038271363e-11
-2.490000000e-02	1.340077554e-01	-1.461254664e-04	2.086469842e-11
-2.500000000e-02	1.340077529e-01	-1.447647054e-04	2.786797422e-11
-2.510000000e-02	1.340077503e-01	-1.434039445e-04	1.010697417e-11
-2.520000000e-02	1.340077477e-01	-1.420431836e-04	1.127059759e-11
-2.530000000e-02	1.340077450e-01	-1.406824228e-04	1.120116738e-11
-2.540000000e-02	1.340077423e-01	-1.393216621e-04	1.038265081e-11
-2.550000000e-02	1.340077395e-01	-1.379609014e-04	8.102171683e-12
-2.560000000e-02	1.340077367e-01	-1.366001408e-04	1.732624091e-11
-2.570000000e-02	1.340077339e-01	-1.352393802e-04	3.514655021e-11
-2.580000000e-02	1.340077310e-01	-1.338786197e-04	5.828579007e-12
-2.590000000e-02	1.340077281e-01	-1.325178593e-04	3.423396082e-11
-2.600000000e-02	1.340077251e-01	-1.311570990e-04	2.181940706e-11
-2.610000000e-02	1.340077222e-01	-1.297963388e-04	6.568749838e-11
-2.620000000e-02	1.340077191e-01	-1.284355786e-04	6.937481085e-12
-2.630000000e-02	1.340077160e-01	-1.270748185e-04	1.362294191e-11
-2.640000000e-02	1.340077129e-01	-1.257140584e-04	2.482939706e-11
-2.650000000e-02	1.340077097e-01	-1.243532985e-04	2.570148488e-11
-2.660000000e-02	1.340077065e-01	-1.229925387e-04	1.962187585e-11
-2.670000000e-02	1.340077033e-01	-1.216317789e-04	3.699120637e-11
-2.680000000e-02	1.340077000e-01	-1.202710192e-04	2.396356406e-11
-2.690000000e-02	1.340076967e-01	-1.189102596e-04	1.046403783e-11
-2.700000000e-02	1.340076933e-01	-1.175495002e-04	1.500715468e-11
-2.710000000e-02	1.340076899e-01	-1.161887408e-04	7.479366438e-12
-2.720000000e-02	1.340076864e-01	-1.148279815e-04	8.482821729e-12
-2.730000000e-02	1.340076829e-01	-1.134672223e-04	1.404128826e-11
-2.740000000e-02	1.340076794e-01	-1.121064632e-04	1.665373060e-11
-2.750000000e-02	1.340076758e-01	-1.107457042e-04	2.474233115e-11
-2.760000000e-02	1.340076722e-01	-1.093849453e-04	5.053050399e-11
-2.770000000e-02	1.340076685e-01	-1.080241866e-04	7.412211465e-12
-2.780000000e-02	1.340076648e-01	-1.066634279e-04	8.949621771e-12
-2.790000000e-02	1.340076611e-01	-1.053026694e-04	3.279056974e-11
-2.800000000e-02	1.340076573e-01	-1.039419109e-04	1.129126995e-11
-2.810000000e-02	1.340076535e-01	-1.025811526e-04	2.641568477e-11
-2.820000000e-02	1.340076496e-01	-1.012203944e-04	1.110987515e-11
-2.830000000e-02	1.340076457e-01	-9.985963637e-05	2.282319702e-11
-2.840000000e-02	1.340076418e-01	-9.849887842e-05	9.412886512e-12
-2.850000000e-02	1.340076378e-01	-9.713812060e-05	3.592731364e-11
-2.860000000e-02	1.340076337e-01	-9.577736290e-05	7.806510201e-12
-2.870000000e-02	1.340076297e-01	-9.441660534e-05	1.008870499e-11
-2.880000000e-02	1.340076255e-01	-9.305584791e-05	1.527157678e-11
-2.890000000e-02	1.340076214e-01	-9.169509062e-05	6.893474455e-11
-2.900000000e-02	1.340076172e-01	-9.033433345e-05	9.792259542e-12
-2.910000000e-02	1.340076129e-01	-8.897357643e-05	7.715304926e-12
-2.920000000e-02	1.340076087e-01	-8.761281953e-05	4.097152973e-11
-2.930000000e-02	1.340076043e-01	-8.625206280e-05	1.103377175e-11
-2.940000000e-02	1.340076000e-01	-8.489130621e-05	1.052076097e-11
-2.950000000e-02	1.340075956e-01	-8.353054976e-05	7.480780427e-12
-2.960000000e-02	1.340075911e-01	-8.216979345e-05	8.842474618e-12
-2.970000000e-02	1.340075866e-01	-8.080903730e-05	1.204374879e-11
-2.980000000e-02	1.340075821e-01	-7.944828131e-05	1.795041848e-11
-2.990000000e-02	1.340075775e-01	-7.808752547e-05	1.195387132e-11
-3.000000000e-02	1.340075729e-01	-7.672676978e-05	9.027108325e-12
