# Im(epsi1)     Re(omega/c)      Im(omega/c)      Eq(det).Opt det CON kz, R=0.5 \mum, mu_c=0.3, Re(epsi1)=3.90solve_det_conkz_vs_kz.py
0.000000000e+00	1.340116127e-01	-5.023076809e-04	1.414813796e-11
-1.000000000e-04	1.340116210e-01	-5.009474922e-04	7.005833161e-12
-2.000000000e-04	1.340116292e-01	-4.995873029e-04	2.075192698e-11
-3.000000000e-04	1.340116374e-01	-4.982271131e-04	1.446638721e-11
-4.000000000e-04	1.340116456e-01	-4.968669229e-04	1.207253728e-11
-5.000000000e-04	1.340116537e-01	-4.955067321e-04	1.416595167e-11
-6.000000000e-04	1.340116617e-01	-4.941465409e-04	2.745335279e-11
-7.000000000e-04	1.340116698e-01	-4.927863492e-04	1.135984634e-11
-8.000000000e-04	1.340116778e-01	-4.914261570e-04	1.243094469e-11
-9.000000000e-04	1.340116857e-01	-4.900659644e-04	5.259543179e-12
-1.000000000e-03	1.340116936e-01	-4.887057713e-04	1.028464392e-11
-1.100000000e-03	1.340117015e-01	-4.873455777e-04	8.605036703e-12
-1.200000000e-03	1.340117093e-01	-4.859853836e-04	2.137842709e-11
-1.300000000e-03	1.340117171e-01	-4.846251890e-04	1.454506278e-11
-1.400000000e-03	1.340117248e-01	-4.832649940e-04	3.116711347e-11
-1.500000000e-03	1.340117325e-01	-4.819047986e-04	1.416472269e-11
-1.600000000e-03	1.340117402e-01	-4.805446026e-04	5.954711427e-11
-1.700000000e-03	1.340117478e-01	-4.791844062e-04	2.590498418e-11
-1.800000000e-03	1.340117554e-01	-4.778242094e-04	2.814186489e-11
-1.900000000e-03	1.340117629e-01	-4.764640121e-04	2.763942103e-11
-2.000000000e-03	1.340117704e-01	-4.751038143e-04	1.118574725e-11
-2.100000000e-03	1.340117778e-01	-4.737436161e-04	1.706555013e-11
-2.200000000e-03	1.340117852e-01	-4.723834174e-04	1.292850947e-11
-2.300000000e-03	1.340117926e-01	-4.710232183e-04	8.001132029e-12
-2.400000000e-03	1.340117999e-01	-4.696630187e-04	1.254857265e-11
-2.500000000e-03	1.340118072e-01	-4.683028187e-04	1.056913540e-11
-2.600000000e-03	1.340118145e-01	-4.669426183e-04	1.374906667e-11
-2.700000000e-03	1.340118217e-01	-4.655824174e-04	9.730195205e-12
-2.800000000e-03	1.340118288e-01	-4.642222160e-04	8.191597513e-12
-2.900000000e-03	1.340118359e-01	-4.628620143e-04	9.814572374e-12
-3.000000000e-03	1.340118430e-01	-4.615018121e-04	1.983425629e-11
-3.100000000e-03	1.340118501e-01	-4.601416095e-04	1.034507162e-11
-3.200000000e-03	1.340118571e-01	-4.587814064e-04	2.364155660e-11
-3.300000000e-03	1.340118640e-01	-4.574212029e-04	3.671541042e-11
-3.400000000e-03	1.340118709e-01	-4.560609990e-04	6.953010300e-12
-3.500000000e-03	1.340118778e-01	-4.547007947e-04	9.102429498e-12
-3.600000000e-03	1.340118846e-01	-4.533405899e-04	1.413576613e-11
-3.700000000e-03	1.340118914e-01	-4.519803847e-04	1.008566661e-11
-3.800000000e-03	1.340118982e-01	-4.506201792e-04	1.522891548e-11
-3.900000000e-03	1.340119049e-01	-4.492599731e-04	1.487203524e-11
-4.000000000e-03	1.340119115e-01	-4.478997667e-04	1.699967080e-11
-4.100000000e-03	1.340119182e-01	-4.465395599e-04	1.019371974e-11
-4.200000000e-03	1.340119248e-01	-4.451793527e-04	7.491103978e-12
-4.300000000e-03	1.340119313e-01	-4.438191450e-04	6.803680996e-12
-4.400000000e-03	1.340119378e-01	-4.424589370e-04	5.821693068e-11
-4.500000000e-03	1.340119443e-01	-4.410987285e-04	1.701457886e-11
-4.600000000e-03	1.340119507e-01	-4.397385197e-04	1.833790421e-11
-4.700000000e-03	1.340119571e-01	-4.383783104e-04	7.188072185e-12
-4.800000000e-03	1.340119634e-01	-4.370181008e-04	6.852645614e-12
-4.900000000e-03	1.340119697e-01	-4.356578908e-04	1.761084223e-11
-5.000000000e-03	1.340119759e-01	-4.342976803e-04	1.183282685e-11
-5.100000000e-03	1.340119821e-01	-4.329374695e-04	5.702923119e-11
-5.200000000e-03	1.340119883e-01	-4.315772583e-04	1.042035518e-11
-5.300000000e-03	1.340119944e-01	-4.302170467e-04	6.562220345e-12
-5.400000000e-03	1.340120005e-01	-4.288568347e-04	2.616133603e-11
-5.500000000e-03	1.340120066e-01	-4.274966224e-04	3.771084012e-11
-5.600000000e-03	1.340120126e-01	-4.261364097e-04	1.649745041e-11
-5.700000000e-03	1.340120185e-01	-4.247761965e-04	1.550354408e-11
-5.800000000e-03	1.340120245e-01	-4.234159831e-04	1.136261690e-11
-5.900000000e-03	1.340120304e-01	-4.220557692e-04	1.262393745e-11
-6.000000000e-03	1.340120362e-01	-4.206955550e-04	9.457053269e-12
-6.100000000e-03	1.340120420e-01	-4.193353404e-04	1.735980791e-11
-6.200000000e-03	1.340120477e-01	-4.179751254e-04	8.543100674e-12
-6.300000000e-03	1.340120535e-01	-4.166149101e-04	7.552999877e-12
-6.400000000e-03	1.340120591e-01	-4.152546944e-04	2.707244451e-11
-6.500000000e-03	1.340120648e-01	-4.138944783e-04	1.751640703e-11
-6.600000000e-03	1.340120704e-01	-4.125342619e-04	8.870673371e-12
-6.700000000e-03	1.340120759e-01	-4.111740451e-04	1.385979670e-11
-6.800000000e-03	1.340120814e-01	-4.098138280e-04	5.278692031e-12
-6.900000000e-03	1.340120869e-01	-4.084536105e-04	1.317614460e-11
-7.000000000e-03	1.340120923e-01	-4.070933927e-04	1.113033623e-11
-7.100000000e-03	1.340120977e-01	-4.057331745e-04	4.010509179e-11
-7.200000000e-03	1.340121030e-01	-4.043729560e-04	1.296415436e-10
-7.300000000e-03	1.340121084e-01	-4.030127371e-04	5.345078981e-11
-7.400000000e-03	1.340121136e-01	-4.016525179e-04	1.432617521e-11
-7.500000000e-03	1.340121188e-01	-4.002922984e-04	1.276204060e-11
-7.600000000e-03	1.340121240e-01	-3.989320785e-04	5.511705627e-11
-7.700000000e-03	1.340121292e-01	-3.975718583e-04	2.828537137e-11
-7.800000000e-03	1.340121342e-01	-3.962116377e-04	1.138307835e-10
-7.900000000e-03	1.340121393e-01	-3.948514169e-04	9.564015813e-12
-8.000000000e-03	1.340121443e-01	-3.934911956e-04	7.848461678e-12
-8.100000000e-03	1.340121493e-01	-3.921309741e-04	2.358740973e-11
-8.200000000e-03	1.340121542e-01	-3.907707522e-04	2.209408555e-11
-8.300000000e-03	1.340121591e-01	-3.894105300e-04	1.546056481e-11
-8.400000000e-03	1.340121640e-01	-3.880503075e-04	1.980314280e-11
-8.500000000e-03	1.340121688e-01	-3.866900847e-04	8.635555658e-12
-8.600000000e-03	1.340121735e-01	-3.853298616e-04	7.761183301e-12
-8.700000000e-03	1.340121783e-01	-3.839696381e-04	9.297686357e-12
-8.800000000e-03	1.340121829e-01	-3.826094143e-04	5.398775192e-11
-8.900000000e-03	1.340121876e-01	-3.812491903e-04	9.687464633e-12
-9.000000000e-03	1.340121922e-01	-3.798889659e-04	9.722251529e-12
-9.100000000e-03	1.340121967e-01	-3.785287412e-04	1.962078747e-11
-9.200000000e-03	1.340122013e-01	-3.771685162e-04	8.245512503e-12
-9.300000000e-03	1.340122057e-01	-3.758082909e-04	1.189970317e-11
-9.400000000e-03	1.340122102e-01	-3.744480653e-04	2.633242528e-11
-9.500000000e-03	1.340122146e-01	-3.730878394e-04	1.803797217e-11
-9.600000000e-03	1.340122189e-01	-3.717276132e-04	2.339494785e-11
-9.700000000e-03	1.340122232e-01	-3.703673867e-04	2.268892444e-11
-9.800000000e-03	1.340122275e-01	-3.690071599e-04	1.873547107e-11
-9.900000000e-03	1.340122317e-01	-3.676469328e-04	7.853658522e-12
-1.000000000e-02	1.340122359e-01	-3.662867055e-04	1.266276705e-11
-1.010000000e-02	1.340122401e-01	-3.649264778e-04	8.022377910e-12
-1.020000000e-02	1.340122442e-01	-3.635662499e-04	1.807171905e-11
-1.030000000e-02	1.340122482e-01	-3.622060217e-04	2.383826802e-11
-1.040000000e-02	1.340122523e-01	-3.608457932e-04	1.569172826e-11
-1.050000000e-02	1.340122562e-01	-3.594855644e-04	7.119389803e-12
-1.060000000e-02	1.340122602e-01	-3.581253354e-04	2.459855632e-11
-1.070000000e-02	1.340122641e-01	-3.567651061e-04	2.064173499e-11
-1.080000000e-02	1.340122679e-01	-3.554048765e-04	1.295953673e-11
-1.090000000e-02	1.340122718e-01	-3.540446466e-04	1.194373549e-11
-1.100000000e-02	1.340122755e-01	-3.526844165e-04	8.763408932e-12
-1.110000000e-02	1.340122793e-01	-3.513241861e-04	1.168794662e-11
-1.120000000e-02	1.340122830e-01	-3.499639555e-04	1.595064354e-11
-1.130000000e-02	1.340122866e-01	-3.486037246e-04	1.651154182e-11
-1.140000000e-02	1.340122902e-01	-3.472434934e-04	2.547997085e-11
-1.150000000e-02	1.340122938e-01	-3.458832620e-04	7.443195581e-12
-1.160000000e-02	1.340122973e-01	-3.445230303e-04	1.656962156e-11
-1.170000000e-02	1.340123008e-01	-3.431627984e-04	7.144980192e-12
-1.180000000e-02	1.340123042e-01	-3.418025662e-04	1.085633739e-11
-1.190000000e-02	1.340123076e-01	-3.404423338e-04	1.977194483e-11
-1.200000000e-02	1.340123110e-01	-3.390821011e-04	3.384842336e-11
-1.210000000e-02	1.340123143e-01	-3.377218682e-04	2.788705960e-11
-1.220000000e-02	1.340123176e-01	-3.363616350e-04	6.602293859e-11
-1.230000000e-02	1.340123208e-01	-3.350014016e-04	1.826564057e-11
-1.240000000e-02	1.340123240e-01	-3.336411680e-04	9.800122869e-12
-1.250000000e-02	1.340123272e-01	-3.322809341e-04	2.001014874e-11
-1.260000000e-02	1.340123303e-01	-3.309207000e-04	1.098181583e-11
-1.270000000e-02	1.340123334e-01	-3.295604657e-04	4.399138030e-12
-1.280000000e-02	1.340123364e-01	-3.282002311e-04	1.570888260e-11
-1.290000000e-02	1.340123394e-01	-3.268399963e-04	1.262484200e-11
-1.300000000e-02	1.340123423e-01	-3.254797613e-04	1.260151627e-11
-1.310000000e-02	1.340123453e-01	-3.241195261e-04	1.321473333e-11
-1.320000000e-02	1.340123481e-01	-3.227592906e-04	1.850326286e-11
-1.330000000e-02	1.340123509e-01	-3.213990549e-04	3.213613588e-11
-1.340000000e-02	1.340123537e-01	-3.200388190e-04	2.369204280e-11
-1.350000000e-02	1.340123565e-01	-3.186785829e-04	2.403272664e-11
-1.360000000e-02	1.340123592e-01	-3.173183466e-04	9.882433872e-12
-1.370000000e-02	1.340123618e-01	-3.159581101e-04	7.532685852e-12
-1.380000000e-02	1.340123644e-01	-3.145978733e-04	9.754468599e-12
-1.390000000e-02	1.340123670e-01	-3.132376364e-04	1.111361123e-11
-1.400000000e-02	1.340123696e-01	-3.118773992e-04	2.922273469e-11
-1.410000000e-02	1.340123721e-01	-3.105171619e-04	1.037790070e-11
-1.420000000e-02	1.340123745e-01	-3.091569243e-04	1.071375478e-11
-1.430000000e-02	1.340123769e-01	-3.077966866e-04	1.570346738e-11
-1.440000000e-02	1.340123793e-01	-3.064364486e-04	5.969749623e-12
-1.450000000e-02	1.340123816e-01	-3.050762105e-04	5.568708005e-12
-1.460000000e-02	1.340123839e-01	-3.037159721e-04	7.613799070e-12
-1.470000000e-02	1.340123862e-01	-3.023557336e-04	3.422289285e-11
-1.480000000e-02	1.340123884e-01	-3.009954949e-04	6.979138175e-12
-1.490000000e-02	1.340123905e-01	-2.996352560e-04	1.669225366e-11
-1.500000000e-02	1.340123926e-01	-2.982750169e-04	1.142868997e-11
-1.510000000e-02	1.340123947e-01	-2.969147777e-04	1.105483611e-11
-1.520000000e-02	1.340123968e-01	-2.955545382e-04	5.108948064e-12
-1.530000000e-02	1.340123988e-01	-2.941942986e-04	9.099159536e-12
-1.540000000e-02	1.340124007e-01	-2.928340588e-04	2.098083857e-11
-1.550000000e-02	1.340124026e-01	-2.914738188e-04	2.276528210e-11
-1.560000000e-02	1.340124045e-01	-2.901135787e-04	1.673619416e-11
-1.570000000e-02	1.340124063e-01	-2.887533384e-04	1.568651662e-11
-1.580000000e-02	1.340124081e-01	-2.873930979e-04	1.635910052e-11
-1.590000000e-02	1.340124099e-01	-2.860328573e-04	9.912940362e-12
-1.600000000e-02	1.340124116e-01	-2.846726165e-04	9.092973868e-12
-1.610000000e-02	1.340124133e-01	-2.833123756e-04	9.029543599e-11
-1.620000000e-02	1.340124149e-01	-2.819521344e-04	2.130963326e-11
-1.630000000e-02	1.340124165e-01	-2.805918932e-04	5.018641325e-11
-1.640000000e-02	1.340124180e-01	-2.792316517e-04	3.045047003e-11
-1.650000000e-02	1.340124195e-01	-2.778714102e-04	1.349025553e-11
-1.660000000e-02	1.340124210e-01	-2.765111684e-04	4.870825812e-12
-1.670000000e-02	1.340124224e-01	-2.751509266e-04	1.622989032e-11
-1.680000000e-02	1.340124238e-01	-2.737906845e-04	1.458205384e-11
-1.690000000e-02	1.340124251e-01	-2.724304424e-04	2.263911674e-11
-1.700000000e-02	1.340124264e-01	-2.710702001e-04	1.096997401e-11
-1.710000000e-02	1.340124277e-01	-2.697099576e-04	1.835129607e-11
-1.720000000e-02	1.340124289e-01	-2.683497150e-04	5.931907517e-12
-1.730000000e-02	1.340124301e-01	-2.669894723e-04	1.885264631e-11
-1.740000000e-02	1.340124312e-01	-2.656292295e-04	5.118503738e-10
-1.750000000e-02	1.340124323e-01	-2.642689865e-04	1.682575594e-11
-1.760000000e-02	1.340124333e-01	-2.629087434e-04	2.200236124e-11
-1.770000000e-02	1.340124343e-01	-2.615485001e-04	1.980459835e-11
-1.780000000e-02	1.340124353e-01	-2.601882567e-04	5.686628053e-12
-1.790000000e-02	1.340124362e-01	-2.588280133e-04	8.522753235e-12
-1.800000000e-02	1.340124371e-01	-2.574677697e-04	5.821301610e-12
-1.810000000e-02	1.340124380e-01	-2.561075259e-04	7.709013762e-12
-1.820000000e-02	1.340124388e-01	-2.547472821e-04	9.498004701e-12
-1.830000000e-02	1.340124395e-01	-2.533870381e-04	7.452993205e-12
-1.840000000e-02	1.340124402e-01	-2.520267941e-04	1.177715835e-11
-1.850000000e-02	1.340124409e-01	-2.506665499e-04	2.659992822e-11
-1.860000000e-02	1.340124416e-01	-2.493063056e-04	8.485381482e-12
-1.870000000e-02	1.340124421e-01	-2.479460612e-04	1.744259439e-11
-1.880000000e-02	1.340124427e-01	-2.465858167e-04	6.306797530e-12
-1.890000000e-02	1.340124432e-01	-2.452255721e-04	1.386240351e-11
-1.900000000e-02	1.340124437e-01	-2.438653274e-04	1.476365225e-11
-1.910000000e-02	1.340124441e-01	-2.425050826e-04	8.170119958e-11
-1.920000000e-02	1.340124445e-01	-2.411448377e-04	1.544227660e-11
-1.930000000e-02	1.340124448e-01	-2.397845927e-04	8.042122111e-12
-1.940000000e-02	1.340124452e-01	-2.384243476e-04	8.452485527e-12
-1.950000000e-02	1.340124454e-01	-2.370641024e-04	2.486277568e-11
-1.960000000e-02	1.340124456e-01	-2.357038572e-04	1.546817989e-11
-1.970000000e-02	1.340124458e-01	-2.343436118e-04	2.500911543e-11
-1.980000000e-02	1.340124460e-01	-2.329833664e-04	4.246541662e-11
-1.990000000e-02	1.340124461e-01	-2.316231209e-04	2.437858731e-11
-2.000000000e-02	1.340124461e-01	-2.302628753e-04	2.642052929e-11
-2.010000000e-02	1.340124461e-01	-2.289026297e-04	6.575909887e-12
-2.020000000e-02	1.340124461e-01	-2.275423839e-04	7.707502164e-11
-2.030000000e-02	1.340124460e-01	-2.261821381e-04	2.353894598e-11
-2.040000000e-02	1.340124459e-01	-2.248218922e-04	1.796399914e-11
-2.050000000e-02	1.340124458e-01	-2.234616463e-04	4.083752545e-11
-2.060000000e-02	1.340124456e-01	-2.221014003e-04	1.480961118e-11
-2.070000000e-02	1.340124454e-01	-2.207411542e-04	2.753024399e-11
-2.080000000e-02	1.340124451e-01	-2.193809080e-04	2.251794474e-11
-2.090000000e-02	1.340124448e-01	-2.180206618e-04	1.055577253e-11
-2.100000000e-02	1.340124444e-01	-2.166604156e-04	1.904747513e-11
-2.110000000e-02	1.340124440e-01	-2.153001693e-04	9.830069601e-12
-2.120000000e-02	1.340124436e-01	-2.139399229e-04	9.423226441e-12
-2.130000000e-02	1.340124431e-01	-2.125796764e-04	1.162354702e-10
-2.140000000e-02	1.340124426e-01	-2.112194300e-04	2.346374088e-11
-2.150000000e-02	1.340124420e-01	-2.098591835e-04	1.467412239e-11
-2.160000000e-02	1.340124414e-01	-2.084989369e-04	6.335231349e-12
-2.170000000e-02	1.340124408e-01	-2.071386903e-04	7.907885590e-12
-2.180000000e-02	1.340124401e-01	-2.057784436e-04	1.705981076e-11
-2.190000000e-02	1.340124394e-01	-2.044181969e-04	1.883506789e-11
-2.200000000e-02	1.340124386e-01	-2.030579502e-04	2.178337515e-10
-2.210000000e-02	1.340124378e-01	-2.016977035e-04	1.187094160e-11
-2.220000000e-02	1.340124369e-01	-2.003374567e-04	6.907617751e-12
-2.230000000e-02	1.340124360e-01	-1.989772098e-04	3.546866126e-11
-2.240000000e-02	1.340124351e-01	-1.976169630e-04	2.497084101e-11
-2.250000000e-02	1.340124341e-01	-1.962567161e-04	4.671607102e-12
-2.260000000e-02	1.340124331e-01	-1.948964692e-04	5.685611866e-12
-2.270000000e-02	1.340124321e-01	-1.935362222e-04	4.847347880e-11
-2.280000000e-02	1.340124310e-01	-1.921759753e-04	4.413604955e-11
-2.290000000e-02	1.340124298e-01	-1.908157283e-04	2.236566151e-11
-2.300000000e-02	1.340124286e-01	-1.894554813e-04	8.579783188e-12
-2.310000000e-02	1.340124274e-01	-1.880952343e-04	1.419581332e-11
-2.320000000e-02	1.340124261e-01	-1.867349873e-04	1.016052178e-11
-2.330000000e-02	1.340124248e-01	-1.853747403e-04	1.776625246e-11
-2.340000000e-02	1.340124235e-01	-1.840144933e-04	2.448819742e-11
-2.350000000e-02	1.340124221e-01	-1.826542462e-04	4.148943518e-11
-2.360000000e-02	1.340124207e-01	-1.812939992e-04	1.886743300e-11
-2.370000000e-02	1.340124192e-01	-1.799337521e-04	2.351639728e-11
-2.380000000e-02	1.340124177e-01	-1.785735051e-04	1.290210738e-11
-2.390000000e-02	1.340124161e-01	-1.772132580e-04	8.745302210e-12
-2.400000000e-02	1.340124145e-01	-1.758530110e-04	1.486372655e-11
-2.410000000e-02	1.340124129e-01	-1.744927640e-04	6.694225334e-11
-2.420000000e-02	1.340124112e-01	-1.731325169e-04	9.105433001e-12
-2.430000000e-02	1.340124095e-01	-1.717722699e-04	4.804568360e-11
-2.440000000e-02	1.340124077e-01	-1.704120229e-04	1.478950888e-11
-2.450000000e-02	1.340124059e-01	-1.690517759e-04	7.358267948e-12
-2.460000000e-02	1.340124041e-01	-1.676915290e-04	3.844281148e-11
-2.470000000e-02	1.340124022e-01	-1.663312820e-04	1.084535473e-11
-2.480000000e-02	1.340124003e-01	-1.649710351e-04	1.513885212e-11
-2.490000000e-02	1.340123983e-01	-1.636107882e-04	1.217941255e-11
-2.500000000e-02	1.340123963e-01	-1.622505413e-04	1.898850394e-11
-2.510000000e-02	1.340123943e-01	-1.608902945e-04	6.088254182e-12
-2.520000000e-02	1.340123922e-01	-1.595300476e-04	1.079724858e-11
-2.530000000e-02	1.340123900e-01	-1.581698008e-04	3.504039482e-11
-2.540000000e-02	1.340123879e-01	-1.568095541e-04	2.009420838e-11
-2.550000000e-02	1.340123857e-01	-1.554493074e-04	9.174798448e-12
-2.560000000e-02	1.340123834e-01	-1.540890607e-04	1.108442169e-11
-2.570000000e-02	1.340123811e-01	-1.527288140e-04	1.039044085e-11
-2.580000000e-02	1.340123788e-01	-1.513685674e-04	6.458730122e-12
-2.590000000e-02	1.340123764e-01	-1.500083209e-04	2.208968884e-11
-2.600000000e-02	1.340123740e-01	-1.486480743e-04	6.176910312e-12
-2.610000000e-02	1.340123715e-01	-1.472878279e-04	1.913840088e-11
-2.620000000e-02	1.340123690e-01	-1.459275815e-04	8.880414937e-12
-2.630000000e-02	1.340123665e-01	-1.445673351e-04	6.288153589e-12
-2.640000000e-02	1.340123639e-01	-1.432070888e-04	1.548734831e-11
-2.650000000e-02	1.340123612e-01	-1.418468425e-04	2.283642437e-11
-2.660000000e-02	1.340123586e-01	-1.404865963e-04	1.788484789e-11
-2.670000000e-02	1.340123559e-01	-1.391263502e-04	6.737782063e-12
-2.680000000e-02	1.340123531e-01	-1.377661042e-04	4.413246787e-11
-2.690000000e-02	1.340123503e-01	-1.364058581e-04	2.303082695e-11
-2.700000000e-02	1.340123475e-01	-1.350456122e-04	5.672049799e-12
-2.710000000e-02	1.340123446e-01	-1.336853663e-04	2.831197304e-11
-2.720000000e-02	1.340123417e-01	-1.323251205e-04	5.235986906e-12
-2.730000000e-02	1.340123387e-01	-1.309648748e-04	1.709472443e-11
-2.740000000e-02	1.340123357e-01	-1.296046292e-04	4.991663743e-12
-2.750000000e-02	1.340123327e-01	-1.282443836e-04	7.911896705e-12
-2.760000000e-02	1.340123296e-01	-1.268841381e-04	1.318429903e-11
-2.770000000e-02	1.340123265e-01	-1.255238927e-04	5.790476063e-11
-2.780000000e-02	1.340123233e-01	-1.241636474e-04	1.323723869e-11
-2.790000000e-02	1.340123201e-01	-1.228034021e-04	2.310182308e-11
-2.800000000e-02	1.340123169e-01	-1.214431570e-04	1.721825051e-11
-2.810000000e-02	1.340123136e-01	-1.200829119e-04	4.437319740e-12
-2.820000000e-02	1.340123103e-01	-1.187226669e-04	1.781442691e-11
-2.830000000e-02	1.340123069e-01	-1.173624220e-04	6.798021538e-12
-2.840000000e-02	1.340123035e-01	-1.160021773e-04	6.708375142e-12
-2.850000000e-02	1.340123000e-01	-1.146419326e-04	5.706218406e-11
-2.860000000e-02	1.340122965e-01	-1.132816880e-04	1.344940333e-11
-2.870000000e-02	1.340122930e-01	-1.119214435e-04	8.277107235e-12
-2.880000000e-02	1.340122894e-01	-1.105611991e-04	7.416697741e-12
-2.890000000e-02	1.340122858e-01	-1.092009549e-04	5.147885088e-12
-2.900000000e-02	1.340122821e-01	-1.078407107e-04	1.244152157e-11
-2.910000000e-02	1.340122784e-01	-1.064804667e-04	7.094138382e-11
-2.920000000e-02	1.340122747e-01	-1.051202227e-04	7.034818034e-12
-2.930000000e-02	1.340122709e-01	-1.037599789e-04	1.458279423e-11
-2.940000000e-02	1.340122671e-01	-1.023997352e-04	9.609298021e-12
-2.950000000e-02	1.340122632e-01	-1.010394916e-04	1.685010073e-11
-2.960000000e-02	1.340122593e-01	-9.967924812e-05	8.685428269e-12
-2.970000000e-02	1.340122554e-01	-9.831900477e-05	9.791673859e-12
-2.980000000e-02	1.340122514e-01	-9.695876156e-05	2.005367498e-11
-2.990000000e-02	1.340122473e-01	-9.559851846e-05	1.664568144e-11
-3.000000000e-02	1.340122433e-01	-9.423827550e-05	1.445563425e-11
