# Im(epsi1)     Re(omega/c)      Im(omega/c)      Eq(det).Opt det CON kz, R=0.5 \mum, mu_c=0.3, Re(epsi1)=3.90solve_det_conkz_vs_kz.py
0.000000000e+00	1.340056607e-01	-4.812515245e-04	1.570850163e-11
-1.000000000e-04	1.340056683e-01	-4.798907066e-04	3.976807428e-11
-2.000000000e-04	1.340056759e-01	-4.785298882e-04	1.970208370e-11
-3.000000000e-04	1.340056835e-01	-4.771690694e-04	1.783716130e-11
-4.000000000e-04	1.340056910e-01	-4.758082501e-04	6.647101145e-12
-5.000000000e-04	1.340056984e-01	-4.744474303e-04	1.005575017e-11
-6.000000000e-04	1.340057059e-01	-4.730866101e-04	1.170929422e-11
-7.000000000e-04	1.340057133e-01	-4.717257895e-04	7.667897504e-12
-8.000000000e-04	1.340057206e-01	-4.703649684e-04	1.679124040e-11
-9.000000000e-04	1.340057279e-01	-4.690041468e-04	1.794777584e-11
-1.000000000e-03	1.340057352e-01	-4.676433248e-04	2.552730200e-11
-1.100000000e-03	1.340057424e-01	-4.662825024e-04	2.927747330e-11
-1.200000000e-03	1.340057496e-01	-4.649216795e-04	5.191914634e-12
-1.300000000e-03	1.340057567e-01	-4.635608562e-04	1.083639738e-11
-1.400000000e-03	1.340057638e-01	-4.622000325e-04	3.184902141e-11
-1.500000000e-03	1.340057709e-01	-4.608392083e-04	1.072812607e-11
-1.600000000e-03	1.340057779e-01	-4.594783837e-04	2.884481168e-11
-1.700000000e-03	1.340057849e-01	-4.581175587e-04	1.227814108e-11
-1.800000000e-03	1.340057918e-01	-4.567567332e-04	1.667950336e-11
-1.900000000e-03	1.340057987e-01	-4.553959074e-04	1.666551894e-11
-2.000000000e-03	1.340058055e-01	-4.540350811e-04	9.541997388e-12
-2.100000000e-03	1.340058123e-01	-4.526742543e-04	1.046908291e-11
-2.200000000e-03	1.340058191e-01	-4.513134272e-04	1.559751959e-11
-2.300000000e-03	1.340058258e-01	-4.499525997e-04	6.342778062e-12
-2.400000000e-03	1.340058325e-01	-4.485917717e-04	2.415748111e-11
-2.500000000e-03	1.340058392e-01	-4.472309433e-04	2.031903303e-11
-2.600000000e-03	1.340058458e-01	-4.458701145e-04	1.934475384e-11
-2.700000000e-03	1.340058523e-01	-4.445092853e-04	9.740690850e-12
-2.800000000e-03	1.340058588e-01	-4.431484557e-04	1.586688901e-11
-2.900000000e-03	1.340058653e-01	-4.417876257e-04	7.958942736e-12
-3.000000000e-03	1.340058717e-01	-4.404267953e-04	1.058372074e-11
-3.100000000e-03	1.340058781e-01	-4.390659645e-04	1.314508283e-11
-3.200000000e-03	1.340058845e-01	-4.377051333e-04	3.254212044e-11
-3.300000000e-03	1.340058908e-01	-4.363443017e-04	7.634460782e-12
-3.400000000e-03	1.340058971e-01	-4.349834698e-04	7.544776197e-11
-3.500000000e-03	1.340059033e-01	-4.336226374e-04	1.621800057e-11
-3.600000000e-03	1.340059095e-01	-4.322618046e-04	9.309001557e-12
-3.700000000e-03	1.340059156e-01	-4.309009715e-04	1.645889562e-11
-3.800000000e-03	1.340059217e-01	-4.295401379e-04	1.000173194e-11
-3.900000000e-03	1.340059278e-01	-4.281793040e-04	1.034884648e-11
-4.000000000e-03	1.340059338e-01	-4.268184697e-04	1.156051296e-11
-4.100000000e-03	1.340059398e-01	-4.254576350e-04	7.461583882e-12
-4.200000000e-03	1.340059457e-01	-4.240968000e-04	1.255075561e-11
-4.300000000e-03	1.340059516e-01	-4.227359646e-04	2.215746329e-11
-4.400000000e-03	1.340059575e-01	-4.213751288e-04	7.122157122e-12
-4.500000000e-03	1.340059633e-01	-4.200142926e-04	9.928161501e-12
-4.600000000e-03	1.340059691e-01	-4.186534561e-04	3.006490557e-11
-4.700000000e-03	1.340059748e-01	-4.172926192e-04	1.452976783e-11
-4.800000000e-03	1.340059805e-01	-4.159317819e-04	1.326723149e-11
-4.900000000e-03	1.340059862e-01	-4.145709443e-04	1.545252082e-11
-5.000000000e-03	1.340059918e-01	-4.132101063e-04	1.553135858e-11
-5.100000000e-03	1.340059973e-01	-4.118492680e-04	1.667532742e-11
-5.200000000e-03	1.340060029e-01	-4.104884293e-04	1.950382999e-11
-5.300000000e-03	1.340060084e-01	-4.091275902e-04	6.904524325e-11
-5.400000000e-03	1.340060138e-01	-4.077667508e-04	8.753400094e-12
-5.500000000e-03	1.340060192e-01	-4.064059111e-04	1.116018215e-11
-5.600000000e-03	1.340060246e-01	-4.050450710e-04	1.912206785e-11
-5.700000000e-03	1.340060299e-01	-4.036842306e-04	2.377519186e-11
-5.800000000e-03	1.340060352e-01	-4.023233898e-04	9.119547096e-12
-5.900000000e-03	1.340060404e-01	-4.009625486e-04	9.433310232e-12
-6.000000000e-03	1.340060456e-01	-3.996017072e-04	1.204211398e-11
-6.100000000e-03	1.340060507e-01	-3.982408654e-04	8.251144854e-12
-6.200000000e-03	1.340060559e-01	-3.968800233e-04	8.698489211e-11
-6.300000000e-03	1.340060609e-01	-3.955191808e-04	8.171639055e-12
-6.400000000e-03	1.340060660e-01	-3.941583380e-04	2.359328079e-11
-6.500000000e-03	1.340060709e-01	-3.927974949e-04	1.631084252e-11
-6.600000000e-03	1.340060759e-01	-3.914366515e-04	9.630675808e-12
-6.700000000e-03	1.340060808e-01	-3.900758077e-04	1.399319103e-11
-6.800000000e-03	1.340060857e-01	-3.887149636e-04	8.034527049e-12
-6.900000000e-03	1.340060905e-01	-3.873541192e-04	1.088196620e-11
-7.000000000e-03	1.340060953e-01	-3.859932745e-04	8.495182408e-12
-7.100000000e-03	1.340061000e-01	-3.846324294e-04	8.679142508e-12
-7.200000000e-03	1.340061047e-01	-3.832715841e-04	1.513982864e-11
-7.300000000e-03	1.340061094e-01	-3.819107384e-04	3.668510488e-11
-7.400000000e-03	1.340061140e-01	-3.805498924e-04	1.422495653e-11
-7.500000000e-03	1.340061186e-01	-3.791890461e-04	7.910477582e-12
-7.600000000e-03	1.340061231e-01	-3.778281996e-04	6.746558777e-11
-7.700000000e-03	1.340061276e-01	-3.764673527e-04	2.851897731e-11
-7.800000000e-03	1.340061320e-01	-3.751065055e-04	1.013754580e-11
-7.900000000e-03	1.340061365e-01	-3.737456580e-04	1.893851215e-11
-8.000000000e-03	1.340061408e-01	-3.723848102e-04	2.376487078e-11
-8.100000000e-03	1.340061451e-01	-3.710239621e-04	1.681515530e-11
-8.200000000e-03	1.340061494e-01	-3.696631137e-04	8.300676482e-12
-8.300000000e-03	1.340061537e-01	-3.683022651e-04	1.818726059e-11
-8.400000000e-03	1.340061579e-01	-3.669414161e-04	1.161041669e-11
-8.500000000e-03	1.340061620e-01	-3.655805669e-04	8.497356947e-12
-8.600000000e-03	1.340061662e-01	-3.642197174e-04	2.666367849e-11
-8.700000000e-03	1.340061702e-01	-3.628588676e-04	3.556990211e-11
-8.800000000e-03	1.340061743e-01	-3.614980175e-04	1.105936040e-11
-8.900000000e-03	1.340061783e-01	-3.601371671e-04	1.327434551e-11
-9.000000000e-03	1.340061822e-01	-3.587763165e-04	1.393110345e-11
-9.100000000e-03	1.340061861e-01	-3.574154656e-04	9.088955134e-12
-9.200000000e-03	1.340061900e-01	-3.560546144e-04	2.167331034e-11
-9.300000000e-03	1.340061939e-01	-3.546937630e-04	2.578469814e-11
-9.400000000e-03	1.340061976e-01	-3.533329112e-04	9.194116700e-12
-9.500000000e-03	1.340062014e-01	-3.519720593e-04	1.775113199e-11
-9.600000000e-03	1.340062051e-01	-3.506112070e-04	7.017608668e-12
-9.700000000e-03	1.340062088e-01	-3.492503545e-04	8.630202405e-12
-9.800000000e-03	1.340062124e-01	-3.478895017e-04	7.733971765e-12
-9.900000000e-03	1.340062160e-01	-3.465286487e-04	1.534526824e-11
-1.000000000e-02	1.340062195e-01	-3.451677954e-04	9.857040544e-12
-1.010000000e-02	1.340062230e-01	-3.438069419e-04	8.493570965e-12
-1.020000000e-02	1.340062265e-01	-3.424460881e-04	1.731944486e-10
-1.030000000e-02	1.340062299e-01	-3.410852341e-04	1.475715685e-11
-1.040000000e-02	1.340062333e-01	-3.397243798e-04	3.749605472e-10
-1.050000000e-02	1.340062366e-01	-3.383635253e-04	6.109246942e-11
-1.060000000e-02	1.340062399e-01	-3.370026705e-04	1.007915997e-11
-1.070000000e-02	1.340062431e-01	-3.356418155e-04	1.068317461e-11
-1.080000000e-02	1.340062464e-01	-3.342809603e-04	2.145037637e-11
-1.090000000e-02	1.340062495e-01	-3.329201048e-04	1.656962890e-11
-1.100000000e-02	1.340062527e-01	-3.315592491e-04	1.297225183e-11
-1.110000000e-02	1.340062557e-01	-3.301983932e-04	1.289830665e-11
-1.120000000e-02	1.340062588e-01	-3.288375370e-04	2.490911487e-11
-1.130000000e-02	1.340062618e-01	-3.274766806e-04	2.081847366e-11
-1.140000000e-02	1.340062648e-01	-3.261158240e-04	1.811706427e-11
-1.150000000e-02	1.340062677e-01	-3.247549671e-04	2.192191534e-11
-1.160000000e-02	1.340062706e-01	-3.233941100e-04	3.234042020e-11
-1.170000000e-02	1.340062734e-01	-3.220332528e-04	2.603363455e-11
-1.180000000e-02	1.340062762e-01	-3.206723952e-04	6.033104443e-11
-1.190000000e-02	1.340062790e-01	-3.193115375e-04	8.045768115e-11
-1.200000000e-02	1.340062817e-01	-3.179506796e-04	1.131806009e-11
-1.210000000e-02	1.340062843e-01	-3.165898214e-04	2.521854636e-11
-1.220000000e-02	1.340062870e-01	-3.152289631e-04	1.647276424e-11
-1.230000000e-02	1.340062896e-01	-3.138681046e-04	5.143742919e-11
-1.240000000e-02	1.340062921e-01	-3.125072458e-04	1.036055325e-11
-1.250000000e-02	1.340062946e-01	-3.111463868e-04	8.010231487e-12
-1.260000000e-02	1.340062971e-01	-3.097855276e-04	1.855719127e-11
-1.270000000e-02	1.340062995e-01	-3.084246683e-04	8.512838771e-12
-1.280000000e-02	1.340063019e-01	-3.070638087e-04	2.140636838e-11
-1.290000000e-02	1.340063042e-01	-3.057029490e-04	7.721735731e-12
-1.300000000e-02	1.340063065e-01	-3.043420890e-04	3.162687789e-11
-1.310000000e-02	1.340063088e-01	-3.029812289e-04	1.468306855e-11
-1.320000000e-02	1.340063110e-01	-3.016203685e-04	8.959538354e-12
-1.330000000e-02	1.340063132e-01	-3.002595080e-04	3.330752439e-11
-1.340000000e-02	1.340063153e-01	-2.988986473e-04	9.496370250e-12
-1.350000000e-02	1.340063174e-01	-2.975377864e-04	7.519924577e-12
-1.360000000e-02	1.340063195e-01	-2.961769254e-04	1.633361306e-11
-1.370000000e-02	1.340063215e-01	-2.948160641e-04	1.327473615e-11
-1.380000000e-02	1.340063235e-01	-2.934552027e-04	1.698105554e-11
-1.390000000e-02	1.340063254e-01	-2.920943412e-04	1.985279208e-11
-1.400000000e-02	1.340063273e-01	-2.907334794e-04	8.607504079e-11
-1.410000000e-02	1.340063291e-01	-2.893726175e-04	6.354804931e-12
-1.420000000e-02	1.340063309e-01	-2.880117554e-04	4.045825715e-11
-1.430000000e-02	1.340063327e-01	-2.866508931e-04	9.950889419e-12
-1.440000000e-02	1.340063344e-01	-2.852900307e-04	5.575333863e-12
-1.450000000e-02	1.340063361e-01	-2.839291681e-04	1.728906207e-11
-1.460000000e-02	1.340063378e-01	-2.825683054e-04	2.431429590e-11
-1.470000000e-02	1.340063394e-01	-2.812074425e-04	9.473244892e-12
-1.480000000e-02	1.340063409e-01	-2.798465794e-04	1.008755038e-11
-1.490000000e-02	1.340063424e-01	-2.784857162e-04	1.936740309e-11
-1.500000000e-02	1.340063439e-01	-2.771248529e-04	2.696621942e-11
-1.510000000e-02	1.340063453e-01	-2.757639894e-04	8.426908413e-12
-1.520000000e-02	1.340063467e-01	-2.744031257e-04	5.346415633e-11
-1.530000000e-02	1.340063481e-01	-2.730422619e-04	9.493832248e-12
-1.540000000e-02	1.340063494e-01	-2.716813980e-04	1.353192889e-11
-1.550000000e-02	1.340063507e-01	-2.703205339e-04	1.568537475e-11
-1.560000000e-02	1.340063519e-01	-2.689596697e-04	9.689744375e-12
-1.570000000e-02	1.340063531e-01	-2.675988054e-04	2.259798299e-11
-1.580000000e-02	1.340063542e-01	-2.662379409e-04	1.815358899e-11
-1.590000000e-02	1.340063553e-01	-2.648770763e-04	1.527949878e-11
-1.600000000e-02	1.340063564e-01	-2.635162115e-04	1.627993572e-11
-1.610000000e-02	1.340063574e-01	-2.621553466e-04	1.695786785e-11
-1.620000000e-02	1.340063584e-01	-2.607944817e-04	2.852140429e-12
-1.630000000e-02	1.340063593e-01	-2.594336165e-04	1.238546411e-11
-1.640000000e-02	1.340063602e-01	-2.580727513e-04	5.209922023e-11
-1.650000000e-02	1.340063611e-01	-2.567118859e-04	1.911030543e-11
-1.660000000e-02	1.340063619e-01	-2.553510205e-04	6.397330476e-12
-1.670000000e-02	1.340063626e-01	-2.539901549e-04	6.921746764e-12
-1.680000000e-02	1.340063634e-01	-2.526292892e-04	1.496927236e-11
-1.690000000e-02	1.340063641e-01	-2.512684233e-04	1.439486994e-11
-1.700000000e-02	1.340063647e-01	-2.499075574e-04	2.164925722e-11
-1.710000000e-02	1.340063653e-01	-2.485466914e-04	1.566907242e-11
-1.720000000e-02	1.340063659e-01	-2.471858253e-04	1.519803753e-11
-1.730000000e-02	1.340063664e-01	-2.458249590e-04	1.617751956e-11
-1.740000000e-02	1.340063669e-01	-2.444640927e-04	1.625452746e-11
-1.750000000e-02	1.340063673e-01	-2.431032263e-04	3.503292521e-11
-1.760000000e-02	1.340063677e-01	-2.417423597e-04	7.619428583e-12
-1.770000000e-02	1.340063681e-01	-2.403814931e-04	7.248541798e-12
-1.780000000e-02	1.340063684e-01	-2.390206264e-04	1.578255016e-11
-1.790000000e-02	1.340063687e-01	-2.376597596e-04	1.444496978e-11
-1.800000000e-02	1.340063689e-01	-2.362988927e-04	1.294579556e-11
-1.810000000e-02	1.340063691e-01	-2.349380257e-04	1.383181949e-11
-1.820000000e-02	1.340063693e-01	-2.335771586e-04	6.275461278e-12
-1.830000000e-02	1.340063694e-01	-2.322162915e-04	2.613393798e-11
-1.840000000e-02	1.340063694e-01	-2.308554242e-04	7.428240723e-11
-1.850000000e-02	1.340063695e-01	-2.294945570e-04	8.036666114e-12
-1.860000000e-02	1.340063695e-01	-2.281336896e-04	1.510294258e-11
-1.870000000e-02	1.340063694e-01	-2.267728221e-04	1.318167919e-11
-1.880000000e-02	1.340063693e-01	-2.254119546e-04	1.094445576e-11
-1.890000000e-02	1.340063692e-01	-2.240510870e-04	2.469341589e-11
-1.900000000e-02	1.340063690e-01	-2.226902194e-04	9.779182330e-12
-1.910000000e-02	1.340063688e-01	-2.213293517e-04	2.047552275e-11
-1.920000000e-02	1.340063685e-01	-2.199684839e-04	1.761105292e-11
-1.930000000e-02	1.340063682e-01	-2.186076160e-04	1.706974923e-11
-1.940000000e-02	1.340063679e-01	-2.172467481e-04	1.251696123e-11
-1.950000000e-02	1.340063675e-01	-2.158858802e-04	8.491787328e-12
-1.960000000e-02	1.340063671e-01	-2.145250121e-04	1.193704864e-11
-1.970000000e-02	1.340063666e-01	-2.131641441e-04	1.687158876e-11
-1.980000000e-02	1.340063661e-01	-2.118032760e-04	1.140706316e-11
-1.990000000e-02	1.340063655e-01	-2.104424078e-04	2.654661895e-11
-2.000000000e-02	1.340063649e-01	-2.090815396e-04	1.129628462e-11
-2.010000000e-02	1.340063643e-01	-2.077206713e-04	8.240697828e-12
-2.020000000e-02	1.340063636e-01	-2.063598030e-04	5.026875605e-11
-2.030000000e-02	1.340063629e-01	-2.049989347e-04	1.047313074e-11
-2.040000000e-02	1.340063621e-01	-2.036380663e-04	1.072304543e-11
-2.050000000e-02	1.340063614e-01	-2.022771979e-04	2.996530306e-11
-2.060000000e-02	1.340063605e-01	-2.009163295e-04	2.329495156e-11
-2.070000000e-02	1.340063596e-01	-1.995554610e-04	9.527983088e-12
-2.080000000e-02	1.340063587e-01	-1.981945925e-04	1.308098092e-11
-2.090000000e-02	1.340063577e-01	-1.968337240e-04	1.718200064e-11
-2.100000000e-02	1.340063567e-01	-1.954728554e-04	7.790636178e-12
-2.110000000e-02	1.340063557e-01	-1.941119868e-04	8.707157368e-12
-2.120000000e-02	1.340063546e-01	-1.927511182e-04	7.653396411e-12
-2.130000000e-02	1.340063535e-01	-1.913902496e-04	6.475209021e-11
-2.140000000e-02	1.340063523e-01	-1.900293810e-04	2.107453819e-11
-2.150000000e-02	1.340063511e-01	-1.886685123e-04	1.332995557e-11
-2.160000000e-02	1.340063498e-01	-1.873076436e-04	2.737024764e-11
-2.170000000e-02	1.340063485e-01	-1.859467750e-04	4.017358214e-11
-2.180000000e-02	1.340063472e-01	-1.845859063e-04	1.798559767e-11
-2.190000000e-02	1.340063458e-01	-1.832250376e-04	9.427439359e-12
-2.200000000e-02	1.340063444e-01	-1.818641689e-04	3.659876503e-11
-2.210000000e-02	1.340063429e-01	-1.805033002e-04	1.134052069e-11
-2.220000000e-02	1.340063414e-01	-1.791424315e-04	2.829209489e-11
-2.230000000e-02	1.340063399e-01	-1.777815628e-04	8.478404985e-12
-2.240000000e-02	1.340063383e-01	-1.764206941e-04	2.071827010e-11
-2.250000000e-02	1.340063367e-01	-1.750598255e-04	1.840586917e-11
-2.260000000e-02	1.340063350e-01	-1.736989568e-04	1.222755659e-11
-2.270000000e-02	1.340063333e-01	-1.723380881e-04	1.231198617e-11
-2.280000000e-02	1.340063316e-01	-1.709772195e-04	1.755001677e-11
-2.290000000e-02	1.340063298e-01	-1.696163509e-04	5.607428282e-11
-2.300000000e-02	1.340063279e-01	-1.682554822e-04	1.816402866e-11
-2.310000000e-02	1.340063261e-01	-1.668946136e-04	8.031579149e-11
-2.320000000e-02	1.340063242e-01	-1.655337450e-04	7.227848818e-12
-2.330000000e-02	1.340063222e-01	-1.641728765e-04	1.869006685e-11
-2.340000000e-02	1.340063202e-01	-1.628120079e-04	2.711202540e-11
-2.350000000e-02	1.340063182e-01	-1.614511394e-04	7.639406975e-12
-2.360000000e-02	1.340063161e-01	-1.600902710e-04	1.454178398e-11
-2.370000000e-02	1.340063140e-01	-1.587294025e-04	8.242494951e-12
-2.380000000e-02	1.340063118e-01	-1.573685341e-04	1.177068377e-10
-2.390000000e-02	1.340063096e-01	-1.560076657e-04	6.001525179e-12
-2.400000000e-02	1.340063073e-01	-1.546467974e-04	8.132332124e-12
-2.410000000e-02	1.340063051e-01	-1.532859291e-04	2.138857427e-11
-2.420000000e-02	1.340063027e-01	-1.519250608e-04	1.718905159e-11
-2.430000000e-02	1.340063004e-01	-1.505641926e-04	1.055642872e-11
-2.440000000e-02	1.340062979e-01	-1.492033245e-04	7.288018702e-12
-2.450000000e-02	1.340062955e-01	-1.478424563e-04	1.476023022e-11
-2.460000000e-02	1.340062930e-01	-1.464815883e-04	1.286174439e-11
-2.470000000e-02	1.340062905e-01	-1.451207202e-04	1.896922540e-11
-2.480000000e-02	1.340062879e-01	-1.437598523e-04	1.018916169e-11
-2.490000000e-02	1.340062853e-01	-1.423989844e-04	5.991273836e-12
-2.500000000e-02	1.340062826e-01	-1.410381165e-04	3.570099496e-11
-2.510000000e-02	1.340062799e-01	-1.396772487e-04	1.235632779e-11
-2.520000000e-02	1.340062772e-01	-1.383163810e-04	1.801707615e-11
-2.530000000e-02	1.340062744e-01	-1.369555134e-04	1.691279231e-11
-2.540000000e-02	1.340062716e-01	-1.355946458e-04	7.303324232e-12
-2.550000000e-02	1.340062687e-01	-1.342337782e-04	1.230333648e-11
-2.560000000e-02	1.340062658e-01	-1.328729108e-04	1.018385206e-11
-2.570000000e-02	1.340062628e-01	-1.315120434e-04	6.305788056e-12
-2.580000000e-02	1.340062598e-01	-1.301511761e-04	7.906342854e-12
-2.590000000e-02	1.340062568e-01	-1.287903089e-04	6.776246268e-12
-2.600000000e-02	1.340062537e-01	-1.274294417e-04	1.146589512e-11
-2.610000000e-02	1.340062506e-01	-1.260685746e-04	1.428712237e-11
-2.620000000e-02	1.340062475e-01	-1.247077076e-04	5.073527520e-11
-2.630000000e-02	1.340062443e-01	-1.233468408e-04	1.077883609e-11
-2.640000000e-02	1.340062410e-01	-1.219859740e-04	1.419354482e-11
-2.650000000e-02	1.340062378e-01	-1.206251072e-04	1.752201228e-11
-2.660000000e-02	1.340062344e-01	-1.192642406e-04	1.777264377e-11
-2.670000000e-02	1.340062311e-01	-1.179033741e-04	1.536147192e-11
-2.680000000e-02	1.340062277e-01	-1.165425076e-04	7.551069177e-12
-2.690000000e-02	1.340062242e-01	-1.151816413e-04	1.680543497e-11
-2.700000000e-02	1.340062207e-01	-1.138207750e-04	3.745759887e-11
-2.710000000e-02	1.340062172e-01	-1.124599089e-04	8.722024605e-12
-2.720000000e-02	1.340062136e-01	-1.110990429e-04	1.755567239e-11
-2.730000000e-02	1.340062100e-01	-1.097381769e-04	7.161747036e-12
-2.740000000e-02	1.340062064e-01	-1.083773111e-04	3.946236473e-11
-2.750000000e-02	1.340062027e-01	-1.070164454e-04	1.195347549e-11
-2.760000000e-02	1.340061990e-01	-1.056555798e-04	4.419358026e-11
-2.770000000e-02	1.340061952e-01	-1.042947143e-04	8.669336322e-12
-2.780000000e-02	1.340061914e-01	-1.029338490e-04	1.293167551e-11
-2.790000000e-02	1.340061875e-01	-1.015729837e-04	1.522046042e-11
-2.800000000e-02	1.340061836e-01	-1.002121186e-04	2.012899868e-11
-2.810000000e-02	1.340061797e-01	-9.885125358e-05	8.730492542e-12
-2.820000000e-02	1.340061757e-01	-9.749038871e-05	1.496110614e-11
-2.830000000e-02	1.340061717e-01	-9.612952395e-05	1.212761618e-11
-2.840000000e-02	1.340061676e-01	-9.476865934e-05	6.344520858e-12
-2.850000000e-02	1.340061635e-01	-9.340779485e-05	2.326371070e-11
-2.860000000e-02	1.340061593e-01	-9.204693050e-05	2.300590862e-11
-2.870000000e-02	1.340061551e-01	-9.068606628e-05	1.918900811e-11
-2.880000000e-02	1.340061509e-01	-8.932520219e-05	2.061050532e-11
-2.890000000e-02	1.340061466e-01	-8.796433825e-05	1.022961838e-11
-2.900000000e-02	1.340061423e-01	-8.660347445e-05	1.002412548e-11
-2.910000000e-02	1.340061380e-01	-8.524261079e-05	8.622723485e-12
-2.920000000e-02	1.340061336e-01	-8.388174728e-05	8.029082034e-12
-2.930000000e-02	1.340061291e-01	-8.252088391e-05	4.023781336e-11
-2.940000000e-02	1.340061247e-01	-8.116002070e-05	9.715998294e-12
-2.950000000e-02	1.340061201e-01	-7.979915764e-05	1.218809612e-11
-2.960000000e-02	1.340061156e-01	-7.843829474e-05	1.061839401e-11
-2.970000000e-02	1.340061110e-01	-7.707743199e-05	2.553147640e-11
-2.980000000e-02	1.340061063e-01	-7.571656941e-05	7.720671390e-12
-2.990000000e-02	1.340061017e-01	-7.435570698e-05	1.885670659e-11
-3.000000000e-02	1.340060969e-01	-7.299484471e-05	9.620365102e-12
