# Im(epsi1)     Re(omega/c)      Im(omega/c)      Eq(det).Opt det CON kz, R=0.5 \mum, mu_c=0.3, Re(epsi1)=3.90solve_det_conkz_vs_kz.py
0.000000000e+00	1.340054858e-01	-4.808272238e-04	3.033800479e-11
-1.000000000e-04	1.340054935e-01	-4.794663935e-04	5.656455400e-12
-2.000000000e-04	1.340055010e-01	-4.781055628e-04	1.903515475e-11
-3.000000000e-04	1.340055086e-01	-4.767447316e-04	9.649947151e-12
-4.000000000e-04	1.340055161e-01	-4.753839000e-04	1.089218220e-11
-5.000000000e-04	1.340055235e-01	-4.740230679e-04	8.398503099e-12
-6.000000000e-04	1.340055310e-01	-4.726622353e-04	1.393467270e-11
-7.000000000e-04	1.340055383e-01	-4.713014023e-04	1.036578325e-10
-8.000000000e-04	1.340055457e-01	-4.699405689e-04	8.909646443e-12
-9.000000000e-04	1.340055530e-01	-4.685797350e-04	3.095740296e-11
-1.000000000e-03	1.340055602e-01	-4.672189007e-04	4.562276977e-11
-1.100000000e-03	1.340055674e-01	-4.658580659e-04	7.880676688e-12
-1.200000000e-03	1.340055746e-01	-4.644972308e-04	4.761487338e-11
-1.300000000e-03	1.340055817e-01	-4.631363951e-04	8.748024409e-12
-1.400000000e-03	1.340055888e-01	-4.617755590e-04	3.938842242e-11
-1.500000000e-03	1.340055958e-01	-4.604147225e-04	1.540528112e-11
-1.600000000e-03	1.340056028e-01	-4.590538856e-04	3.517696229e-11
-1.700000000e-03	1.340056098e-01	-4.576930483e-04	1.017035600e-11
-1.800000000e-03	1.340056167e-01	-4.563322105e-04	3.682993135e-11
-1.900000000e-03	1.340056236e-01	-4.549713723e-04	1.803517884e-11
-2.000000000e-03	1.340056304e-01	-4.536105336e-04	1.358209502e-11
-2.100000000e-03	1.340056372e-01	-4.522496946e-04	3.084759825e-11
-2.200000000e-03	1.340056440e-01	-4.508888551e-04	7.974178353e-12
-2.300000000e-03	1.340056507e-01	-4.495280153e-04	1.623332588e-11
-2.400000000e-03	1.340056574e-01	-4.481671750e-04	1.442146947e-11
-2.500000000e-03	1.340056640e-01	-4.468063343e-04	1.407326095e-11
-2.600000000e-03	1.340056706e-01	-4.454454932e-04	2.515094968e-11
-2.700000000e-03	1.340056771e-01	-4.440846516e-04	1.534894793e-11
-2.800000000e-03	1.340056836e-01	-4.427238097e-04	2.420490873e-11
-2.900000000e-03	1.340056901e-01	-4.413629674e-04	1.689805588e-11
-3.000000000e-03	1.340056965e-01	-4.400021247e-04	2.102121454e-11
-3.100000000e-03	1.340057029e-01	-4.386412816e-04	1.186576143e-11
-3.200000000e-03	1.340057092e-01	-4.372804380e-04	1.859065378e-11
-3.300000000e-03	1.340057155e-01	-4.359195941e-04	1.246216507e-11
-3.400000000e-03	1.340057218e-01	-4.345587498e-04	1.709149045e-11
-3.500000000e-03	1.340057280e-01	-4.331979051e-04	1.598467170e-11
-3.600000000e-03	1.340057342e-01	-4.318370601e-04	1.110937307e-11
-3.700000000e-03	1.340057403e-01	-4.304762146e-04	1.094938276e-11
-3.800000000e-03	1.340057464e-01	-4.291153687e-04	1.120390153e-11
-3.900000000e-03	1.340057525e-01	-4.277545225e-04	5.178989529e-11
-4.000000000e-03	1.340057585e-01	-4.263936759e-04	3.616210258e-11
-4.100000000e-03	1.340057644e-01	-4.250328289e-04	1.446573345e-11
-4.200000000e-03	1.340057704e-01	-4.236719816e-04	2.274034803e-11
-4.300000000e-03	1.340057762e-01	-4.223111338e-04	2.323957638e-11
-4.400000000e-03	1.340057821e-01	-4.209502857e-04	1.528284870e-11
-4.500000000e-03	1.340057879e-01	-4.195894372e-04	8.793627642e-12
-4.600000000e-03	1.340057937e-01	-4.182285884e-04	8.989163971e-11
-4.700000000e-03	1.340057994e-01	-4.168677392e-04	7.448773521e-12
-4.800000000e-03	1.340058050e-01	-4.155068896e-04	8.147098813e-12
-4.900000000e-03	1.340058107e-01	-4.141460397e-04	1.093026207e-11
-5.000000000e-03	1.340058163e-01	-4.127851894e-04	7.686101243e-12
-5.100000000e-03	1.340058218e-01	-4.114243387e-04	1.842032714e-11
-5.200000000e-03	1.340058274e-01	-4.100634877e-04	1.153621399e-11
-5.300000000e-03	1.340058328e-01	-4.087026364e-04	1.808225588e-11
-5.400000000e-03	1.340058383e-01	-4.073417847e-04	2.049020479e-11
-5.500000000e-03	1.340058436e-01	-4.059809326e-04	2.319025234e-11
-5.600000000e-03	1.340058490e-01	-4.046200803e-04	1.572574227e-11
-5.700000000e-03	1.340058543e-01	-4.032592275e-04	7.663057878e-12
-5.800000000e-03	1.340058596e-01	-4.018983744e-04	1.217915330e-11
-5.900000000e-03	1.340058648e-01	-4.005375210e-04	6.501808986e-12
-6.000000000e-03	1.340058700e-01	-3.991766672e-04	2.832792632e-11
-6.100000000e-03	1.340058751e-01	-3.978158132e-04	1.375051707e-11
-6.200000000e-03	1.340058802e-01	-3.964549587e-04	3.618085596e-11
-6.300000000e-03	1.340058853e-01	-3.950941040e-04	9.106179586e-12
-6.400000000e-03	1.340058903e-01	-3.937332489e-04	2.218314769e-11
-6.500000000e-03	1.340058953e-01	-3.923723935e-04	1.061903539e-11
-6.600000000e-03	1.340059002e-01	-3.910115377e-04	1.023365466e-11
-6.700000000e-03	1.340059051e-01	-3.896506817e-04	1.137117484e-11
-6.800000000e-03	1.340059099e-01	-3.882898253e-04	1.674932205e-11
-6.900000000e-03	1.340059148e-01	-3.869289686e-04	1.369567208e-11
-7.000000000e-03	1.340059195e-01	-3.855681115e-04	5.018000422e-12
-7.100000000e-03	1.340059242e-01	-3.842072542e-04	6.128169083e-12
-7.200000000e-03	1.340059289e-01	-3.828463966e-04	1.481416831e-11
-7.300000000e-03	1.340059336e-01	-3.814855386e-04	1.044471084e-11
-7.400000000e-03	1.340059382e-01	-3.801246803e-04	1.906272266e-11
-7.500000000e-03	1.340059427e-01	-3.787638218e-04	1.040645627e-11
-7.600000000e-03	1.340059473e-01	-3.774029629e-04	2.314710888e-11
-7.700000000e-03	1.340059517e-01	-3.760421037e-04	7.456534693e-12
-7.800000000e-03	1.340059562e-01	-3.746812442e-04	2.157016315e-11
-7.900000000e-03	1.340059606e-01	-3.733203845e-04	2.188611661e-11
-8.000000000e-03	1.340059649e-01	-3.719595244e-04	8.985188483e-12
-8.100000000e-03	1.340059693e-01	-3.705986640e-04	6.878141160e-12
-8.200000000e-03	1.340059735e-01	-3.692378034e-04	7.849505266e-12
-8.300000000e-03	1.340059778e-01	-3.678769424e-04	8.360989161e-12
-8.400000000e-03	1.340059819e-01	-3.665160812e-04	2.063955605e-11
-8.500000000e-03	1.340059861e-01	-3.651552197e-04	7.639151461e-12
-8.600000000e-03	1.340059902e-01	-3.637943579e-04	1.413180160e-11
-8.700000000e-03	1.340059943e-01	-3.624334958e-04	2.302470309e-11
-8.800000000e-03	1.340059983e-01	-3.610726334e-04	1.299342698e-11
-8.900000000e-03	1.340060023e-01	-3.597117708e-04	9.700562301e-12
-9.000000000e-03	1.340060062e-01	-3.583509078e-04	7.939954965e-12
-9.100000000e-03	1.340060101e-01	-3.569900447e-04	7.554450833e-12
-9.200000000e-03	1.340060140e-01	-3.556291812e-04	1.196044819e-11
-9.300000000e-03	1.340060178e-01	-3.542683175e-04	3.035201576e-11
-9.400000000e-03	1.340060216e-01	-3.529074535e-04	4.470902614e-11
-9.500000000e-03	1.340060253e-01	-3.515465892e-04	1.234160191e-11
-9.600000000e-03	1.340060290e-01	-3.501857247e-04	1.090468608e-11
-9.700000000e-03	1.340060327e-01	-3.488248599e-04	2.898349930e-11
-9.800000000e-03	1.340060363e-01	-3.474639949e-04	1.149326184e-11
-9.900000000e-03	1.340060398e-01	-3.461031296e-04	1.866069847e-11
-1.000000000e-02	1.340060434e-01	-3.447422640e-04	4.836287735e-11
-1.010000000e-02	1.340060469e-01	-3.433813982e-04	7.996643714e-12
-1.020000000e-02	1.340060503e-01	-3.420205322e-04	1.130999774e-11
-1.030000000e-02	1.340060537e-01	-3.406596659e-04	2.544877411e-11
-1.040000000e-02	1.340060571e-01	-3.392987993e-04	1.715256655e-11
-1.050000000e-02	1.340060604e-01	-3.379379325e-04	1.049616431e-11
-1.060000000e-02	1.340060637e-01	-3.365770655e-04	1.824537319e-11
-1.070000000e-02	1.340060669e-01	-3.352161982e-04	6.358921134e-12
-1.080000000e-02	1.340060701e-01	-3.338553307e-04	1.294356259e-11
-1.090000000e-02	1.340060733e-01	-3.324944630e-04	5.719101075e-11
-1.100000000e-02	1.340060764e-01	-3.311335950e-04	1.208531072e-11
-1.110000000e-02	1.340060795e-01	-3.297727268e-04	4.031811644e-11
-1.120000000e-02	1.340060825e-01	-3.284118583e-04	7.203217571e-12
-1.130000000e-02	1.340060855e-01	-3.270509897e-04	5.712785496e-12
-1.140000000e-02	1.340060884e-01	-3.256901208e-04	9.397902859e-12
-1.150000000e-02	1.340060913e-01	-3.243292517e-04	1.416631676e-11
-1.160000000e-02	1.340060942e-01	-3.229683823e-04	7.507712761e-12
-1.170000000e-02	1.340060970e-01	-3.216075128e-04	1.258799892e-11
-1.180000000e-02	1.340060998e-01	-3.202466430e-04	1.586481955e-11
-1.190000000e-02	1.340061026e-01	-3.188857730e-04	1.881961223e-11
-1.200000000e-02	1.340061053e-01	-3.175249028e-04	8.368744932e-12
-1.210000000e-02	1.340061079e-01	-3.161640324e-04	1.608614524e-11
-1.220000000e-02	1.340061105e-01	-3.148031618e-04	1.253901594e-11
-1.230000000e-02	1.340061131e-01	-3.134422910e-04	1.837842762e-11
-1.240000000e-02	1.340061157e-01	-3.120814200e-04	9.112388928e-12
-1.250000000e-02	1.340061182e-01	-3.107205488e-04	1.624420300e-11
-1.260000000e-02	1.340061206e-01	-3.093596773e-04	7.746022208e-12
-1.270000000e-02	1.340061230e-01	-3.079988057e-04	9.475566799e-12
-1.280000000e-02	1.340061254e-01	-3.066379339e-04	2.590250275e-11
-1.290000000e-02	1.340061277e-01	-3.052770619e-04	7.425692978e-12
-1.300000000e-02	1.340061300e-01	-3.039161897e-04	1.100951429e-11
-1.310000000e-02	1.340061323e-01	-3.025553173e-04	2.473107327e-11
-1.320000000e-02	1.340061345e-01	-3.011944447e-04	1.038605095e-11
-1.330000000e-02	1.340061366e-01	-2.998335719e-04	4.391486572e-11
-1.340000000e-02	1.340061388e-01	-2.984726990e-04	2.638297115e-11
-1.350000000e-02	1.340061408e-01	-2.971118259e-04	1.114880815e-11
-1.360000000e-02	1.340061429e-01	-2.957509525e-04	1.767434920e-11
-1.370000000e-02	1.340061449e-01	-2.943900791e-04	2.981781704e-11
-1.380000000e-02	1.340061468e-01	-2.930292054e-04	1.248811832e-11
-1.390000000e-02	1.340061488e-01	-2.916683316e-04	2.911401784e-11
-1.400000000e-02	1.340061506e-01	-2.903074576e-04	1.764903441e-11
-1.410000000e-02	1.340061525e-01	-2.889465834e-04	2.475133463e-11
-1.420000000e-02	1.340061543e-01	-2.875857090e-04	1.164723466e-11
-1.430000000e-02	1.340061560e-01	-2.862248346e-04	1.046665944e-10
-1.440000000e-02	1.340061577e-01	-2.848639599e-04	1.405656709e-11
-1.450000000e-02	1.340061594e-01	-2.835030851e-04	1.327920859e-11
-1.460000000e-02	1.340061610e-01	-2.821422101e-04	1.934653263e-11
-1.470000000e-02	1.340061626e-01	-2.807813349e-04	9.813335132e-12
-1.480000000e-02	1.340061641e-01	-2.794204596e-04	7.664890189e-12
-1.490000000e-02	1.340061656e-01	-2.780595842e-04	1.083490222e-11
-1.500000000e-02	1.340061671e-01	-2.766987086e-04	1.273128584e-11
-1.510000000e-02	1.340061685e-01	-2.753378329e-04	5.979853083e-12
-1.520000000e-02	1.340061699e-01	-2.739769570e-04	8.030373905e-12
-1.530000000e-02	1.340061712e-01	-2.726160809e-04	3.718039093e-11
-1.540000000e-02	1.340061725e-01	-2.712552048e-04	2.610543039e-11
-1.550000000e-02	1.340061738e-01	-2.698943285e-04	1.624760804e-11
-1.560000000e-02	1.340061750e-01	-2.685334520e-04	1.012512403e-11
-1.570000000e-02	1.340061762e-01	-2.671725754e-04	2.199229631e-11
-1.580000000e-02	1.340061773e-01	-2.658116987e-04	1.584809263e-11
-1.590000000e-02	1.340061784e-01	-2.644508219e-04	1.634289044e-11
-1.600000000e-02	1.340061794e-01	-2.630899449e-04	8.386257150e-12
-1.610000000e-02	1.340061805e-01	-2.617290678e-04	1.219445460e-11
-1.620000000e-02	1.340061814e-01	-2.603681905e-04	1.366472444e-11
-1.630000000e-02	1.340061823e-01	-2.590073132e-04	1.050193780e-11
-1.640000000e-02	1.340061832e-01	-2.576464357e-04	2.682303219e-11
-1.650000000e-02	1.340061841e-01	-2.562855581e-04	1.284041291e-11
-1.660000000e-02	1.340061849e-01	-2.549246804e-04	1.543004836e-11
-1.670000000e-02	1.340061856e-01	-2.535638026e-04	8.272446874e-12
-1.680000000e-02	1.340061863e-01	-2.522029247e-04	2.143668236e-11
-1.690000000e-02	1.340061870e-01	-2.508420466e-04	1.060105807e-11
-1.700000000e-02	1.340061877e-01	-2.494811685e-04	1.642618902e-11
-1.710000000e-02	1.340061883e-01	-2.481202902e-04	8.625979564e-12
-1.720000000e-02	1.340061888e-01	-2.467594119e-04	5.854130765e-11
-1.730000000e-02	1.340061893e-01	-2.453985334e-04	1.332362421e-11
-1.740000000e-02	1.340061898e-01	-2.440376548e-04	3.614795720e-11
-1.750000000e-02	1.340061902e-01	-2.426767762e-04	8.819825074e-12
-1.760000000e-02	1.340061906e-01	-2.413158974e-04	1.466260233e-11
-1.770000000e-02	1.340061909e-01	-2.399550186e-04	1.033472043e-11
-1.780000000e-02	1.340061912e-01	-2.385941396e-04	9.583042147e-12
-1.790000000e-02	1.340061915e-01	-2.372332606e-04	1.710429315e-11
-1.800000000e-02	1.340061917e-01	-2.358723815e-04	1.409786814e-11
-1.810000000e-02	1.340061919e-01	-2.345115023e-04	3.219490431e-11
-1.820000000e-02	1.340061921e-01	-2.331506230e-04	1.771325150e-11
-1.830000000e-02	1.340061921e-01	-2.317897437e-04	1.493378806e-11
-1.840000000e-02	1.340061922e-01	-2.304288642e-04	2.093790328e-11
-1.850000000e-02	1.340061922e-01	-2.290679847e-04	1.214287004e-11
-1.860000000e-02	1.340061922e-01	-2.277071051e-04	6.910495778e-11
-1.870000000e-02	1.340061921e-01	-2.263462254e-04	7.314411491e-12
-1.880000000e-02	1.340061920e-01	-2.249853457e-04	2.093755370e-11
-1.890000000e-02	1.340061919e-01	-2.236244659e-04	3.250648680e-11
-1.900000000e-02	1.340061917e-01	-2.222635860e-04	2.289100129e-11
-1.910000000e-02	1.340061914e-01	-2.209027061e-04	2.001217481e-11
-1.920000000e-02	1.340061912e-01	-2.195418261e-04	6.842922174e-12
-1.930000000e-02	1.340061909e-01	-2.181809460e-04	8.904377305e-12
-1.940000000e-02	1.340061905e-01	-2.168200659e-04	1.463219429e-11
-1.950000000e-02	1.340061901e-01	-2.154591858e-04	4.368363410e-11
-1.960000000e-02	1.340061897e-01	-2.140983055e-04	1.008792946e-11
-1.970000000e-02	1.340061892e-01	-2.127374252e-04	1.092877537e-11
-1.980000000e-02	1.340061887e-01	-2.113765449e-04	1.512335645e-11
-1.990000000e-02	1.340061881e-01	-2.100156645e-04	8.028678675e-12
-2.000000000e-02	1.340061875e-01	-2.086547841e-04	7.373421310e-12
-2.010000000e-02	1.340061868e-01	-2.072939037e-04	9.403251002e-12
-2.020000000e-02	1.340061861e-01	-2.059330232e-04	6.863668802e-12
-2.030000000e-02	1.340061854e-01	-2.045721426e-04	7.365697683e-12
-2.040000000e-02	1.340061846e-01	-2.032112620e-04	2.727624036e-11
-2.050000000e-02	1.340061838e-01	-2.018503815e-04	1.339540578e-10
-2.060000000e-02	1.340061830e-01	-2.004895008e-04	1.074567602e-11
-2.070000000e-02	1.340061821e-01	-1.991286201e-04	8.177784375e-12
-2.080000000e-02	1.340061811e-01	-1.977677394e-04	1.027111928e-11
-2.090000000e-02	1.340061802e-01	-1.964068587e-04	9.624944114e-12
-2.100000000e-02	1.340061792e-01	-1.950459779e-04	7.200880831e-12
-2.110000000e-02	1.340061781e-01	-1.936850971e-04	1.730342513e-11
-2.120000000e-02	1.340061770e-01	-1.923242163e-04	1.908753888e-11
-2.130000000e-02	1.340061758e-01	-1.909633355e-04	1.035899825e-11
-2.140000000e-02	1.340061747e-01	-1.896024547e-04	1.297977459e-11
-2.150000000e-02	1.340061734e-01	-1.882415738e-04	7.905098483e-12
-2.160000000e-02	1.340061722e-01	-1.868806930e-04	1.292268777e-11
-2.170000000e-02	1.340061709e-01	-1.855198121e-04	1.541355527e-11
-2.180000000e-02	1.340061695e-01	-1.841589312e-04	1.107687846e-11
-2.190000000e-02	1.340061681e-01	-1.827980503e-04	3.003979584e-11
-2.200000000e-02	1.340061667e-01	-1.814371694e-04	1.138734828e-11
-2.210000000e-02	1.340061652e-01	-1.800762886e-04	1.810600295e-11
-2.220000000e-02	1.340061637e-01	-1.787154077e-04	1.257088746e-11
-2.230000000e-02	1.340061621e-01	-1.773545268e-04	1.249989885e-11
-2.240000000e-02	1.340061605e-01	-1.759936459e-04	1.528549209e-11
-2.250000000e-02	1.340061589e-01	-1.746327650e-04	6.842398544e-12
-2.260000000e-02	1.340061572e-01	-1.732718842e-04	1.311844208e-11
-2.270000000e-02	1.340061555e-01	-1.719110033e-04	9.172363617e-12
-2.280000000e-02	1.340061537e-01	-1.705501225e-04	1.180619832e-11
-2.290000000e-02	1.340061519e-01	-1.691892417e-04	1.228207805e-11
-2.300000000e-02	1.340061501e-01	-1.678283608e-04	1.361802223e-11
-2.310000000e-02	1.340061482e-01	-1.664674801e-04	1.279197118e-11
-2.320000000e-02	1.340061463e-01	-1.651065993e-04	5.958565611e-12
-2.330000000e-02	1.340061443e-01	-1.637457186e-04	1.004020745e-11
-2.340000000e-02	1.340061423e-01	-1.623848378e-04	1.280366566e-11
-2.350000000e-02	1.340061402e-01	-1.610239571e-04	1.259047689e-11
-2.360000000e-02	1.340061382e-01	-1.596630765e-04	7.962575446e-12
-2.370000000e-02	1.340061360e-01	-1.583021959e-04	1.121492516e-11
-2.380000000e-02	1.340061338e-01	-1.569413153e-04	9.718394357e-12
-2.390000000e-02	1.340061316e-01	-1.555804347e-04	7.408966100e-12
-2.400000000e-02	1.340061294e-01	-1.542195542e-04	8.161498495e-12
-2.410000000e-02	1.340061271e-01	-1.528586737e-04	8.034691974e-12
-2.420000000e-02	1.340061247e-01	-1.514977933e-04	5.168040722e-12
-2.430000000e-02	1.340061223e-01	-1.501369129e-04	2.063612646e-11
-2.440000000e-02	1.340061199e-01	-1.487760325e-04	1.196249832e-11
-2.450000000e-02	1.340061174e-01	-1.474151522e-04	1.603113374e-11
-2.460000000e-02	1.340061149e-01	-1.460542720e-04	1.572434209e-11
-2.470000000e-02	1.340061124e-01	-1.446933918e-04	1.382448176e-11
-2.480000000e-02	1.340061098e-01	-1.433325117e-04	5.891006235e-11
-2.490000000e-02	1.340061072e-01	-1.419716316e-04	1.407574211e-11
-2.500000000e-02	1.340061045e-01	-1.406107516e-04	9.434084455e-12
-2.510000000e-02	1.340061018e-01	-1.392498716e-04	2.336494093e-11
-2.520000000e-02	1.340060990e-01	-1.378889917e-04	1.730926658e-11
-2.530000000e-02	1.340060962e-01	-1.365281119e-04	8.428317850e-12
-2.540000000e-02	1.340060934e-01	-1.351672321e-04	1.837431703e-11
-2.550000000e-02	1.340060905e-01	-1.338063524e-04	5.712649310e-12
-2.560000000e-02	1.340060876e-01	-1.324454728e-04	2.499726233e-11
-2.570000000e-02	1.340060846e-01	-1.310845932e-04	2.394747807e-11
-2.580000000e-02	1.340060816e-01	-1.297237137e-04	3.351034462e-11
-2.590000000e-02	1.340060786e-01	-1.283628344e-04	1.756808743e-11
-2.600000000e-02	1.340060755e-01	-1.270019550e-04	1.752725934e-11
-2.610000000e-02	1.340060724e-01	-1.256410758e-04	1.062501657e-11
-2.620000000e-02	1.340060692e-01	-1.242801967e-04	7.244220747e-12
-2.630000000e-02	1.340060660e-01	-1.229193176e-04	8.665611718e-12
-2.640000000e-02	1.340060627e-01	-1.215584386e-04	1.063681890e-11
-2.650000000e-02	1.340060595e-01	-1.201975597e-04	7.310188107e-11
-2.660000000e-02	1.340060561e-01	-1.188366809e-04	1.620415400e-11
-2.670000000e-02	1.340060527e-01	-1.174758022e-04	3.407036612e-11
-2.680000000e-02	1.340060493e-01	-1.161149236e-04	1.071927330e-11
-2.690000000e-02	1.340060459e-01	-1.147540451e-04	6.617429708e-12
-2.700000000e-02	1.340060424e-01	-1.133931667e-04	9.358157801e-12
-2.710000000e-02	1.340060388e-01	-1.120322884e-04	1.464802243e-11
-2.720000000e-02	1.340060352e-01	-1.106714102e-04	4.887624782e-11
-2.730000000e-02	1.340060316e-01	-1.093105321e-04	2.760619687e-11
-2.740000000e-02	1.340060280e-01	-1.079496542e-04	1.113916848e-11
-2.750000000e-02	1.340060243e-01	-1.065887763e-04	2.139397356e-11
-2.760000000e-02	1.340060205e-01	-1.052278985e-04	7.509676023e-12
-2.770000000e-02	1.340060167e-01	-1.038670209e-04	1.059597375e-11
-2.780000000e-02	1.340060129e-01	-1.025061434e-04	8.112215432e-12
-2.790000000e-02	1.340060090e-01	-1.011452660e-04	5.969391022e-12
-2.800000000e-02	1.340060051e-01	-9.978438870e-05	8.103573050e-12
-2.810000000e-02	1.340060011e-01	-9.842351155e-05	7.290046819e-12
-2.820000000e-02	1.340059972e-01	-9.706263452e-05	6.776429415e-12
-2.830000000e-02	1.340059931e-01	-9.570175762e-05	8.598445076e-12
-2.840000000e-02	1.340059890e-01	-9.434088084e-05	1.033272310e-11
-2.850000000e-02	1.340059849e-01	-9.298000422e-05	4.061082569e-11
-2.860000000e-02	1.340059808e-01	-9.161912771e-05	3.342535898e-11
-2.870000000e-02	1.340059766e-01	-9.025825134e-05	1.382591138e-11
-2.880000000e-02	1.340059723e-01	-8.889737510e-05	1.082064755e-11
-2.890000000e-02	1.340059680e-01	-8.753649901e-05	6.149818678e-12
-2.900000000e-02	1.340059637e-01	-8.617562306e-05	6.298421934e-11
-2.910000000e-02	1.340059593e-01	-8.481474726e-05	2.007458163e-11
-2.920000000e-02	1.340059549e-01	-8.345387161e-05	2.665149898e-11
-2.930000000e-02	1.340059505e-01	-8.209299610e-05	1.464622483e-11
-2.940000000e-02	1.340059460e-01	-8.073212074e-05	1.746729079e-11
-2.950000000e-02	1.340059414e-01	-7.937124554e-05	3.405489696e-11
-2.960000000e-02	1.340059369e-01	-7.801037050e-05	1.295462310e-11
-2.970000000e-02	1.340059323e-01	-7.664949560e-05	1.573357048e-11
-2.980000000e-02	1.340059276e-01	-7.528862087e-05	7.373108546e-12
-2.990000000e-02	1.340059229e-01	-7.392774630e-05	1.529667619e-11
-3.000000000e-02	1.340059182e-01	-7.256687190e-05	1.160167714e-11
