# Im(epsi1)     Re(omega/c)      Im(omega/c)      Eq(det).Opt det CON kz, R=0.5 \mum, mu_c=0.3, Re(epsi1)=3.90solve_det_conkz_vs_kz.py
0.000000000e+00	1.340091718e-01	-5.268908609e-04	9.323011117e-12
-1.000000000e-04	1.340091808e-01	-5.255313720e-04	6.792399718e-12
-2.000000000e-04	1.340091898e-01	-5.241718827e-04	9.994402752e-12
-3.000000000e-04	1.340091988e-01	-5.228123928e-04	1.095571096e-11
-4.000000000e-04	1.340092076e-01	-5.214529024e-04	3.996066424e-11
-5.000000000e-04	1.340092165e-01	-5.200934115e-04	2.414762741e-11
-6.000000000e-04	1.340092253e-01	-5.187339200e-04	2.033716047e-11
-7.000000000e-04	1.340092341e-01	-5.173744281e-04	1.497326075e-11
-8.000000000e-04	1.340092428e-01	-5.160149356e-04	7.707854755e-12
-9.000000000e-04	1.340092515e-01	-5.146554426e-04	1.523965541e-11
-1.000000000e-03	1.340092601e-01	-5.132959491e-04	1.590511484e-11
-1.100000000e-03	1.340092688e-01	-5.119364550e-04	2.515333883e-11
-1.200000000e-03	1.340092773e-01	-5.105769605e-04	2.334856947e-11
-1.300000000e-03	1.340092858e-01	-5.092174655e-04	5.048628046e-11
-1.400000000e-03	1.340092943e-01	-5.078579699e-04	6.575238919e-12
-1.500000000e-03	1.340093028e-01	-5.064984739e-04	1.041836858e-11
-1.600000000e-03	1.340093112e-01	-5.051389773e-04	1.933830272e-11
-1.700000000e-03	1.340093195e-01	-5.037794803e-04	1.444970380e-11
-1.800000000e-03	1.340093278e-01	-5.024199828e-04	7.380021784e-11
-1.900000000e-03	1.340093361e-01	-5.010604847e-04	1.427207365e-11
-2.000000000e-03	1.340093444e-01	-4.997009862e-04	1.607327007e-11
-2.100000000e-03	1.340093525e-01	-4.983414872e-04	1.913626294e-11
-2.200000000e-03	1.340093607e-01	-4.969819877e-04	3.328300947e-11
-2.300000000e-03	1.340093688e-01	-4.956224877e-04	1.374176385e-11
-2.400000000e-03	1.340093769e-01	-4.942629872e-04	3.714672414e-11
-2.500000000e-03	1.340093849e-01	-4.929034863e-04	2.040031217e-11
-2.600000000e-03	1.340093929e-01	-4.915439848e-04	1.046076364e-11
-2.700000000e-03	1.340094008e-01	-4.901844829e-04	1.132324582e-11
-2.800000000e-03	1.340094087e-01	-4.888249805e-04	1.069593066e-11
-2.900000000e-03	1.340094166e-01	-4.874654777e-04	1.082659758e-11
-3.000000000e-03	1.340094244e-01	-4.861059743e-04	1.037321248e-11
-3.100000000e-03	1.340094322e-01	-4.847464705e-04	2.075602405e-11
-3.200000000e-03	1.340094399e-01	-4.833869663e-04	9.651819540e-12
-3.300000000e-03	1.340094476e-01	-4.820274615e-04	4.282519292e-11
-3.400000000e-03	1.340094553e-01	-4.806679563e-04	1.291114121e-11
-3.500000000e-03	1.340094629e-01	-4.793084507e-04	6.755659898e-12
-3.600000000e-03	1.340094705e-01	-4.779489446e-04	1.261499656e-11
-3.700000000e-03	1.340094780e-01	-4.765894380e-04	1.472860377e-11
-3.800000000e-03	1.340094855e-01	-4.752299310e-04	7.343464982e-12
-3.900000000e-03	1.340094930e-01	-4.738704235e-04	1.508578384e-11
-4.000000000e-03	1.340095004e-01	-4.725109155e-04	2.018197118e-11
-4.100000000e-03	1.340095077e-01	-4.711514072e-04	1.029310758e-11
-4.200000000e-03	1.340095151e-01	-4.697918983e-04	1.721410621e-11
-4.300000000e-03	1.340095224e-01	-4.684323891e-04	1.943412246e-11
-4.400000000e-03	1.340095296e-01	-4.670728794e-04	1.738643406e-11
-4.500000000e-03	1.340095368e-01	-4.657133692e-04	1.051453753e-11
-4.600000000e-03	1.340095440e-01	-4.643538586e-04	1.082874442e-11
-4.700000000e-03	1.340095511e-01	-4.629943476e-04	7.374323482e-12
-4.800000000e-03	1.340095582e-01	-4.616348361e-04	4.880183772e-12
-4.900000000e-03	1.340095652e-01	-4.602753242e-04	7.454250896e-12
-5.000000000e-03	1.340095722e-01	-4.589158119e-04	1.783203418e-11
-5.100000000e-03	1.340095792e-01	-4.575562992e-04	2.558390278e-11
-5.200000000e-03	1.340095861e-01	-4.561967860e-04	3.286943336e-11
-5.300000000e-03	1.340095930e-01	-4.548372724e-04	9.893199883e-12
-5.400000000e-03	1.340095998e-01	-4.534777584e-04	1.485425745e-11
-5.500000000e-03	1.340096066e-01	-4.521182439e-04	2.661368301e-11
-5.600000000e-03	1.340096133e-01	-4.507587291e-04	3.197816653e-11
-5.700000000e-03	1.340096200e-01	-4.493992138e-04	2.502176124e-11
-5.800000000e-03	1.340096267e-01	-4.480396981e-04	6.568161143e-11
-5.900000000e-03	1.340096333e-01	-4.466801820e-04	6.617734850e-12
-6.000000000e-03	1.340096399e-01	-4.453206655e-04	1.292651159e-11
-6.100000000e-03	1.340096465e-01	-4.439611486e-04	1.202386068e-11
-6.200000000e-03	1.340096530e-01	-4.426016313e-04	8.300499676e-12
-6.300000000e-03	1.340096594e-01	-4.412421136e-04	8.817073649e-12
-6.400000000e-03	1.340096658e-01	-4.398825955e-04	1.938249018e-11
-6.500000000e-03	1.340096722e-01	-4.385230769e-04	4.574126481e-11
-6.600000000e-03	1.340096785e-01	-4.371635580e-04	8.646680438e-12
-6.700000000e-03	1.340096848e-01	-4.358040387e-04	9.225369162e-12
-6.800000000e-03	1.340096911e-01	-4.344445190e-04	1.374549771e-11
-6.900000000e-03	1.340096973e-01	-4.330849989e-04	1.271271923e-11
-7.000000000e-03	1.340097035e-01	-4.317254785e-04	3.023817927e-11
-7.100000000e-03	1.340097096e-01	-4.303659576e-04	8.620501964e-11
-7.200000000e-03	1.340097157e-01	-4.290064363e-04	4.798405590e-11
-7.300000000e-03	1.340097218e-01	-4.276469147e-04	1.034076216e-11
-7.400000000e-03	1.340097278e-01	-4.262873927e-04	5.154816963e-12
-7.500000000e-03	1.340097337e-01	-4.249278703e-04	3.207672453e-11
-7.600000000e-03	1.340097396e-01	-4.235683476e-04	8.508544150e-12
-7.700000000e-03	1.340097455e-01	-4.222088244e-04	2.170015896e-11
-7.800000000e-03	1.340097514e-01	-4.208493009e-04	1.171210761e-11
-7.900000000e-03	1.340097572e-01	-4.194897770e-04	1.048157332e-11
-8.000000000e-03	1.340097629e-01	-4.181302528e-04	1.779054960e-11
-8.100000000e-03	1.340097687e-01	-4.167707282e-04	1.257786629e-11
-8.200000000e-03	1.340097743e-01	-4.154112032e-04	1.217156219e-11
-8.300000000e-03	1.340097800e-01	-4.140516779e-04	1.631478729e-11
-8.400000000e-03	1.340097856e-01	-4.126921522e-04	1.082748675e-11
-8.500000000e-03	1.340097911e-01	-4.113326261e-04	3.719862678e-10
-8.600000000e-03	1.340097966e-01	-4.099730997e-04	9.217315512e-12
-8.700000000e-03	1.340098021e-01	-4.086135730e-04	1.316631002e-11
-8.800000000e-03	1.340098075e-01	-4.072540459e-04	1.697163535e-11
-8.900000000e-03	1.340098129e-01	-4.058945184e-04	3.198866300e-11
-9.000000000e-03	1.340098183e-01	-4.045349906e-04	1.453371734e-11
-9.100000000e-03	1.340098236e-01	-4.031754625e-04	6.284087226e-11
-9.200000000e-03	1.340098288e-01	-4.018159340e-04	2.583140199e-11
-9.300000000e-03	1.340098341e-01	-4.004564052e-04	1.759967272e-11
-9.400000000e-03	1.340098392e-01	-3.990968760e-04	2.831315401e-11
-9.500000000e-03	1.340098444e-01	-3.977373465e-04	2.080277822e-11
-9.600000000e-03	1.340098495e-01	-3.963778167e-04	1.141184197e-11
-9.700000000e-03	1.340098545e-01	-3.950182865e-04	7.498224329e-11
-9.800000000e-03	1.340098595e-01	-3.936587560e-04	1.623464270e-11
-9.900000000e-03	1.340098645e-01	-3.922992252e-04	2.225431191e-11
-1.000000000e-02	1.340098695e-01	-3.909396940e-04	1.431984513e-11
-1.010000000e-02	1.340098744e-01	-3.895801625e-04	8.620374444e-12
-1.020000000e-02	1.340098792e-01	-3.882206307e-04	1.247079504e-11
-1.030000000e-02	1.340098840e-01	-3.868610986e-04	1.263395176e-11
-1.040000000e-02	1.340098888e-01	-3.855015662e-04	7.153209315e-12
-1.050000000e-02	1.340098935e-01	-3.841420335e-04	8.102885705e-12
-1.060000000e-02	1.340098982e-01	-3.827825004e-04	1.304990100e-11
-1.070000000e-02	1.340099028e-01	-3.814229670e-04	1.099747304e-11
-1.080000000e-02	1.340099074e-01	-3.800634333e-04	2.626494807e-11
-1.090000000e-02	1.340099120e-01	-3.787038994e-04	1.901644881e-11
-1.100000000e-02	1.340099165e-01	-3.773443651e-04	8.546586945e-12
-1.110000000e-02	1.340099210e-01	-3.759848305e-04	5.405143152e-11
-1.120000000e-02	1.340099255e-01	-3.746252956e-04	9.483703473e-12
-1.130000000e-02	1.340099299e-01	-3.732657604e-04	5.540701403e-12
-1.140000000e-02	1.340099342e-01	-3.719062249e-04	3.889950349e-11
-1.150000000e-02	1.340099385e-01	-3.705466891e-04	1.106101723e-11
-1.160000000e-02	1.340099428e-01	-3.691871530e-04	1.044453631e-11
-1.170000000e-02	1.340099470e-01	-3.678276167e-04	7.889401876e-12
-1.180000000e-02	1.340099512e-01	-3.664680800e-04	1.701732309e-11
-1.190000000e-02	1.340099554e-01	-3.651085431e-04	4.272194571e-12
-1.200000000e-02	1.340099595e-01	-3.637490058e-04	6.431446535e-12
-1.210000000e-02	1.340099635e-01	-3.623894683e-04	1.522935455e-11
-1.220000000e-02	1.340099676e-01	-3.610299305e-04	7.961369057e-12
-1.230000000e-02	1.340099716e-01	-3.596703925e-04	1.299504969e-11
-1.240000000e-02	1.340099755e-01	-3.583108541e-04	1.218297037e-11
-1.250000000e-02	1.340099794e-01	-3.569513155e-04	9.636961825e-12
-1.260000000e-02	1.340099833e-01	-3.555917766e-04	1.874366305e-11
-1.270000000e-02	1.340099871e-01	-3.542322375e-04	7.484983266e-12
-1.280000000e-02	1.340099909e-01	-3.528726981e-04	2.736223809e-11
-1.290000000e-02	1.340099946e-01	-3.515131584e-04	7.885943380e-12
-1.300000000e-02	1.340099983e-01	-3.501536184e-04	3.588121338e-11
-1.310000000e-02	1.340100020e-01	-3.487940782e-04	1.585221722e-11
-1.320000000e-02	1.340100056e-01	-3.474345377e-04	1.242644540e-11
-1.330000000e-02	1.340100091e-01	-3.460749970e-04	7.412467869e-12
-1.340000000e-02	1.340100127e-01	-3.447154560e-04	9.097567054e-12
-1.350000000e-02	1.340100162e-01	-3.433559148e-04	2.421821784e-11
-1.360000000e-02	1.340100196e-01	-3.419963733e-04	9.844753643e-12
-1.370000000e-02	1.340100230e-01	-3.406368316e-04	6.200467503e-12
-1.380000000e-02	1.340100264e-01	-3.392772896e-04	7.980312287e-12
-1.390000000e-02	1.340100297e-01	-3.379177474e-04	8.887697303e-12
-1.400000000e-02	1.340100330e-01	-3.365582049e-04	7.275537287e-11
-1.410000000e-02	1.340100362e-01	-3.351986622e-04	2.230546802e-11
-1.420000000e-02	1.340100394e-01	-3.338391192e-04	1.321579050e-11
-1.430000000e-02	1.340100426e-01	-3.324795761e-04	2.650144463e-11
-1.440000000e-02	1.340100457e-01	-3.311200327e-04	2.328389742e-11
-1.450000000e-02	1.340100488e-01	-3.297604890e-04	2.323443529e-11
-1.460000000e-02	1.340100518e-01	-3.284009451e-04	1.718358867e-11
-1.470000000e-02	1.340100548e-01	-3.270414010e-04	1.189617136e-11
-1.480000000e-02	1.340100578e-01	-3.256818567e-04	3.934039740e-11
-1.490000000e-02	1.340100607e-01	-3.243223121e-04	1.006313910e-11
-1.500000000e-02	1.340100636e-01	-3.229627674e-04	7.397845515e-12
-1.510000000e-02	1.340100664e-01	-3.216032224e-04	1.387412772e-11
-1.520000000e-02	1.340100692e-01	-3.202436771e-04	7.682840981e-11
-1.530000000e-02	1.340100719e-01	-3.188841317e-04	7.332464352e-12
-1.540000000e-02	1.340100746e-01	-3.175245861e-04	8.407404145e-12
-1.550000000e-02	1.340100773e-01	-3.161650402e-04	5.714128825e-12
-1.560000000e-02	1.340100799e-01	-3.148054942e-04	1.188696448e-11
-1.570000000e-02	1.340100825e-01	-3.134459479e-04	1.195762422e-11
-1.580000000e-02	1.340100851e-01	-3.120864014e-04	4.926508374e-10
-1.590000000e-02	1.340100876e-01	-3.107268548e-04	5.687966400e-11
-1.600000000e-02	1.340100900e-01	-3.093673079e-04	1.558204217e-11
-1.610000000e-02	1.340100924e-01	-3.080077608e-04	8.894308762e-12
-1.620000000e-02	1.340100948e-01	-3.066482135e-04	1.037304710e-11
-1.630000000e-02	1.340100971e-01	-3.052886661e-04	2.139731389e-11
-1.640000000e-02	1.340100994e-01	-3.039291184e-04	1.021054106e-11
-1.650000000e-02	1.340101017e-01	-3.025695706e-04	8.365033732e-12
-1.660000000e-02	1.340101039e-01	-3.012100225e-04	2.560433347e-11
-1.670000000e-02	1.340101061e-01	-2.998504743e-04	3.197085388e-11
-1.680000000e-02	1.340101082e-01	-2.984909259e-04	1.712468879e-11
-1.690000000e-02	1.340101103e-01	-2.971313773e-04	4.474600617e-12
-1.700000000e-02	1.340101123e-01	-2.957718285e-04	6.907266965e-12
-1.710000000e-02	1.340101143e-01	-2.944122796e-04	5.155981715e-11
-1.720000000e-02	1.340101163e-01	-2.930527305e-04	7.182054059e-12
-1.730000000e-02	1.340101182e-01	-2.916931812e-04	1.154563576e-10
-1.740000000e-02	1.340101201e-01	-2.903336317e-04	3.583432100e-11
-1.750000000e-02	1.340101219e-01	-2.889740821e-04	1.572258789e-10
-1.760000000e-02	1.340101237e-01	-2.876145323e-04	1.228683639e-11
-1.770000000e-02	1.340101255e-01	-2.862549823e-04	4.864428085e-12
-1.780000000e-02	1.340101272e-01	-2.848954322e-04	1.596482892e-11
-1.790000000e-02	1.340101289e-01	-2.835358819e-04	1.382250530e-11
-1.800000000e-02	1.340101305e-01	-2.821763314e-04	3.739323077e-11
-1.810000000e-02	1.340101321e-01	-2.808167808e-04	1.643880324e-11
-1.820000000e-02	1.340101337e-01	-2.794572300e-04	1.281313752e-11
-1.830000000e-02	1.340101352e-01	-2.780976791e-04	3.338998218e-11
-1.840000000e-02	1.340101367e-01	-2.767381281e-04	1.633202066e-11
-1.850000000e-02	1.340101381e-01	-2.753785768e-04	1.529461032e-11
-1.860000000e-02	1.340101395e-01	-2.740190255e-04	1.724828814e-11
-1.870000000e-02	1.340101408e-01	-2.726594740e-04	6.775777524e-12
-1.880000000e-02	1.340101421e-01	-2.712999223e-04	3.506537426e-11
-1.890000000e-02	1.340101434e-01	-2.699403705e-04	1.561879275e-11
-1.900000000e-02	1.340101446e-01	-2.685808186e-04	3.173676266e-11
-1.910000000e-02	1.340101458e-01	-2.672212665e-04	4.727092869e-12
-1.920000000e-02	1.340101469e-01	-2.658617143e-04	7.165690524e-12
-1.930000000e-02	1.340101480e-01	-2.645021620e-04	7.258610441e-12
-1.940000000e-02	1.340101491e-01	-2.631426095e-04	1.452637751e-11
-1.950000000e-02	1.340101501e-01	-2.617830569e-04	1.178000930e-11
-1.960000000e-02	1.340101511e-01	-2.604235042e-04	2.481564577e-11
-1.970000000e-02	1.340101520e-01	-2.590639514e-04	1.199678333e-11
-1.980000000e-02	1.340101529e-01	-2.577043984e-04	3.440081995e-12
-1.990000000e-02	1.340101537e-01	-2.563448454e-04	4.348967219e-11
-2.000000000e-02	1.340101545e-01	-2.549852922e-04	1.723160652e-11
-2.010000000e-02	1.340101553e-01	-2.536257389e-04	1.461913326e-11
-2.020000000e-02	1.340101560e-01	-2.522661854e-04	2.374672640e-11
-2.030000000e-02	1.340101567e-01	-2.509066319e-04	7.231964375e-12
-2.040000000e-02	1.340101574e-01	-2.495470782e-04	4.377035095e-11
-2.050000000e-02	1.340101580e-01	-2.481875245e-04	9.035469715e-12
-2.060000000e-02	1.340101585e-01	-2.468279706e-04	1.569971183e-11
-2.070000000e-02	1.340101590e-01	-2.454684167e-04	8.489112904e-12
-2.080000000e-02	1.340101595e-01	-2.441088626e-04	8.820719117e-12
-2.090000000e-02	1.340101600e-01	-2.427493085e-04	1.960239135e-11
-2.100000000e-02	1.340101604e-01	-2.413897542e-04	9.381059466e-12
-2.110000000e-02	1.340101607e-01	-2.400301998e-04	1.164841427e-11
-2.120000000e-02	1.340101610e-01	-2.386706454e-04	8.743757748e-12
-2.130000000e-02	1.340101613e-01	-2.373110909e-04	7.322669127e-12
-2.140000000e-02	1.340101615e-01	-2.359515363e-04	6.901121423e-11
-2.150000000e-02	1.340101617e-01	-2.345919815e-04	9.939798514e-11
-2.160000000e-02	1.340101619e-01	-2.332324268e-04	2.094475140e-11
-2.170000000e-02	1.340101620e-01	-2.318728719e-04	1.382311977e-11
-2.180000000e-02	1.340101620e-01	-2.305133169e-04	1.053950913e-11
-2.190000000e-02	1.340101621e-01	-2.291537619e-04	1.187862859e-11
-2.200000000e-02	1.340101620e-01	-2.277942068e-04	1.209628291e-11
-2.210000000e-02	1.340101620e-01	-2.264346516e-04	8.412241213e-12
-2.220000000e-02	1.340101619e-01	-2.250750964e-04	1.103997664e-11
-2.230000000e-02	1.340101618e-01	-2.237155410e-04	1.461706033e-11
-2.240000000e-02	1.340101616e-01	-2.223559856e-04	1.475048005e-11
-2.250000000e-02	1.340101613e-01	-2.209964302e-04	3.276275543e-11
-2.260000000e-02	1.340101611e-01	-2.196368747e-04	2.127270504e-11
-2.270000000e-02	1.340101608e-01	-2.182773191e-04	1.388595774e-11
-2.280000000e-02	1.340101604e-01	-2.169177634e-04	2.639534599e-11
-2.290000000e-02	1.340101600e-01	-2.155582078e-04	1.584584868e-11
-2.300000000e-02	1.340101596e-01	-2.141986520e-04	1.136705188e-11
-2.310000000e-02	1.340101591e-01	-2.128390962e-04	1.316512169e-11
-2.320000000e-02	1.340101586e-01	-2.114795403e-04	1.721030631e-11
-2.330000000e-02	1.340101581e-01	-2.101199844e-04	1.393104224e-11
-2.340000000e-02	1.340101575e-01	-2.087604285e-04	1.463122865e-11
-2.350000000e-02	1.340101568e-01	-2.074008725e-04	1.712202254e-11
-2.360000000e-02	1.340101562e-01	-2.060413165e-04	3.811878535e-11
-2.370000000e-02	1.340101555e-01	-2.046817604e-04	2.756611960e-11
-2.380000000e-02	1.340101547e-01	-2.033222043e-04	2.227741528e-11
-2.390000000e-02	1.340101539e-01	-2.019626481e-04	3.643834504e-12
-2.400000000e-02	1.340101531e-01	-2.006030919e-04	1.354669402e-11
-2.410000000e-02	1.340101522e-01	-1.992435357e-04	1.563402341e-11
-2.420000000e-02	1.340101512e-01	-1.978839795e-04	5.742374942e-12
-2.430000000e-02	1.340101503e-01	-1.965244232e-04	1.800056277e-11
-2.440000000e-02	1.340101493e-01	-1.951648669e-04	8.611247425e-12
-2.450000000e-02	1.340101482e-01	-1.938053106e-04	1.152190071e-11
-2.460000000e-02	1.340101471e-01	-1.924457542e-04	6.675059476e-12
-2.470000000e-02	1.340101460e-01	-1.910861979e-04	1.619966990e-11
-2.480000000e-02	1.340101448e-01	-1.897266415e-04	5.909906807e-12
-2.490000000e-02	1.340101436e-01	-1.883670851e-04	2.286442789e-11
-2.500000000e-02	1.340101424e-01	-1.870075287e-04	7.007352879e-12
-2.510000000e-02	1.340101411e-01	-1.856479722e-04	7.679004537e-12
-2.520000000e-02	1.340101397e-01	-1.842884158e-04	9.414665433e-12
-2.530000000e-02	1.340101384e-01	-1.829288594e-04	1.202675742e-11
-2.540000000e-02	1.340101369e-01	-1.815693029e-04	3.911530026e-11
-2.550000000e-02	1.340101355e-01	-1.802097465e-04	2.591074528e-11
-2.560000000e-02	1.340101340e-01	-1.788501900e-04	9.609363968e-12
-2.570000000e-02	1.340101324e-01	-1.774906336e-04	2.297689884e-11
-2.580000000e-02	1.340101308e-01	-1.761310771e-04	1.462518640e-11
-2.590000000e-02	1.340101292e-01	-1.747715207e-04	6.725359294e-12
-2.600000000e-02	1.340101276e-01	-1.734119643e-04	2.070539188e-11
-2.610000000e-02	1.340101258e-01	-1.720524078e-04	1.158146284e-11
-2.620000000e-02	1.340101241e-01	-1.706928514e-04	1.227053288e-11
-2.630000000e-02	1.340101223e-01	-1.693332950e-04	3.984723999e-11
-2.640000000e-02	1.340101205e-01	-1.679737387e-04	1.242011466e-11
-2.650000000e-02	1.340101186e-01	-1.666141823e-04	1.568535927e-11
-2.660000000e-02	1.340101167e-01	-1.652546260e-04	1.556565028e-11
-2.670000000e-02	1.340101147e-01	-1.638950696e-04	1.004612192e-11
-2.680000000e-02	1.340101127e-01	-1.625355133e-04	5.061546164e-12
-2.690000000e-02	1.340101107e-01	-1.611759571e-04	1.275718892e-11
-2.700000000e-02	1.340101086e-01	-1.598164008e-04	8.879880311e-12
-2.710000000e-02	1.340101065e-01	-1.584568446e-04	1.863388850e-11
-2.720000000e-02	1.340101043e-01	-1.570972884e-04	1.599269428e-11
-2.730000000e-02	1.340101021e-01	-1.557377323e-04	7.140872600e-12
-2.740000000e-02	1.340100999e-01	-1.543781762e-04	9.769089398e-12
-2.750000000e-02	1.340100976e-01	-1.530186201e-04	5.039386405e-11
-2.760000000e-02	1.340100953e-01	-1.516590641e-04	1.722254153e-11
-2.770000000e-02	1.340100929e-01	-1.502995081e-04	7.034859251e-12
-2.780000000e-02	1.340100905e-01	-1.489399522e-04	1.536848994e-11
-2.790000000e-02	1.340100880e-01	-1.475803963e-04	1.543184363e-11
-2.800000000e-02	1.340100856e-01	-1.462208404e-04	1.152723679e-11
-2.810000000e-02	1.340100830e-01	-1.448612846e-04	1.195880833e-11
-2.820000000e-02	1.340100804e-01	-1.435017289e-04	1.281442268e-11
-2.830000000e-02	1.340100778e-01	-1.421421732e-04	2.395849717e-11
-2.840000000e-02	1.340100752e-01	-1.407826176e-04	2.650273298e-11
-2.850000000e-02	1.340100725e-01	-1.394230620e-04	1.275606738e-11
-2.860000000e-02	1.340100697e-01	-1.380635065e-04	1.191534287e-11
-2.870000000e-02	1.340100670e-01	-1.367039511e-04	1.559482235e-11
-2.880000000e-02	1.340100641e-01	-1.353443957e-04	5.090181521e-11
-2.890000000e-02	1.340100613e-01	-1.339848404e-04	1.129333910e-11
-2.900000000e-02	1.340100584e-01	-1.326252852e-04	1.438631506e-11
-2.910000000e-02	1.340100554e-01	-1.312657300e-04	1.170893455e-11
-2.920000000e-02	1.340100524e-01	-1.299061749e-04	6.416459767e-11
-2.930000000e-02	1.340100494e-01	-1.285466199e-04	7.663933523e-12
-2.940000000e-02	1.340100463e-01	-1.271870649e-04	7.542423015e-12
-2.950000000e-02	1.340100432e-01	-1.258275101e-04	1.505193039e-11
-2.960000000e-02	1.340100401e-01	-1.244679553e-04	1.396061609e-11
-2.970000000e-02	1.340100369e-01	-1.231084006e-04	1.284033454e-11
-2.980000000e-02	1.340100336e-01	-1.217488460e-04	4.220147202e-11
-2.990000000e-02	1.340100304e-01	-1.203892915e-04	1.175286697e-11
-3.000000000e-02	1.340100270e-01	-1.190297371e-04	6.114305496e-11
