# Im(epsi1)     Re(omega/c)      Im(omega/c)      Eq(det).Opt det CON kz, R=0.5 \mum, mu_c=0.3, Re(epsi1)=3.90solve_det_conkz_vs_kz.py
0.000000000e+00	1.339341427e-01	-5.715496857e-04	2.637799551e-11
-1.000000000e-04	1.339341523e-01	-5.701854914e-04	1.430097193e-11
-2.000000000e-04	1.339341618e-01	-5.688212962e-04	2.112554809e-11
-3.000000000e-04	1.339341712e-01	-5.674571001e-04	8.271081850e-12
-4.000000000e-04	1.339341806e-01	-5.660929032e-04	7.474377666e-13
-5.000000000e-04	1.339341900e-01	-5.647287055e-04	1.468988725e-11
-6.000000000e-04	1.339341994e-01	-5.633645069e-04	2.008207408e-11
-7.000000000e-04	1.339342087e-01	-5.620003075e-04	1.625827117e-11
-8.000000000e-04	1.339342179e-01	-5.606361072e-04	6.774898701e-11
-9.000000000e-04	1.339342272e-01	-5.592719062e-04	3.196573000e-12
-1.000000000e-03	1.339342363e-01	-5.579077042e-04	2.733424654e-11
-1.100000000e-03	1.339342455e-01	-5.565435015e-04	1.616213222e-11
-1.200000000e-03	1.339342546e-01	-5.551792979e-04	1.193499790e-11
-1.300000000e-03	1.339342636e-01	-5.538150936e-04	1.169751992e-11
-1.400000000e-03	1.339342727e-01	-5.524508884e-04	1.077076380e-11
-1.500000000e-03	1.339342816e-01	-5.510866823e-04	3.405074190e-11
-1.600000000e-03	1.339342906e-01	-5.497224755e-04	1.649405672e-11
-1.700000000e-03	1.339342995e-01	-5.483582679e-04	2.641275276e-11
-1.800000000e-03	1.339343084e-01	-5.469940594e-04	1.217703921e-11
-1.900000000e-03	1.339343172e-01	-5.456298502e-04	3.893624766e-12
-2.000000000e-03	1.339343260e-01	-5.442656401e-04	2.642077576e-12
-2.100000000e-03	1.339343347e-01	-5.429014292e-04	4.221688528e-12
-2.200000000e-03	1.339343434e-01	-5.415372176e-04	9.046468135e-12
-2.300000000e-03	1.339343521e-01	-5.401730051e-04	8.000991999e-12
-2.400000000e-03	1.339343607e-01	-5.388087919e-04	5.117764190e-12
-2.500000000e-03	1.339343693e-01	-5.374445778e-04	5.838869143e-12
-2.600000000e-03	1.339343778e-01	-5.360803630e-04	8.986496936e-12
-2.700000000e-03	1.339343863e-01	-5.347161474e-04	1.584805804e-11
-2.800000000e-03	1.339343948e-01	-5.333519310e-04	8.492971326e-12
-2.900000000e-03	1.339344032e-01	-5.319877138e-04	2.774099785e-11
-3.000000000e-03	1.339344116e-01	-5.306234959e-04	2.281535863e-11
-3.100000000e-03	1.339344199e-01	-5.292592771e-04	3.876178805e-12
-3.200000000e-03	1.339344283e-01	-5.278950576e-04	7.587470095e-11
-3.300000000e-03	1.339344365e-01	-5.265308374e-04	2.567454614e-11
-3.400000000e-03	1.339344447e-01	-5.251666163e-04	2.888566368e-11
-3.500000000e-03	1.339344529e-01	-5.238023945e-04	1.446246985e-11
-3.600000000e-03	1.339344611e-01	-5.224381719e-04	2.787192380e-11
-3.700000000e-03	1.339344692e-01	-5.210739486e-04	2.444373263e-11
-3.800000000e-03	1.339344772e-01	-5.197097245e-04	5.806800236e-11
-3.900000000e-03	1.339344853e-01	-5.183454997e-04	3.902677594e-11
-4.000000000e-03	1.339344933e-01	-5.169812741e-04	1.333128943e-11
-4.100000000e-03	1.339345012e-01	-5.156170478e-04	2.869483123e-11
-4.200000000e-03	1.339345091e-01	-5.142528207e-04	5.122259811e-12
-4.300000000e-03	1.339345170e-01	-5.128885929e-04	5.127867781e-11
-4.400000000e-03	1.339345248e-01	-5.115243643e-04	2.221666068e-11
-4.500000000e-03	1.339345326e-01	-5.101601350e-04	1.214560827e-11
-4.600000000e-03	1.339345403e-01	-5.087959050e-04	1.023933235e-11
-4.700000000e-03	1.339345480e-01	-5.074316742e-04	6.484935301e-12
-4.800000000e-03	1.339345557e-01	-5.060674427e-04	7.830459641e-12
-4.900000000e-03	1.339345633e-01	-5.047032104e-04	7.211652241e-11
-5.000000000e-03	1.339345709e-01	-5.033389775e-04	1.676528207e-12
-5.100000000e-03	1.339345785e-01	-5.019747438e-04	1.500163511e-10
-5.200000000e-03	1.339345860e-01	-5.006105094e-04	2.579240607e-11
-5.300000000e-03	1.339345935e-01	-4.992462742e-04	5.302154748e-12
-5.400000000e-03	1.339346009e-01	-4.978820384e-04	3.788572033e-11
-5.500000000e-03	1.339346083e-01	-4.965178019e-04	3.136819861e-12
-5.600000000e-03	1.339346156e-01	-4.951535646e-04	9.236886571e-12
-5.700000000e-03	1.339346229e-01	-4.937893266e-04	3.183330289e-11
-5.800000000e-03	1.339346302e-01	-4.924250879e-04	9.060293205e-12
-5.900000000e-03	1.339346374e-01	-4.910608486e-04	8.000164367e-12
-6.000000000e-03	1.339346446e-01	-4.896966085e-04	8.074095319e-12
-6.100000000e-03	1.339346518e-01	-4.883323677e-04	3.342872578e-11
-6.200000000e-03	1.339346589e-01	-4.869681262e-04	2.118418933e-12
-6.300000000e-03	1.339346660e-01	-4.856038841e-04	6.822026702e-11
-6.400000000e-03	1.339346730e-01	-4.842396412e-04	4.687092136e-12
-6.500000000e-03	1.339346800e-01	-4.828753977e-04	1.527910586e-11
-6.600000000e-03	1.339346869e-01	-4.815111534e-04	2.237007295e-11
-6.700000000e-03	1.339346938e-01	-4.801469085e-04	9.993443514e-12
-6.800000000e-03	1.339347007e-01	-4.787826630e-04	1.623358780e-11
-6.900000000e-03	1.339347075e-01	-4.774184167e-04	1.020838813e-11
-7.000000000e-03	1.339347143e-01	-4.760541698e-04	6.193426008e-12
-7.100000000e-03	1.339347211e-01	-4.746899221e-04	1.274256142e-11
-7.200000000e-03	1.339347278e-01	-4.733256739e-04	2.965034662e-11
-7.300000000e-03	1.339347345e-01	-4.719614249e-04	8.421674538e-12
-7.400000000e-03	1.339347411e-01	-4.705971753e-04	1.382562574e-11
-7.500000000e-03	1.339347477e-01	-4.692329250e-04	8.539057641e-12
-7.600000000e-03	1.339347542e-01	-4.678686741e-04	5.778225795e-11
-7.700000000e-03	1.339347608e-01	-4.665044225e-04	3.874206476e-11
-7.800000000e-03	1.339347672e-01	-4.651401703e-04	2.539551707e-11
-7.900000000e-03	1.339347737e-01	-4.637759174e-04	2.096123510e-11
-8.000000000e-03	1.339347800e-01	-4.624116639e-04	1.919894084e-11
-8.100000000e-03	1.339347864e-01	-4.610474097e-04	9.726705741e-12
-8.200000000e-03	1.339347927e-01	-4.596831549e-04	8.338534556e-12
-8.300000000e-03	1.339347990e-01	-4.583188994e-04	1.449826214e-11
-8.400000000e-03	1.339348052e-01	-4.569546433e-04	7.392934483e-12
-8.500000000e-03	1.339348114e-01	-4.555903866e-04	8.028562978e-12
-8.600000000e-03	1.339348176e-01	-4.542261292e-04	5.585922595e-11
-8.700000000e-03	1.339348237e-01	-4.528618712e-04	1.066433217e-10
-8.800000000e-03	1.339348298e-01	-4.514976126e-04	1.071609044e-11
-8.900000000e-03	1.339348358e-01	-4.501333533e-04	2.023280048e-11
-9.000000000e-03	1.339348418e-01	-4.487690934e-04	1.455454439e-11
-9.100000000e-03	1.339348477e-01	-4.474048329e-04	3.576898873e-11
-9.200000000e-03	1.339348537e-01	-4.460405718e-04	1.489597352e-11
-9.300000000e-03	1.339348595e-01	-4.446763101e-04	1.865795603e-11
-9.400000000e-03	1.339348654e-01	-4.433120477e-04	2.849027683e-11
-9.500000000e-03	1.339348712e-01	-4.419477848e-04	1.666258262e-12
-9.600000000e-03	1.339348769e-01	-4.405835212e-04	1.053433944e-11
-9.700000000e-03	1.339348826e-01	-4.392192571e-04	1.889162198e-11
-9.800000000e-03	1.339348883e-01	-4.378549923e-04	1.341021945e-10
-9.900000000e-03	1.339348939e-01	-4.364907270e-04	2.078441925e-11
-1.000000000e-02	1.339348995e-01	-4.351264610e-04	1.076790152e-11
-1.010000000e-02	1.339349051e-01	-4.337621944e-04	6.945753946e-11
-1.020000000e-02	1.339349106e-01	-4.323979273e-04	3.659649885e-12
-1.030000000e-02	1.339349161e-01	-4.310336596e-04	2.911547583e-12
-1.040000000e-02	1.339349215e-01	-4.296693913e-04	2.767922550e-11
-1.050000000e-02	1.339349269e-01	-4.283051224e-04	8.193525346e-12
-1.060000000e-02	1.339349323e-01	-4.269408529e-04	8.848443702e-12
-1.070000000e-02	1.339349376e-01	-4.255765828e-04	5.672917616e-12
-1.080000000e-02	1.339349429e-01	-4.242123122e-04	4.036623461e-12
-1.090000000e-02	1.339349481e-01	-4.228480410e-04	1.645564556e-11
-1.110000000e-02	1.339349585e-01	-4.201194968e-04	6.956267759e-12
-1.120000000e-02	1.339349636e-01	-4.187552239e-04	2.133722088e-11
-1.130000000e-02	1.339349687e-01	-4.173909505e-04	3.770072556e-12
-1.140000000e-02	1.339349737e-01	-4.160266764e-04	5.230558551e-12
-1.150000000e-02	1.339349787e-01	-4.146624018e-04	4.852853539e-11
-1.160000000e-02	1.339349837e-01	-4.132981267e-04	3.208528319e-12
-1.170000000e-02	1.339349886e-01	-4.119338510e-04	4.966714033e-11
-1.180000000e-02	1.339349935e-01	-4.105695747e-04	1.592517344e-11
-1.190000000e-02	1.339349983e-01	-4.092052979e-04	1.809471272e-11
-1.200000000e-02	1.339350031e-01	-4.078410206e-04	1.572131520e-11
-1.210000000e-02	1.339350079e-01	-4.064767427e-04	9.253164202e-12
-1.220000000e-02	1.339350126e-01	-4.051124643e-04	5.532696956e-11
-1.230000000e-02	1.339350173e-01	-4.037481853e-04	1.350120141e-11
-1.240000000e-02	1.339350219e-01	-4.023839058e-04	1.692050141e-11
-1.250000000e-02	1.339350265e-01	-4.010196258e-04	1.847290700e-11
-1.260000000e-02	1.339350311e-01	-3.996553452e-04	1.509569449e-11
-1.270000000e-02	1.339350356e-01	-3.982910642e-04	6.835673832e-11
-1.280000000e-02	1.339350401e-01	-3.969267825e-04	1.247383379e-11
-1.290000000e-02	1.339350445e-01	-3.955625004e-04	3.189028146e-11
-1.300000000e-02	1.339350489e-01	-3.941982178e-04	3.451344841e-11
-1.310000000e-02	1.339350533e-01	-3.928339346e-04	1.192524027e-11
-1.320000000e-02	1.339350576e-01	-3.914696509e-04	2.538103762e-11
-1.330000000e-02	1.339350619e-01	-3.901053667e-04	2.450743779e-11
-1.340000000e-02	1.339350661e-01	-3.887410821e-04	1.098885176e-11
-1.350000000e-02	1.339350703e-01	-3.873767969e-04	7.730338183e-12
-1.360000000e-02	1.339350745e-01	-3.860125112e-04	1.619935081e-10
-1.370000000e-02	1.339350786e-01	-3.846482249e-04	1.521739755e-11
-1.380000000e-02	1.339350827e-01	-3.832839382e-04	2.032673515e-11
-1.390000000e-02	1.339350867e-01	-3.819196510e-04	1.224763467e-10
-1.400000000e-02	1.339350907e-01	-3.805553634e-04	2.730863144e-11
-1.410000000e-02	1.339350947e-01	-3.791910752e-04	1.343877442e-11
-1.420000000e-02	1.339350986e-01	-3.778267865e-04	1.472723485e-11
-1.430000000e-02	1.339351025e-01	-3.764624974e-04	1.318144095e-11
-1.440000000e-02	1.339351063e-01	-3.750982077e-04	2.625983879e-11
-1.450000000e-02	1.339351101e-01	-3.737339176e-04	1.876254442e-11
-1.460000000e-02	1.339351139e-01	-3.723696270e-04	1.991090249e-11
-1.470000000e-02	1.339351176e-01	-3.710053359e-04	1.238925156e-11
-1.480000000e-02	1.339351213e-01	-3.696410444e-04	3.080360609e-11
-1.490000000e-02	1.339351250e-01	-3.682767524e-04	5.741719838e-12
-1.500000000e-02	1.339351286e-01	-3.669124599e-04	3.089864533e-12
-1.510000000e-02	1.339351321e-01	-3.655481670e-04	2.515400656e-12
-1.520000000e-02	1.339351357e-01	-3.641838736e-04	1.185564025e-11
-1.530000000e-02	1.339351391e-01	-3.628195797e-04	3.119571873e-11
-1.540000000e-02	1.339351426e-01	-3.614552854e-04	4.354124677e-11
-1.550000000e-02	1.339351460e-01	-3.600909906e-04	1.477300875e-11
-1.560000000e-02	1.339351494e-01	-3.587266954e-04	6.027918237e-12
-1.570000000e-02	1.339351527e-01	-3.573623997e-04	6.341102382e-12
-1.580000000e-02	1.339351560e-01	-3.559981036e-04	5.085415682e-12
-1.590000000e-02	1.339351592e-01	-3.546338071e-04	7.188986379e-12
-1.600000000e-02	1.339351624e-01	-3.532695101e-04	1.596823614e-11
-1.610000000e-02	1.339351656e-01	-3.519052126e-04	7.673891317e-12
-1.620000000e-02	1.339351687e-01	-3.505409148e-04	3.029660655e-11
-1.630000000e-02	1.339351718e-01	-3.491766165e-04	1.658810807e-11
-1.640000000e-02	1.339351748e-01	-3.478123177e-04	1.684439392e-12
-1.650000000e-02	1.339351779e-01	-3.464480186e-04	1.227648550e-11
-1.660000000e-02	1.339351808e-01	-3.450837190e-04	1.800809016e-11
-1.670000000e-02	1.339351837e-01	-3.437194189e-04	2.432030912e-11
-1.680000000e-02	1.339351866e-01	-3.423551185e-04	4.212384043e-12
-1.690000000e-02	1.339351895e-01	-3.409908177e-04	2.786562892e-11
-1.700000000e-02	1.339351923e-01	-3.396265164e-04	8.329528611e-12
-1.710000000e-02	1.339351951e-01	-3.382622147e-04	4.934136834e-12
-1.720000000e-02	1.339351978e-01	-3.368979126e-04	3.890662332e-12
-1.730000000e-02	1.339352005e-01	-3.355336101e-04	6.236832770e-12
-1.740000000e-02	1.339352031e-01	-3.341693072e-04	1.394852614e-11
-1.750000000e-02	1.339352057e-01	-3.328050039e-04	2.652532237e-12
-1.760000000e-02	1.339352083e-01	-3.314407002e-04	1.378668228e-11
-1.770000000e-02	1.339352108e-01	-3.300763961e-04	7.835886302e-12
-1.780000000e-02	1.339352133e-01	-3.287120916e-04	4.959678256e-11
-1.790000000e-02	1.339352158e-01	-3.273477868e-04	2.642717317e-11
-1.800000000e-02	1.339352182e-01	-3.259834815e-04	4.347611349e-11
-1.810000000e-02	1.339352206e-01	-3.246191758e-04	3.570670692e-12
-1.820000000e-02	1.339352229e-01	-3.232548698e-04	9.036400533e-12
-1.830000000e-02	1.339352252e-01	-3.218905634e-04	2.129207216e-11
-1.840000000e-02	1.339352274e-01	-3.205262566e-04	2.015582397e-11
-1.850000000e-02	1.339352296e-01	-3.191619494e-04	1.554484579e-11
-1.860000000e-02	1.339352318e-01	-3.177976418e-04	4.235672560e-12
-1.870000000e-02	1.339352339e-01	-3.164333339e-04	2.335438295e-11
-1.880000000e-02	1.339352360e-01	-3.150690256e-04	2.490737150e-11
-1.890000000e-02	1.339352381e-01	-3.137047170e-04	4.423853354e-12
-1.900000000e-02	1.339352401e-01	-3.123404080e-04	2.753292953e-11
-1.910000000e-02	1.339352421e-01	-3.109760986e-04	3.612057809e-12
-1.920000000e-02	1.339352440e-01	-3.096117888e-04	6.381354789e-11
-1.930000000e-02	1.339352459e-01	-3.082474787e-04	1.479750202e-11
-1.940000000e-02	1.339352477e-01	-3.068831683e-04	1.647764673e-11
-1.950000000e-02	1.339352495e-01	-3.055188575e-04	1.440941334e-11
-1.960000000e-02	1.339352513e-01	-3.041545464e-04	3.033542454e-12
-1.970000000e-02	1.339352531e-01	-3.027902349e-04	3.213191099e-11
-1.980000000e-02	1.339352547e-01	-3.014259231e-04	1.486815500e-11
-1.990000000e-02	1.339352564e-01	-3.000616109e-04	9.783188063e-12
-2.000000000e-02	1.339352580e-01	-2.986972984e-04	1.127333842e-11
-2.010000000e-02	1.339352596e-01	-2.973329855e-04	1.000475544e-11
-2.020000000e-02	1.339352611e-01	-2.959686724e-04	1.450695024e-12
-2.030000000e-02	1.339352626e-01	-2.946043589e-04	2.225387867e-11
-2.040000000e-02	1.339352641e-01	-2.932400450e-04	4.920323565e-12
-2.050000000e-02	1.339352655e-01	-2.918757309e-04	6.471610936e-12
-2.060000000e-02	1.339352669e-01	-2.905114164e-04	1.434154144e-11
-2.070000000e-02	1.339352682e-01	-2.891471016e-04	2.598361387e-11
-2.090000000e-02	1.339352707e-01	-2.864184711e-04	2.756589011e-11
-2.100000000e-02	1.339352720e-01	-2.850541554e-04	1.720292656e-11
-2.110000000e-02	1.339352731e-01	-2.836898393e-04	7.005122230e-12
-2.120000000e-02	1.339352743e-01	-2.823255230e-04	3.813684534e-12
-2.130000000e-02	1.339352754e-01	-2.809612063e-04	2.506190407e-11
-2.140000000e-02	1.339352764e-01	-2.795968894e-04	2.580612530e-11
-2.150000000e-02	1.339352774e-01	-2.782325721e-04	1.998798040e-11
-2.160000000e-02	1.339352784e-01	-2.768682546e-04	6.177115963e-12
-2.170000000e-02	1.339352793e-01	-2.755039368e-04	2.328011018e-11
-2.180000000e-02	1.339352802e-01	-2.741396186e-04	1.959067017e-11
-2.190000000e-02	1.339352811e-01	-2.727753002e-04	5.276419403e-12
-2.200000000e-02	1.339352819e-01	-2.714109815e-04	1.237852638e-11
-2.210000000e-02	1.339352827e-01	-2.700466626e-04	3.888906575e-11
-2.220000000e-02	1.339352834e-01	-2.686823433e-04	3.959386660e-11
-2.230000000e-02	1.339352841e-01	-2.673180238e-04	4.623286411e-12
-2.240000000e-02	1.339352848e-01	-2.659537039e-04	2.889735297e-11
-2.250000000e-02	1.339352854e-01	-2.645893839e-04	2.685259288e-11
-2.260000000e-02	1.339352860e-01	-2.632250635e-04	4.041358434e-11
-2.270000000e-02	1.339352865e-01	-2.618607429e-04	1.381660697e-11
-2.280000000e-02	1.339352870e-01	-2.604964220e-04	1.416817423e-11
-2.290000000e-02	1.339352875e-01	-2.591321009e-04	2.468004971e-11
-2.300000000e-02	1.339352879e-01	-2.577677794e-04	2.566341138e-11
-2.310000000e-02	1.339352883e-01	-2.564034578e-04	1.065110570e-10
-2.320000000e-02	1.339352886e-01	-2.550391359e-04	8.720124706e-12
-2.330000000e-02	1.339352889e-01	-2.536748137e-04	7.625227530e-12
-2.340000000e-02	1.339352892e-01	-2.523104913e-04	9.527366812e-12
-2.350000000e-02	1.339352894e-01	-2.509461686e-04	3.775629009e-11
-2.360000000e-02	1.339352896e-01	-2.495818457e-04	1.925081324e-11
-2.370000000e-02	1.339352897e-01	-2.482175226e-04	7.603619139e-12
-2.380000000e-02	1.339352898e-01	-2.468531992e-04	2.850023387e-11
-2.390000000e-02	1.339352899e-01	-2.454888756e-04	7.864742863e-11
-2.400000000e-02	1.339352899e-01	-2.441245517e-04	5.737347952e-11
-2.410000000e-02	1.339352899e-01	-2.427602276e-04	7.114693399e-12
-2.420000000e-02	1.339352898e-01	-2.413959033e-04	2.138698759e-11
-2.430000000e-02	1.339352897e-01	-2.400315788e-04	4.353985245e-11
-2.440000000e-02	1.339352896e-01	-2.386672540e-04	2.544890146e-11
-2.450000000e-02	1.339352894e-01	-2.373029291e-04	7.919898163e-12
-2.460000000e-02	1.339352892e-01	-2.359386039e-04	2.122102798e-11
-2.470000000e-02	1.339352889e-01	-2.345742785e-04	4.356911896e-12
-2.480000000e-02	1.339352886e-01	-2.332099528e-04	2.399201520e-11
-2.490000000e-02	1.339352883e-01	-2.318456270e-04	4.160676506e-12
-2.500000000e-02	1.339352879e-01	-2.304813010e-04	2.442185777e-12
-2.510000000e-02	1.339352875e-01	-2.291169747e-04	3.607067393e-12
-2.530000000e-02	1.339352865e-01	-2.263883216e-04	5.393662513e-11
-2.540000000e-02	1.339352860e-01	-2.250239948e-04	7.713886249e-12
-2.550000000e-02	1.339352854e-01	-2.236596678e-04	1.155519597e-10
-2.560000000e-02	1.339352848e-01	-2.222953405e-04	1.585036279e-11
-2.570000000e-02	1.339352841e-01	-2.209310131e-04	6.142688719e-12
-2.580000000e-02	1.339352834e-01	-2.195666855e-04	3.632811435e-11
-2.590000000e-02	1.339352827e-01	-2.182023577e-04	4.649871234e-11
-2.600000000e-02	1.339352819e-01	-2.168380298e-04	1.177085680e-11
-2.610000000e-02	1.339352811e-01	-2.154737016e-04	2.642279794e-11
-2.620000000e-02	1.339352802e-01	-2.141093733e-04	2.283684444e-11
-2.630000000e-02	1.339352793e-01	-2.127450448e-04	7.326731752e-12
-2.640000000e-02	1.339352784e-01	-2.113807162e-04	1.726000746e-11
-2.650000000e-02	1.339352774e-01	-2.100163873e-04	2.150328236e-11
-2.660000000e-02	1.339352764e-01	-2.086520583e-04	6.366765733e-11
-2.670000000e-02	1.339352754e-01	-2.072877292e-04	2.020788261e-11
-2.680000000e-02	1.339352743e-01	-2.059233999e-04	1.693732421e-11
-2.690000000e-02	1.339352731e-01	-2.045590704e-04	2.682543054e-11
-2.700000000e-02	1.339352720e-01	-2.031947408e-04	3.916294523e-12
-2.710000000e-02	1.339352707e-01	-2.018304110e-04	4.371063119e-11
-2.720000000e-02	1.339352695e-01	-2.004660810e-04	6.519952445e-12
-2.730000000e-02	1.339352682e-01	-1.991017510e-04	2.443765309e-12
-2.740000000e-02	1.339352669e-01	-1.977374207e-04	1.397608167e-11
-2.750000000e-02	1.339352655e-01	-1.963730904e-04	2.054103124e-11
-2.760000000e-02	1.339352641e-01	-1.950087599e-04	8.114706994e-12
-2.770000000e-02	1.339352626e-01	-1.936444292e-04	2.636134806e-11
-2.780000000e-02	1.339352611e-01	-1.922800984e-04	1.030530772e-11
-2.790000000e-02	1.339352596e-01	-1.909157675e-04	7.332148917e-12
-2.800000000e-02	1.339352580e-01	-1.895514365e-04	3.373328281e-11
-2.810000000e-02	1.339352564e-01	-1.881871053e-04	2.762000965e-11
-2.820000000e-02	1.339352548e-01	-1.868227740e-04	8.443652561e-12
-2.830000000e-02	1.339352531e-01	-1.854584426e-04	2.531258842e-11
-2.840000000e-02	1.339352513e-01	-1.840941111e-04	1.057189422e-11
-2.850000000e-02	1.339352496e-01	-1.827297795e-04	2.650652643e-11
-2.860000000e-02	1.339352477e-01	-1.813654477e-04	2.129358965e-11
-2.870000000e-02	1.339352459e-01	-1.800011158e-04	2.147849228e-11
-2.880000000e-02	1.339352440e-01	-1.786367839e-04	9.256264509e-12
-2.890000000e-02	1.339352421e-01	-1.772724518e-04	2.343417545e-11
-2.900000000e-02	1.339352401e-01	-1.759081196e-04	1.134386200e-11
-2.920000000e-02	1.339352360e-01	-1.731794549e-04	1.109505151e-11
-2.930000000e-02	1.339352339e-01	-1.718151225e-04	2.279056424e-11
-2.940000000e-02	1.339352318e-01	-1.704507899e-04	5.742462016e-11
-2.950000000e-02	1.339352296e-01	-1.690864572e-04	9.398735912e-12
-2.960000000e-02	1.339352274e-01	-1.677221245e-04	4.534428745e-11
-2.970000000e-02	1.339352252e-01	-1.663577917e-04	2.848205756e-12
-2.980000000e-02	1.339352229e-01	-1.649934588e-04	2.496417727e-11
-2.990000000e-02	1.339352206e-01	-1.636291258e-04	5.099572146e-12
-3.000000000e-02	1.339352182e-01	-1.622647927e-04	1.243948914e-11
-3.010000000e-02	1.339352158e-01	-1.609004596e-04	1.967934723e-11
-3.020000000e-02	1.339352133e-01	-1.595361263e-04	1.125032827e-11
-3.030000000e-02	1.339352109e-01	-1.581717931e-04	9.701640511e-12
-3.040000000e-02	1.339352083e-01	-1.568074597e-04	7.520528163e-11
