# Im(epsi1)     Re(omega/c)      Im(omega/c)      Eq(det).Opt det CON kz, R=0.5 \mum, mu_c=0.3, Re(epsi1)=3.90solve_det_conkz_vs_kz.py
0.000000000e+00	1.340117892e-01	-5.037004583e-04	1.439861527e-11
-1.000000000e-04	1.340117976e-01	-5.023403117e-04	1.215037517e-11
-2.000000000e-04	1.340118058e-01	-5.009801646e-04	1.376386381e-11
-3.000000000e-04	1.340118141e-01	-4.996200170e-04	1.336887198e-11
-4.000000000e-04	1.340118223e-01	-4.982598689e-04	2.936712539e-11
-5.000000000e-04	1.340118304e-01	-4.968997204e-04	1.730167229e-11
-6.000000000e-04	1.340118385e-01	-4.955395713e-04	1.089978341e-11
-7.000000000e-04	1.340118466e-01	-4.941794218e-04	5.996706871e-12
-8.000000000e-04	1.340118546e-01	-4.928192718e-04	1.154575314e-11
-9.000000000e-04	1.340118626e-01	-4.914591213e-04	5.639167264e-11
-1.000000000e-03	1.340118706e-01	-4.900989703e-04	1.223436853e-11
-1.100000000e-03	1.340118785e-01	-4.887388188e-04	3.959233353e-11
-1.200000000e-03	1.340118863e-01	-4.873786669e-04	9.263860648e-12
-1.300000000e-03	1.340118942e-01	-4.860185145e-04	1.543079602e-11
-1.400000000e-03	1.340119019e-01	-4.846583617e-04	9.576314666e-12
-1.500000000e-03	1.340119097e-01	-4.832982083e-04	6.751904137e-12
-1.600000000e-03	1.340119174e-01	-4.819380545e-04	3.502566651e-11
-1.700000000e-03	1.340119250e-01	-4.805779003e-04	1.249882926e-11
-1.800000000e-03	1.340119327e-01	-4.792177456e-04	1.019810049e-11
-1.900000000e-03	1.340119402e-01	-4.778575904e-04	4.732130699e-11
-2.000000000e-03	1.340119478e-01	-4.764974348e-04	1.318301005e-11
-2.100000000e-03	1.340119553e-01	-4.751372787e-04	1.311029857e-11
-2.200000000e-03	1.340119627e-01	-4.737771221e-04	1.268399771e-11
-2.300000000e-03	1.340119701e-01	-4.724169651e-04	1.218393915e-11
-2.400000000e-03	1.340119775e-01	-4.710568077e-04	8.849788327e-12
-2.500000000e-03	1.340119848e-01	-4.696966498e-04	2.041829390e-11
-2.600000000e-03	1.340119921e-01	-4.683364915e-04	1.310189476e-11
-2.700000000e-03	1.340119993e-01	-4.669763327e-04	6.696374419e-12
-2.800000000e-03	1.340120066e-01	-4.656161735e-04	2.784639908e-11
-2.900000000e-03	1.340120137e-01	-4.642560139e-04	1.023976450e-11
-3.000000000e-03	1.340120208e-01	-4.628958538e-04	1.458077360e-11
-3.100000000e-03	1.340120279e-01	-4.615356933e-04	8.640163029e-12
-3.200000000e-03	1.340120350e-01	-4.601755323e-04	3.761024574e-11
-3.300000000e-03	1.340120420e-01	-4.588153710e-04	1.913320501e-11
-3.400000000e-03	1.340120489e-01	-4.574552092e-04	7.280997990e-12
-3.500000000e-03	1.340120558e-01	-4.560950469e-04	2.088780866e-11
-3.600000000e-03	1.340120627e-01	-4.547348843e-04	6.836863167e-12
-3.700000000e-03	1.340120695e-01	-4.533747212e-04	1.261354700e-11
-3.800000000e-03	1.340120763e-01	-4.520145577e-04	8.930034798e-12
-3.900000000e-03	1.340120831e-01	-4.506543938e-04	1.813230226e-11
-4.000000000e-03	1.340120898e-01	-4.492942295e-04	7.930443306e-12
-4.100000000e-03	1.340120964e-01	-4.479340647e-04	1.356054215e-11
-4.200000000e-03	1.340121031e-01	-4.465738996e-04	1.611941456e-11
-4.300000000e-03	1.340121097e-01	-4.452137340e-04	1.989618569e-11
-4.400000000e-03	1.340121162e-01	-4.438535681e-04	1.444219009e-11
-4.500000000e-03	1.340121227e-01	-4.424934017e-04	8.036878340e-12
-4.600000000e-03	1.340121292e-01	-4.411332349e-04	2.638788153e-11
-4.700000000e-03	1.340121356e-01	-4.397730678e-04	2.104218483e-11
-4.800000000e-03	1.340121420e-01	-4.384129002e-04	3.382017847e-11
-4.900000000e-03	1.340121483e-01	-4.370527322e-04	1.178627594e-11
-5.000000000e-03	1.340121546e-01	-4.356925639e-04	4.253823144e-11
-5.100000000e-03	1.340121608e-01	-4.343323951e-04	1.153588404e-11
-5.200000000e-03	1.340121671e-01	-4.329722260e-04	1.649791614e-11
-5.300000000e-03	1.340121732e-01	-4.316120565e-04	1.533768688e-11
-5.400000000e-03	1.340121794e-01	-4.302518866e-04	1.007855945e-11
-5.500000000e-03	1.340121854e-01	-4.288917163e-04	1.007897660e-11
-5.600000000e-03	1.340121915e-01	-4.275315456e-04	2.135056819e-11
-5.700000000e-03	1.340121975e-01	-4.261713745e-04	8.609840437e-12
-5.800000000e-03	1.340122035e-01	-4.248112031e-04	8.208714152e-12
-5.900000000e-03	1.340122094e-01	-4.234510313e-04	3.153541911e-11
-6.000000000e-03	1.340122153e-01	-4.220908591e-04	1.193977395e-11
-6.100000000e-03	1.340122211e-01	-4.207306866e-04	1.001106902e-11
-6.200000000e-03	1.340122269e-01	-4.193705136e-04	1.571225477e-10
-6.300000000e-03	1.340122327e-01	-4.180103403e-04	7.978231343e-12
-6.400000000e-03	1.340122384e-01	-4.166501667e-04	1.968105950e-11
-6.500000000e-03	1.340122441e-01	-4.152899927e-04	1.789403713e-11
-6.600000000e-03	1.340122497e-01	-4.139298183e-04	8.536497449e-12
-6.700000000e-03	1.340122553e-01	-4.125696436e-04	7.866311094e-12
-6.800000000e-03	1.340122608e-01	-4.112094685e-04	6.832149736e-12
-6.900000000e-03	1.340122664e-01	-4.098492930e-04	1.060498992e-11
-7.000000000e-03	1.340122718e-01	-4.084891172e-04	1.711994731e-11
-7.100000000e-03	1.340122773e-01	-4.071289411e-04	1.609276666e-11
-7.200000000e-03	1.340122826e-01	-4.057687646e-04	7.789307829e-12
-7.300000000e-03	1.340122880e-01	-4.044085878e-04	2.465356526e-11
-7.400000000e-03	1.340122933e-01	-4.030484106e-04	3.738281850e-11
-7.500000000e-03	1.340122986e-01	-4.016882330e-04	2.372931031e-10
-7.600000000e-03	1.340123038e-01	-4.003280552e-04	3.623268044e-11
-7.700000000e-03	1.340123090e-01	-3.989678770e-04	9.027229877e-12
-7.800000000e-03	1.340123141e-01	-3.976076984e-04	7.585616794e-12
-7.900000000e-03	1.340123192e-01	-3.962475195e-04	1.004492501e-11
-8.000000000e-03	1.340123242e-01	-3.948873403e-04	6.637247400e-12
-8.100000000e-03	1.340123293e-01	-3.935271608e-04	1.121837060e-11
-8.200000000e-03	1.340123342e-01	-3.921669809e-04	2.476697314e-11
-8.300000000e-03	1.340123392e-01	-3.908068008e-04	7.175711396e-12
-8.400000000e-03	1.340123441e-01	-3.894466202e-04	8.191106036e-12
-8.500000000e-03	1.340123489e-01	-3.880864394e-04	1.061930096e-11
-8.600000000e-03	1.340123537e-01	-3.867262583e-04	3.667832995e-11
-8.700000000e-03	1.340123585e-01	-3.853660768e-04	6.926785502e-12
-8.800000000e-03	1.340123632e-01	-3.840058950e-04	1.135059617e-11
-8.900000000e-03	1.340123679e-01	-3.826457129e-04	9.918837218e-12
-9.000000000e-03	1.340123725e-01	-3.812855305e-04	3.238196744e-11
-9.100000000e-03	1.340123771e-01	-3.799253478e-04	1.259468288e-11
-9.200000000e-03	1.340123817e-01	-3.785651648e-04	1.114017552e-11
-9.300000000e-03	1.340123862e-01	-3.772049815e-04	3.273391972e-11
-9.400000000e-03	1.340123907e-01	-3.758447978e-04	8.138314959e-11
-9.500000000e-03	1.340123951e-01	-3.744846139e-04	1.342357150e-11
-9.600000000e-03	1.340123995e-01	-3.731244297e-04	6.953067629e-12
-9.700000000e-03	1.340124039e-01	-3.717642452e-04	7.949246248e-12
-9.800000000e-03	1.340124082e-01	-3.704040603e-04	1.179359921e-11
-9.900000000e-03	1.340124125e-01	-3.690438752e-04	2.735911896e-11
-1.000000000e-02	1.340124167e-01	-3.676836898e-04	5.168281222e-11
-1.010000000e-02	1.340124209e-01	-3.663235042e-04	6.986248764e-12
-1.020000000e-02	1.340124250e-01	-3.649633182e-04	1.576066050e-11
-1.030000000e-02	1.340124291e-01	-3.636031319e-04	1.385673924e-11
-1.040000000e-02	1.340124332e-01	-3.622429454e-04	5.748167767e-12
-1.050000000e-02	1.340124372e-01	-3.608827586e-04	1.260783251e-11
-1.060000000e-02	1.340124412e-01	-3.595225715e-04	1.045443526e-11
-1.070000000e-02	1.340124452e-01	-3.581623841e-04	8.181688105e-12
-1.080000000e-02	1.340124491e-01	-3.568021965e-04	1.154679805e-11
-1.090000000e-02	1.340124529e-01	-3.554420086e-04	1.399456485e-11
-1.100000000e-02	1.340124567e-01	-3.540818204e-04	1.788510217e-11
-1.110000000e-02	1.340124605e-01	-3.527216320e-04	2.766776562e-11
-1.120000000e-02	1.340124642e-01	-3.513614433e-04	1.477050821e-11
-1.130000000e-02	1.340124679e-01	-3.500012543e-04	1.511124592e-11
-1.140000000e-02	1.340124716e-01	-3.486410650e-04	9.500224042e-12
-1.150000000e-02	1.340124752e-01	-3.472808756e-04	9.604151523e-12
-1.160000000e-02	1.340124788e-01	-3.459206858e-04	1.333745832e-11
-1.170000000e-02	1.340124823e-01	-3.445604958e-04	2.501085685e-11
-1.180000000e-02	1.340124858e-01	-3.432003055e-04	1.558417712e-11
-1.190000000e-02	1.340124892e-01	-3.418401150e-04	5.369064009e-12
-1.200000000e-02	1.340124926e-01	-3.404799243e-04	7.594948511e-12
-1.210000000e-02	1.340124960e-01	-3.391197333e-04	1.054165329e-11
-1.220000000e-02	1.340124993e-01	-3.377595420e-04	4.814341662e-11
-1.230000000e-02	1.340125026e-01	-3.363993506e-04	1.530747824e-11
-1.240000000e-02	1.340125058e-01	-3.350391588e-04	9.401696620e-12
-1.250000000e-02	1.340125090e-01	-3.336789669e-04	1.117902478e-11
-1.260000000e-02	1.340125122e-01	-3.323187747e-04	1.032066274e-11
-1.270000000e-02	1.340125153e-01	-3.309585823e-04	1.192987677e-11
-1.280000000e-02	1.340125184e-01	-3.295983896e-04	2.340857289e-11
-1.290000000e-02	1.340125214e-01	-3.282381967e-04	3.209718150e-11
-1.300000000e-02	1.340125244e-01	-3.268780036e-04	8.267210909e-12
-1.310000000e-02	1.340125274e-01	-3.255178102e-04	3.363897579e-11
-1.320000000e-02	1.340125303e-01	-3.241576167e-04	4.843667822e-11
-1.330000000e-02	1.340125331e-01	-3.227974229e-04	1.463999949e-11
-1.340000000e-02	1.340125360e-01	-3.214372289e-04	1.404593315e-11
-1.350000000e-02	1.340125387e-01	-3.200770347e-04	1.322591286e-11
-1.360000000e-02	1.340125415e-01	-3.187168402e-04	1.584109240e-11
-1.370000000e-02	1.340125442e-01	-3.173566456e-04	1.078751650e-11
-1.380000000e-02	1.340125469e-01	-3.159964507e-04	9.704900414e-12
-1.390000000e-02	1.340125495e-01	-3.146362556e-04	1.994860304e-11
-1.400000000e-02	1.340125521e-01	-3.132760604e-04	1.502110236e-11
-1.410000000e-02	1.340125546e-01	-3.119158649e-04	1.085272435e-11
-1.420000000e-02	1.340125571e-01	-3.105556692e-04	1.118478903e-11
-1.430000000e-02	1.340125595e-01	-3.091954733e-04	1.000880312e-11
-1.440000000e-02	1.340125620e-01	-3.078352772e-04	8.250521358e-12
-1.450000000e-02	1.340125643e-01	-3.064750810e-04	8.052232353e-12
-1.460000000e-02	1.340125667e-01	-3.051148845e-04	9.140080209e-12
-1.470000000e-02	1.340125689e-01	-3.037546878e-04	4.966171854e-11
-1.480000000e-02	1.340125712e-01	-3.023944910e-04	8.683245249e-12
-1.490000000e-02	1.340125734e-01	-3.010342939e-04	1.682743876e-11
-1.500000000e-02	1.340125756e-01	-2.996740967e-04	2.345811743e-11
-1.510000000e-02	1.340125777e-01	-2.983138993e-04	1.097205455e-11
-1.520000000e-02	1.340125798e-01	-2.969537017e-04	9.642956595e-12
-1.530000000e-02	1.340125818e-01	-2.955935040e-04	5.092436108e-11
-1.540000000e-02	1.340125838e-01	-2.942333060e-04	2.387796564e-11
-1.550000000e-02	1.340125858e-01	-2.928731079e-04	1.615705358e-11
-1.560000000e-02	1.340125877e-01	-2.915129096e-04	3.196961862e-11
-1.570000000e-02	1.340125896e-01	-2.901527111e-04	8.164987388e-12
-1.580000000e-02	1.340125914e-01	-2.887925125e-04	1.966933366e-11
-1.590000000e-02	1.340125932e-01	-2.874323137e-04	8.828130548e-12
-1.600000000e-02	1.340125949e-01	-2.860721147e-04	8.864984873e-12
-1.610000000e-02	1.340125967e-01	-2.847119156e-04	1.583727235e-11
-1.620000000e-02	1.340125983e-01	-2.833517163e-04	2.972392369e-11
-1.630000000e-02	1.340126000e-01	-2.819915169e-04	8.958070341e-12
-1.640000000e-02	1.340126015e-01	-2.806313173e-04	1.013027085e-11
-1.650000000e-02	1.340126031e-01	-2.792711175e-04	3.261413915e-11
-1.660000000e-02	1.340126046e-01	-2.779109176e-04	1.173998270e-11
-1.670000000e-02	1.340126061e-01	-2.765507176e-04	1.111746898e-11
-1.680000000e-02	1.340126075e-01	-2.751905174e-04	1.038338076e-11
-1.690000000e-02	1.340126089e-01	-2.738303170e-04	8.925627561e-12
-1.700000000e-02	1.340126102e-01	-2.724701165e-04	8.568071596e-12
-1.710000000e-02	1.340126115e-01	-2.711099159e-04	7.475992105e-12
-1.720000000e-02	1.340126128e-01	-2.697497151e-04	9.541867202e-12
-1.730000000e-02	1.340126140e-01	-2.683895142e-04	8.449708865e-12
-1.740000000e-02	1.340126151e-01	-2.670293131e-04	1.281717619e-11
-1.750000000e-02	1.340126163e-01	-2.656691119e-04	1.963602317e-11
-1.760000000e-02	1.340126174e-01	-2.643089106e-04	9.491785877e-12
-1.770000000e-02	1.340126184e-01	-2.629487092e-04	7.246178231e-12
-1.780000000e-02	1.340126194e-01	-2.615885076e-04	1.114048961e-11
-1.790000000e-02	1.340126204e-01	-2.602283059e-04	4.175118542e-11
-1.800000000e-02	1.340126213e-01	-2.588681041e-04	7.260186992e-12
-1.810000000e-02	1.340126222e-01	-2.575079022e-04	9.956356276e-12
-1.820000000e-02	1.340126230e-01	-2.561477001e-04	8.831332948e-12
-1.830000000e-02	1.340126239e-01	-2.547874979e-04	1.344971151e-11
-1.840000000e-02	1.340126246e-01	-2.534272956e-04	1.142065510e-11
-1.850000000e-02	1.340126253e-01	-2.520670932e-04	2.299699876e-11
-1.860000000e-02	1.340126260e-01	-2.507068907e-04	9.526687770e-12
-1.870000000e-02	1.340126266e-01	-2.493466881e-04	2.351201280e-11
-1.880000000e-02	1.340126272e-01	-2.479864854e-04	2.277402929e-11
-1.890000000e-02	1.340126278e-01	-2.466262825e-04	5.474997963e-12
-1.900000000e-02	1.340126283e-01	-2.452660796e-04	1.612206307e-11
-1.910000000e-02	1.340126288e-01	-2.439058766e-04	1.285066394e-11
-1.920000000e-02	1.340126292e-01	-2.425456734e-04	1.142304208e-11
-1.930000000e-02	1.340126296e-01	-2.411854702e-04	8.243650020e-12
-1.940000000e-02	1.340126300e-01	-2.398252669e-04	2.295799971e-11
-1.950000000e-02	1.340126303e-01	-2.384650635e-04	8.799042539e-12
-1.960000000e-02	1.340126305e-01	-2.371048600e-04	1.260045470e-11
-1.970000000e-02	1.340126307e-01	-2.357446564e-04	7.666613842e-12
-1.980000000e-02	1.340126309e-01	-2.343844527e-04	9.574940440e-12
-1.990000000e-02	1.340126311e-01	-2.330242490e-04	1.586002163e-11
-2.000000000e-02	1.340126312e-01	-2.316640451e-04	6.163481041e-12
-2.010000000e-02	1.340126312e-01	-2.303038412e-04	6.099305407e-11
-2.020000000e-02	1.340126312e-01	-2.289436372e-04	1.348738566e-11
-2.030000000e-02	1.340126312e-01	-2.275834331e-04	2.697024560e-11
-2.040000000e-02	1.340126312e-01	-2.262232290e-04	2.577316652e-11
-2.050000000e-02	1.340126311e-01	-2.248630248e-04	2.731675402e-11
-2.060000000e-02	1.340126309e-01	-2.235028205e-04	7.345812860e-12
-2.070000000e-02	1.340126307e-01	-2.221426161e-04	2.087655193e-11
-2.080000000e-02	1.340126305e-01	-2.207824117e-04	1.289825340e-11
-2.090000000e-02	1.340126302e-01	-2.194222072e-04	1.463818444e-11
-2.100000000e-02	1.340126299e-01	-2.180620027e-04	2.153749773e-11
-2.110000000e-02	1.340126295e-01	-2.167017981e-04	8.139002997e-12
-2.120000000e-02	1.340126292e-01	-2.153415935e-04	1.112117584e-11
-2.130000000e-02	1.340126287e-01	-2.139813888e-04	1.062455721e-11
-2.140000000e-02	1.340126282e-01	-2.126211840e-04	1.402572831e-11
-2.150000000e-02	1.340126277e-01	-2.112609792e-04	2.612983041e-11
-2.160000000e-02	1.340126272e-01	-2.099007743e-04	1.230591930e-11
-2.170000000e-02	1.340126266e-01	-2.085405694e-04	1.508074159e-11
-2.180000000e-02	1.340126259e-01	-2.071803645e-04	9.181534532e-12
-2.190000000e-02	1.340126252e-01	-2.058201595e-04	9.065233032e-12
-2.200000000e-02	1.340126245e-01	-2.044599545e-04	3.380863971e-11
-2.210000000e-02	1.340126237e-01	-2.030997494e-04	1.623757577e-11
-2.220000000e-02	1.340126229e-01	-2.017395443e-04	2.535765304e-11
-2.230000000e-02	1.340126221e-01	-2.003793392e-04	1.593485985e-11
-2.240000000e-02	1.340126212e-01	-1.990191340e-04	1.335295597e-11
-2.250000000e-02	1.340126203e-01	-1.976589288e-04	1.373682321e-11
-2.260000000e-02	1.340126193e-01	-1.962987236e-04	3.880978490e-11
-2.270000000e-02	1.340126183e-01	-1.949385184e-04	1.771523036e-11
-2.280000000e-02	1.340126172e-01	-1.935783131e-04	1.605183054e-10
-2.290000000e-02	1.340126161e-01	-1.922181078e-04	7.100637935e-12
-2.300000000e-02	1.340126150e-01	-1.908579025e-04	1.741692975e-11
-2.310000000e-02	1.340126138e-01	-1.894976972e-04	2.149717634e-11
-2.320000000e-02	1.340126126e-01	-1.881374918e-04	1.068786625e-11
-2.330000000e-02	1.340126113e-01	-1.867772865e-04	8.438402226e-12
-2.340000000e-02	1.340126100e-01	-1.854170811e-04	7.044260451e-12
-2.350000000e-02	1.340126087e-01	-1.840568758e-04	1.769808042e-11
-2.360000000e-02	1.340126073e-01	-1.826966704e-04	1.154619984e-11
-2.370000000e-02	1.340126058e-01	-1.813364650e-04	8.133925522e-12
-2.380000000e-02	1.340126044e-01	-1.799762596e-04	1.153611869e-11
-2.390000000e-02	1.340126029e-01	-1.786160542e-04	1.605099142e-11
-2.400000000e-02	1.340126013e-01	-1.772558489e-04	2.221979984e-11
-2.410000000e-02	1.340125997e-01	-1.758956435e-04	9.195235883e-12
-2.420000000e-02	1.340125981e-01	-1.745354381e-04	1.294048992e-11
-2.430000000e-02	1.340125964e-01	-1.731752328e-04	1.707223440e-11
-2.440000000e-02	1.340125947e-01	-1.718150274e-04	2.700031809e-11
-2.450000000e-02	1.340125929e-01	-1.704548221e-04	2.223060256e-11
-2.460000000e-02	1.340125911e-01	-1.690946167e-04	8.318835999e-12
-2.470000000e-02	1.340125893e-01	-1.677344114e-04	7.622294004e-12
-2.480000000e-02	1.340125874e-01	-1.663742061e-04	1.211322026e-11
-2.490000000e-02	1.340125855e-01	-1.650140009e-04	1.402392348e-11
-2.500000000e-02	1.340125835e-01	-1.636537956e-04	1.136282572e-11
-2.510000000e-02	1.340125815e-01	-1.622935904e-04	1.095357814e-11
-2.520000000e-02	1.340125795e-01	-1.609333852e-04	7.742738193e-12
-2.530000000e-02	1.340125774e-01	-1.595731801e-04	1.721412956e-11
-2.540000000e-02	1.340125753e-01	-1.582129749e-04	1.937244853e-11
-2.550000000e-02	1.340125731e-01	-1.568527698e-04	2.836677273e-11
-2.560000000e-02	1.340125709e-01	-1.554925648e-04	4.935120943e-11
-2.570000000e-02	1.340125686e-01	-1.541323598e-04	1.548562983e-11
-2.580000000e-02	1.340125663e-01	-1.527721548e-04	2.617037959e-11
-2.590000000e-02	1.340125640e-01	-1.514119498e-04	9.305800479e-12
-2.600000000e-02	1.340125616e-01	-1.500517449e-04	1.175150149e-11
-2.610000000e-02	1.340125592e-01	-1.486915401e-04	1.026174064e-11
-2.620000000e-02	1.340125567e-01	-1.473313353e-04	3.329234100e-11
-2.630000000e-02	1.340125542e-01	-1.459711305e-04	2.330694166e-11
-2.640000000e-02	1.340125517e-01	-1.446109258e-04	4.976610104e-11
-2.650000000e-02	1.340125491e-01	-1.432507212e-04	1.387320930e-11
-2.660000000e-02	1.340125465e-01	-1.418905166e-04	5.994994281e-12
-2.670000000e-02	1.340125438e-01	-1.405303120e-04	1.530603159e-11
-2.680000000e-02	1.340125411e-01	-1.391701076e-04	1.071017417e-11
-2.690000000e-02	1.340125383e-01	-1.378099032e-04	2.332422890e-11
-2.700000000e-02	1.340125356e-01	-1.364496988e-04	2.038217729e-11
-2.710000000e-02	1.340125327e-01	-1.350894945e-04	1.521604689e-11
-2.720000000e-02	1.340125298e-01	-1.337292903e-04	1.240305572e-11
-2.730000000e-02	1.340125269e-01	-1.323690862e-04	9.707849888e-12
-2.740000000e-02	1.340125240e-01	-1.310088821e-04	1.528971096e-11
-2.750000000e-02	1.340125210e-01	-1.296486781e-04	1.871762711e-11
-2.760000000e-02	1.340125179e-01	-1.282884742e-04	9.239621135e-12
-2.770000000e-02	1.340125149e-01	-1.269282704e-04	1.260254469e-11
-2.780000000e-02	1.340125117e-01	-1.255680666e-04	4.983211275e-12
-2.790000000e-02	1.340125086e-01	-1.242078630e-04	8.842876464e-12
-2.800000000e-02	1.340125054e-01	-1.228476594e-04	1.224075311e-11
-2.810000000e-02	1.340125021e-01	-1.214874559e-04	1.428145744e-11
-2.820000000e-02	1.340124988e-01	-1.201272525e-04	7.038821809e-12
-2.830000000e-02	1.340124955e-01	-1.187670492e-04	1.709800278e-11
-2.840000000e-02	1.340124921e-01	-1.174068459e-04	2.243875056e-11
-2.850000000e-02	1.340124887e-01	-1.160466428e-04	1.152434951e-11
-2.860000000e-02	1.340124853e-01	-1.146864398e-04	1.430855825e-11
-2.870000000e-02	1.340124818e-01	-1.133262369e-04	1.766677708e-11
-2.880000000e-02	1.340124783e-01	-1.119660340e-04	7.864375405e-12
-2.890000000e-02	1.340124747e-01	-1.106058313e-04	1.300270574e-11
-2.900000000e-02	1.340124711e-01	-1.092456287e-04	1.860286864e-11
-2.910000000e-02	1.340124674e-01	-1.078854262e-04	1.154155879e-11
-2.920000000e-02	1.340124637e-01	-1.065252238e-04	5.912296484e-12
-2.930000000e-02	1.340124600e-01	-1.051650215e-04	1.295187503e-11
-2.940000000e-02	1.340124562e-01	-1.038048194e-04	7.754752806e-11
-2.950000000e-02	1.340124524e-01	-1.024446173e-04	1.632181254e-11
-2.960000000e-02	1.340124485e-01	-1.010844154e-04	5.990826019e-12
-2.970000000e-02	1.340124446e-01	-9.972421358e-05	7.410686985e-12
-2.980000000e-02	1.340124406e-01	-9.836401189e-05	1.596837917e-11
-2.990000000e-02	1.340124366e-01	-9.700381033e-05	2.505990559e-11
-3.000000000e-02	1.340124326e-01	-9.564360890e-05	1.015700348e-11
