# Im(epsi1)     Re(omega/c)      Im(omega/c)      Eq(det).Opt det CON kz, R=0.5 \mum, mu_c=0.3, Re(epsi1)=3.90solve_det_conkz_vs_kz.py
0.000000000e+00	1.339008265e-01	-5.798294924e-04	6.718442582e-12
-1.000000000e-04	1.339008342e-01	-5.784577025e-04	1.613688604e-11
-2.000000000e-04	1.339008419e-01	-5.770859102e-04	4.570325918e-11
-4.000000000e-04	1.339008572e-01	-5.743423186e-04	4.511070236e-11
-5.000000000e-04	1.339008648e-01	-5.729705193e-04	1.677146816e-11
-6.000000000e-04	1.339008723e-01	-5.715987176e-04	9.706119076e-11
-9.000000000e-04	1.339008948e-01	-5.674832985e-04	3.407045517e-11
-1.000000000e-03	1.339009022e-01	-5.661114875e-04	8.943138745e-12
-1.100000000e-03	1.339009096e-01	-5.647396742e-04	3.662359760e-11
-1.200000000e-03	1.339009169e-01	-5.633678585e-04	6.989398237e-11
-1.400000000e-03	1.339009315e-01	-5.606242203e-04	2.570105709e-11
-1.500000000e-03	1.339009387e-01	-5.592523977e-04	2.063630368e-11
-1.600000000e-03	1.339009459e-01	-5.578805729e-04	3.891665080e-11
-1.700000000e-03	1.339009530e-01	-5.565087458e-04	2.162768845e-11
-1.800000000e-03	1.339009602e-01	-5.551369163e-04	2.352113271e-11
-1.900000000e-03	1.339009672e-01	-5.537650846e-04	4.451779713e-11
-2.000000000e-03	1.339009743e-01	-5.523932507e-04	1.266674937e-10
-2.100000000e-03	1.339009813e-01	-5.510214145e-04	7.505775382e-12
-2.200000000e-03	1.339009883e-01	-5.496495760e-04	1.269669580e-11
-2.300000000e-03	1.339009952e-01	-5.482777352e-04	2.073205500e-11
-2.600000000e-03	1.339010158e-01	-5.441621995e-04	8.368600109e-11
-2.700000000e-03	1.339010226e-01	-5.427903498e-04	4.354661174e-11
-2.800000000e-03	1.339010294e-01	-5.414184979e-04	1.145421549e-11
-2.900000000e-03	1.339010361e-01	-5.400466438e-04	1.293836076e-11
-3.200000000e-03	1.339010560e-01	-5.359310681e-04	1.002051967e-10
-3.300000000e-03	1.339010626e-01	-5.345592051e-04	2.667343616e-11
-3.400000000e-03	1.339010692e-01	-5.331873400e-04	5.276660102e-11
-3.500000000e-03	1.339010757e-01	-5.318154726e-04	2.953449109e-12
-3.600000000e-03	1.339010822e-01	-5.304436031e-04	4.464480465e-11
-3.700000000e-03	1.339010886e-01	-5.290717314e-04	6.529639595e-11
-3.800000000e-03	1.339010950e-01	-5.276998575e-04	8.689822896e-12
-3.900000000e-03	1.339011014e-01	-5.263279815e-04	7.071407675e-12
-4.100000000e-03	1.339011140e-01	-5.235842230e-04	1.462311205e-11
-4.200000000e-03	1.339011202e-01	-5.222123405e-04	3.712472976e-11
-4.300000000e-03	1.339011265e-01	-5.208404559e-04	2.266982370e-11
-4.400000000e-03	1.339011326e-01	-5.194685691e-04	5.921648388e-12
-4.600000000e-03	1.339011449e-01	-5.167247892e-04	1.978898106e-12
-4.800000000e-03	1.339011570e-01	-5.139810008e-04	1.027413119e-11
-5.000000000e-03	1.339011690e-01	-5.112372040e-04	4.661407200e-12
-5.100000000e-03	1.339011749e-01	-5.098653024e-04	3.768452385e-11
-5.300000000e-03	1.339011867e-01	-5.071214930e-04	1.882296819e-11
-5.400000000e-03	1.339011925e-01	-5.057495852e-04	5.580264907e-12
-5.500000000e-03	1.339011983e-01	-5.043776753e-04	1.075649080e-10
-5.600000000e-03	1.339012041e-01	-5.030057633e-04	1.066367894e-11
-5.700000000e-03	1.339012098e-01	-5.016338493e-04	6.880376828e-11
-5.800000000e-03	1.339012155e-01	-5.002619333e-04	4.943504915e-12
-5.900000000e-03	1.339012211e-01	-4.988900151e-04	1.578184727e-11
-6.000000000e-03	1.339012267e-01	-4.975180949e-04	4.731314990e-11
-6.100000000e-03	1.339012323e-01	-4.961461727e-04	2.327847272e-11
-6.200000000e-03	1.339012378e-01	-4.947742485e-04	8.108652436e-12
-6.300000000e-03	1.339012433e-01	-4.934023222e-04	1.989065738e-11
-6.400000000e-03	1.339012488e-01	-4.920303939e-04	3.971147813e-11
-6.500000000e-03	1.339012542e-01	-4.906584636e-04	1.986107605e-11
-6.600000000e-03	1.339012596e-01	-4.892865313e-04	4.450100220e-11
-6.700000000e-03	1.339012650e-01	-4.879145969e-04	1.016263693e-11
-6.800000000e-03	1.339012703e-01	-4.865426606e-04	2.624544651e-11
-6.900000000e-03	1.339012756e-01	-4.851707222e-04	8.334328708e-11
-7.100000000e-03	1.339012861e-01	-4.824268396e-04	2.779986080e-11
-7.300000000e-03	1.339012964e-01	-4.796829491e-04	1.041099394e-10
-7.500000000e-03	1.339013066e-01	-4.769390507e-04	7.299207055e-12
-7.600000000e-03	1.339013116e-01	-4.755670985e-04	3.093438030e-11
-7.700000000e-03	1.339013166e-01	-4.741951445e-04	3.433320130e-11
-7.800000000e-03	1.339013216e-01	-4.728231884e-04	1.216375028e-10
-7.900000000e-03	1.339013265e-01	-4.714512305e-04	9.022395799e-11
-8.000000000e-03	1.339013314e-01	-4.700792706e-04	3.841764381e-11
-8.100000000e-03	1.339013363e-01	-4.687073087e-04	8.012912220e-11
-8.200000000e-03	1.339013411e-01	-4.673353450e-04	1.999547805e-12
-8.300000000e-03	1.339013459e-01	-4.659633793e-04	4.839378339e-12
-8.400000000e-03	1.339013506e-01	-4.645914117e-04	4.529874950e-11
-9.000000000e-03	1.339013784e-01	-4.563595665e-04	4.759726713e-11
-9.100000000e-03	1.339013829e-01	-4.549875857e-04	1.821795428e-11
-9.200000000e-03	1.339013873e-01	-4.536156031e-04	1.675637794e-11
-9.300000000e-03	1.339013918e-01	-4.522436186e-04	4.644930038e-11
-9.400000000e-03	1.339013962e-01	-4.508716322e-04	6.749465689e-12
-9.500000000e-03	1.339014005e-01	-4.494996440e-04	8.882081754e-11
-9.600000000e-03	1.339014048e-01	-4.481276540e-04	4.401394057e-11
-9.700000000e-03	1.339014091e-01	-4.467556621e-04	5.455946720e-12
-9.800000000e-03	1.339014134e-01	-4.453836684e-04	5.259816151e-12
-9.900000000e-03	1.339014176e-01	-4.440116728e-04	2.768193320e-11
-1.020000000e-02	1.339014300e-01	-4.398956753e-04	1.628260100e-11
-1.030000000e-02	1.339014341e-01	-4.385236726e-04	1.074395540e-11
-1.050000000e-02	1.339014421e-01	-4.357796616e-04	1.348478850e-11
-1.060000000e-02	1.339014461e-01	-4.344076535e-04	1.631462324e-11
-1.070000000e-02	1.339014500e-01	-4.330356436e-04	1.937653667e-11
-1.080000000e-02	1.339014539e-01	-4.316636319e-04	5.536099958e-11
-1.090000000e-02	1.339014577e-01	-4.302916184e-04	1.335365990e-11
-1.100000000e-02	1.339014616e-01	-4.289196032e-04	1.202970326e-10
-1.110000000e-02	1.339014653e-01	-4.275475862e-04	3.984140678e-11
-1.120000000e-02	1.339014691e-01	-4.261755675e-04	2.311441015e-11
-1.130000000e-02	1.339014728e-01	-4.248035470e-04	2.167745385e-11
-1.140000000e-02	1.339014765e-01	-4.234315248e-04	1.954071451e-11
-1.150000000e-02	1.339014801e-01	-4.220595009e-04	4.049493954e-11
-1.160000000e-02	1.339014837e-01	-4.206874752e-04	1.477971553e-11
-1.170000000e-02	1.339014873e-01	-4.193154478e-04	2.870227321e-11
-1.180000000e-02	1.339014908e-01	-4.179434187e-04	2.643361007e-11
-1.190000000e-02	1.339014943e-01	-4.165713879e-04	1.337497010e-11
-1.200000000e-02	1.339014978e-01	-4.151993554e-04	1.222803993e-10
-1.210000000e-02	1.339015012e-01	-4.138273212e-04	1.936646500e-11
-1.220000000e-02	1.339015046e-01	-4.124552853e-04	5.696188652e-11
-1.230000000e-02	1.339015079e-01	-4.110832477e-04	1.664688391e-10
-1.240000000e-02	1.339015113e-01	-4.097112084e-04	6.845636610e-11
-1.250000000e-02	1.339015145e-01	-4.083391675e-04	4.346889035e-11
-1.260000000e-02	1.339015178e-01	-4.069671249e-04	1.375828197e-11
-1.270000000e-02	1.339015210e-01	-4.055950806e-04	3.593624806e-11
-1.280000000e-02	1.339015242e-01	-4.042230347e-04	4.947044282e-12
-1.310000000e-02	1.339015335e-01	-4.001068870e-04	8.539394636e-11
-1.320000000e-02	1.339015365e-01	-3.987348345e-04	1.042672519e-10
-1.330000000e-02	1.339015395e-01	-3.973627804e-04	2.875637849e-11
-1.340000000e-02	1.339015425e-01	-3.959907246e-04	5.535855957e-11
-1.350000000e-02	1.339015454e-01	-3.946186672e-04	1.460063231e-10
-1.360000000e-02	1.339015483e-01	-3.932466083e-04	7.696161401e-12
-1.370000000e-02	1.339015511e-01	-3.918745477e-04	1.004970631e-11
-1.380000000e-02	1.339015539e-01	-3.905024855e-04	1.260298367e-11
-1.390000000e-02	1.339015567e-01	-3.891304217e-04	4.400424950e-11
-1.400000000e-02	1.339015595e-01	-3.877583563e-04	3.489629425e-11
-1.410000000e-02	1.339015622e-01	-3.863862894e-04	2.199459042e-11
-1.420000000e-02	1.339015649e-01	-3.850142209e-04	2.876952544e-12
-1.430000000e-02	1.339015675e-01	-3.836421508e-04	1.496679490e-11
-1.440000000e-02	1.339015701e-01	-3.822700791e-04	5.746572946e-11
-1.450000000e-02	1.339015727e-01	-3.808980059e-04	5.491347507e-11
-1.460000000e-02	1.339015752e-01	-3.795259311e-04	9.533620584e-11
-1.470000000e-02	1.339015777e-01	-3.781538548e-04	1.165689588e-11
-1.480000000e-02	1.339015801e-01	-3.767817769e-04	2.562893302e-11
-1.490000000e-02	1.339015826e-01	-3.754096975e-04	5.472857531e-11
-1.510000000e-02	1.339015873e-01	-3.726655342e-04	5.651261176e-11
-1.520000000e-02	1.339015896e-01	-3.712934502e-04	1.331570510e-11
-1.550000000e-02	1.339015964e-01	-3.671771892e-04	7.267826848e-12
-1.560000000e-02	1.339015985e-01	-3.658050993e-04	1.230803652e-10
-1.570000000e-02	1.339016007e-01	-3.644330078e-04	2.179264259e-11
-1.580000000e-02	1.339016028e-01	-3.630609148e-04	1.145761315e-10
-1.590000000e-02	1.339016048e-01	-3.616888204e-04	2.671079688e-11
-1.600000000e-02	1.339016069e-01	-3.603167245e-04	1.157047195e-10
-1.610000000e-02	1.339016089e-01	-3.589446271e-04	2.851494693e-12
-1.620000000e-02	1.339016108e-01	-3.575725283e-04	8.628704863e-12
-1.640000000e-02	1.339016146e-01	-3.548283263e-04	1.867559920e-11
-1.660000000e-02	1.339016183e-01	-3.520841185e-04	3.684668644e-11
-1.680000000e-02	1.339016218e-01	-3.493399050e-04	2.387960872e-11
-1.700000000e-02	1.339016252e-01	-3.465956859e-04	9.113913635e-11
-1.710000000e-02	1.339016268e-01	-3.452235742e-04	3.032592804e-11
-1.720000000e-02	1.339016284e-01	-3.438514611e-04	3.499906590e-12
-1.740000000e-02	1.339016315e-01	-3.411072307e-04	5.283067320e-11
-1.750000000e-02	1.339016330e-01	-3.397351134e-04	1.855326621e-11
-1.770000000e-02	1.339016359e-01	-3.369908747e-04	2.989144022e-11
-1.790000000e-02	1.339016386e-01	-3.342466306e-04	1.273231126e-11
-1.810000000e-02	1.339016412e-01	-3.315023811e-04	3.830956551e-11
-1.820000000e-02	1.339016425e-01	-3.301302543e-04	1.739996625e-10
-1.840000000e-02	1.339016449e-01	-3.273859967e-04	4.082989895e-11
-1.850000000e-02	1.339016460e-01	-3.260138659e-04	1.428852122e-10
-1.860000000e-02	1.339016471e-01	-3.246417338e-04	1.213084409e-11
-1.870000000e-02	1.339016482e-01	-3.232696004e-04	1.207003840e-10
-1.880000000e-02	1.339016492e-01	-3.218974657e-04	1.301431354e-11
-1.890000000e-02	1.339016502e-01	-3.205253296e-04	3.273943556e-11
-1.900000000e-02	1.339016512e-01	-3.191531923e-04	6.290971069e-11
-1.910000000e-02	1.339016521e-01	-3.177810537e-04	5.731353881e-11
-1.920000000e-02	1.339016530e-01	-3.164089138e-04	6.466926849e-11
-1.930000000e-02	1.339016538e-01	-3.150367726e-04	1.647884394e-10
-1.940000000e-02	1.339016546e-01	-3.136646302e-04	1.177266499e-10
-1.950000000e-02	1.339016554e-01	-3.122924865e-04	1.346075513e-11
-1.970000000e-02	1.339016569e-01	-3.095481953e-04	7.272889676e-12
-1.980000000e-02	1.339016575e-01	-3.081760478e-04	5.233900256e-11
-1.990000000e-02	1.339016582e-01	-3.068038991e-04	7.938072369e-11
-2.000000000e-02	1.339016588e-01	-3.054317492e-04	8.698036683e-12
-2.010000000e-02	1.339016593e-01	-3.040595980e-04	7.921259614e-12
-2.020000000e-02	1.339016599e-01	-3.026874456e-04	1.198757024e-10
-2.030000000e-02	1.339016604e-01	-3.013152919e-04	9.488474046e-12
-2.040000000e-02	1.339016608e-01	-2.999431371e-04	1.713054683e-11
-2.050000000e-02	1.339016612e-01	-2.985709810e-04	1.056253013e-12
-2.060000000e-02	1.339016616e-01	-2.971988238e-04	8.986473050e-12
-2.070000000e-02	1.339016620e-01	-2.958266654e-04	1.869226075e-11
-2.080000000e-02	1.339016623e-01	-2.944545057e-04	5.034922168e-11
-2.090000000e-02	1.339016626e-01	-2.930823449e-04	1.249331399e-11
-2.100000000e-02	1.339016628e-01	-2.917101829e-04	8.011490783e-11
-2.110000000e-02	1.339016630e-01	-2.903380197e-04	4.367343980e-12
-2.120000000e-02	1.339016632e-01	-2.889658554e-04	2.485183596e-11
-2.130000000e-02	1.339016633e-01	-2.875936899e-04	9.091816673e-11
-2.140000000e-02	1.339016634e-01	-2.862215233e-04	5.161363839e-11
-2.150000000e-02	1.339016635e-01	-2.848493555e-04	2.014730964e-11
-2.170000000e-02	1.339016635e-01	-2.821050165e-04	1.973036822e-11
-2.180000000e-02	1.339016635e-01	-2.807328453e-04	4.408030699e-11
-2.200000000e-02	1.339016633e-01	-2.779884995e-04	9.024177099e-12
-2.210000000e-02	1.339016632e-01	-2.766163249e-04	2.030149279e-11
-2.220000000e-02	1.339016630e-01	-2.752441493e-04	1.584545173e-11
-2.230000000e-02	1.339016628e-01	-2.738719725e-04	1.788994674e-11
-2.240000000e-02	1.339016625e-01	-2.724997946e-04	3.047165241e-11
-2.250000000e-02	1.339016622e-01	-2.711276157e-04	5.723458343e-11
-2.260000000e-02	1.339016619e-01	-2.697554357e-04	2.855721518e-11
-2.270000000e-02	1.339016615e-01	-2.683832546e-04	3.371123217e-11
-2.280000000e-02	1.339016611e-01	-2.670110724e-04	3.439275254e-11
-2.290000000e-02	1.339016607e-01	-2.656388891e-04	2.214120242e-11
-2.300000000e-02	1.339016602e-01	-2.642667048e-04	1.107294279e-11
-2.310000000e-02	1.339016597e-01	-2.628945195e-04	1.501206970e-11
-2.320000000e-02	1.339016592e-01	-2.615223331e-04	3.251108284e-11
-2.330000000e-02	1.339016586e-01	-2.601501456e-04	2.142069370e-11
-2.340000000e-02	1.339016580e-01	-2.587779571e-04	7.854913754e-12
-2.350000000e-02	1.339016573e-01	-2.574057676e-04	6.559833868e-11
-2.360000000e-02	1.339016567e-01	-2.560335771e-04	3.955330116e-11
-2.370000000e-02	1.339016559e-01	-2.546613855e-04	3.716676206e-11
-2.380000000e-02	1.339016552e-01	-2.532891930e-04	1.133999026e-11
-2.390000000e-02	1.339016544e-01	-2.519169994e-04	4.116224461e-11
-2.400000000e-02	1.339016536e-01	-2.505448048e-04	1.937882671e-11
-2.410000000e-02	1.339016527e-01	-2.491726093e-04	2.126576621e-11
-2.430000000e-02	1.339016509e-01	-2.464282152e-04	1.225469379e-10
-2.440000000e-02	1.339016499e-01	-2.450560167e-04	5.657637306e-11
-2.450000000e-02	1.339016489e-01	-2.436838172e-04	2.245035346e-11
-2.460000000e-02	1.339016479e-01	-2.423116168e-04	2.605935248e-12
-2.470000000e-02	1.339016468e-01	-2.409394154e-04	1.979823440e-12
-2.480000000e-02	1.339016457e-01	-2.395672130e-04	2.140669335e-11
-2.490000000e-02	1.339016445e-01	-2.381950097e-04	3.043496281e-11
-2.500000000e-02	1.339016433e-01	-2.368228055e-04	6.095400776e-11
-2.510000000e-02	1.339016421e-01	-2.354506003e-04	7.752898422e-12
-2.530000000e-02	1.339016396e-01	-2.327061872e-04	1.512325306e-11
-2.540000000e-02	1.339016383e-01	-2.313339793e-04	1.561628147e-11
-2.550000000e-02	1.339016369e-01	-2.299617704e-04	1.416997680e-10
-2.560000000e-02	1.339016355e-01	-2.285895607e-04	2.574775341e-11
-2.570000000e-02	1.339016341e-01	-2.272173500e-04	2.129962497e-11
-2.580000000e-02	1.339016326e-01	-2.258451385e-04	1.091143634e-10
-2.590000000e-02	1.339016311e-01	-2.244729260e-04	1.085718645e-11
-2.600000000e-02	1.339016296e-01	-2.231007127e-04	3.643029692e-11
-2.610000000e-02	1.339016280e-01	-2.217284985e-04	6.356076521e-12
-2.620000000e-02	1.339016264e-01	-2.203562835e-04	3.385944954e-11
-2.640000000e-02	1.339016230e-01	-2.176118508e-04	3.403816977e-11
-2.650000000e-02	1.339016213e-01	-2.162396332e-04	3.882288377e-11
-2.660000000e-02	1.339016196e-01	-2.148674147e-04	2.792391418e-11
-2.680000000e-02	1.339016160e-01	-2.121229752e-04	1.056971527e-10
-2.700000000e-02	1.339016122e-01	-2.093785325e-04	3.747378998e-11
-2.710000000e-02	1.339016103e-01	-2.080063099e-04	1.116205109e-11
-2.720000000e-02	1.339016083e-01	-2.066340865e-04	8.138006077e-11
-2.740000000e-02	1.339016043e-01	-2.038896373e-04	7.713401913e-12
-2.750000000e-02	1.339016022e-01	-2.025174115e-04	3.508944866e-11
-2.760000000e-02	1.339016001e-01	-2.011451849e-04	5.186086642e-11
-2.770000000e-02	1.339015979e-01	-1.997729575e-04	5.092204832e-11
-2.780000000e-02	1.339015958e-01	-1.984007294e-04	1.302420018e-12
-2.790000000e-02	1.339015935e-01	-1.970285005e-04	2.372991556e-11
-2.800000000e-02	1.339015913e-01	-1.956562708e-04	6.395089365e-12
-2.810000000e-02	1.339015890e-01	-1.942840404e-04	5.351347909e-11
-2.820000000e-02	1.339015867e-01	-1.929118092e-04	1.478041105e-10
-2.840000000e-02	1.339015819e-01	-1.901673447e-04	6.763460249e-11
-2.850000000e-02	1.339015795e-01	-1.887951113e-04	4.545008176e-11
-2.860000000e-02	1.339015770e-01	-1.874228772e-04	8.775279173e-12
-2.870000000e-02	1.339015745e-01	-1.860506424e-04	1.634403824e-11
-2.880000000e-02	1.339015720e-01	-1.846784068e-04	3.453479430e-11
-2.890000000e-02	1.339015694e-01	-1.833061706e-04	4.215806583e-11
-2.900000000e-02	1.339015668e-01	-1.819339336e-04	2.218660726e-11
-2.910000000e-02	1.339015642e-01	-1.805616960e-04	4.860683216e-11
-2.920000000e-02	1.339015615e-01	-1.791894577e-04	7.026710706e-12
-2.930000000e-02	1.339015588e-01	-1.778172187e-04	6.609781164e-11
-2.940000000e-02	1.339015560e-01	-1.764449790e-04	2.681275429e-11
-2.980000000e-02	1.339015447e-01	-1.709560136e-04	3.382582694e-12
-2.990000000e-02	1.339015417e-01	-1.695837706e-04	3.437016646e-11
-3.000000000e-02	1.339015388e-01	-1.682115270e-04	1.347326123e-11
-3.010000000e-02	1.339015358e-01	-1.668392828e-04	2.965855874e-11
-3.020000000e-02	1.339015327e-01	-1.654670379e-04	2.051391333e-11
-3.030000000e-02	1.339015297e-01	-1.640947924e-04	8.757854176e-11
-3.040000000e-02	1.339015266e-01	-1.627225462e-04	6.453405651e-12
-3.050000000e-02	1.339015234e-01	-1.613502995e-04	3.322315669e-11
-3.060000000e-02	1.339015202e-01	-1.599780522e-04	2.591006818e-11
-3.070000000e-02	1.339015170e-01	-1.586058042e-04	1.090708992e-10
-3.080000000e-02	1.339015138e-01	-1.572335557e-04	2.710214496e-11
-3.090000000e-02	1.339015105e-01	-1.558613066e-04	1.091191218e-11
-3.100000000e-02	1.339015072e-01	-1.544890569e-04	6.193377703e-11
-3.110000000e-02	1.339015038e-01	-1.531168066e-04	4.105453212e-11
-3.120000000e-02	1.339015004e-01	-1.517445558e-04	4.921732719e-11
-3.130000000e-02	1.339014970e-01	-1.503723044e-04	2.720581118e-11
-3.140000000e-02	1.339014935e-01	-1.490000525e-04	6.542934487e-11
-3.150000000e-02	1.339014900e-01	-1.476277999e-04	2.525152286e-11
-3.160000000e-02	1.339014865e-01	-1.462555469e-04	1.400020472e-11
-3.170000000e-02	1.339014829e-01	-1.448832933e-04	2.194155154e-11
-3.180000000e-02	1.339014793e-01	-1.435110392e-04	1.265366650e-11
-3.190000000e-02	1.339014757e-01	-1.421387845e-04	2.095866465e-11
-3.200000000e-02	1.339014720e-01	-1.407665294e-04	5.490647781e-11
-3.210000000e-02	1.339014683e-01	-1.393942737e-04	3.728927563e-11
-3.230000000e-02	1.339014608e-01	-1.366497608e-04	9.740700727e-12
-3.250000000e-02	1.339014531e-01	-1.339052459e-04	1.907568561e-14
-3.260000000e-02	1.339014492e-01	-1.325329878e-04	2.394646916e-11
-3.270000000e-02	1.339014453e-01	-1.311607291e-04	9.782181988e-11
-3.280000000e-02	1.339014413e-01	-1.297884700e-04	3.956803606e-11
-3.290000000e-02	1.339014373e-01	-1.284162104e-04	6.200400942e-11
-3.300000000e-02	1.339014333e-01	-1.270439504e-04	4.157401920e-11
-3.310000000e-02	1.339014292e-01	-1.256716899e-04	5.021618112e-11
-3.320000000e-02	1.339014251e-01	-1.242994290e-04	3.260086332e-11
-3.330000000e-02	1.339014210e-01	-1.229271676e-04	5.679678050e-12
-3.340000000e-02	1.339014168e-01	-1.215549058e-04	2.576782492e-11
-3.350000000e-02	1.339014126e-01	-1.201826435e-04	4.935346640e-11
-3.360000000e-02	1.339014084e-01	-1.188103809e-04	1.056843641e-11
-3.370000000e-02	1.339014041e-01	-1.174381178e-04	2.728026111e-11
-3.380000000e-02	1.339013998e-01	-1.160658543e-04	2.505219463e-11
-3.390000000e-02	1.339013954e-01	-1.146935904e-04	7.064685788e-12
-3.410000000e-02	1.339013866e-01	-1.119490614e-04	8.506288205e-11
-3.420000000e-02	1.339013821e-01	-1.105767963e-04	3.392707139e-11
-3.440000000e-02	1.339013731e-01	-1.078322650e-04	3.543300261e-11
-3.460000000e-02	1.339013639e-01	-1.050877322e-04	1.800266381e-12
-3.470000000e-02	1.339013593e-01	-1.037154653e-04	2.874671277e-11
-3.510000000e-02	1.339013404e-01	-9.822639410e-05	3.392828365e-11
-3.520000000e-02	1.339013356e-01	-9.685412548e-05	2.623569591e-11
-3.530000000e-02	1.339013307e-01	-9.548185653e-05	3.209930286e-11
-3.550000000e-02	1.339013209e-01	-9.273731770e-05	3.845159890e-11
-3.560000000e-02	1.339013160e-01	-9.136504783e-05	2.535254593e-11
-3.570000000e-02	1.339013110e-01	-8.999277766e-05	1.649134732e-11
-3.590000000e-02	1.339013009e-01	-8.724823646e-05	1.204210318e-11
-3.600000000e-02	1.339012958e-01	-8.587596544e-05	3.260186296e-11
-3.610000000e-02	1.339012906e-01	-8.450369414e-05	6.086251889e-11
