# Re(epsi1)     Omega/c [1/micrones]    Im(epsi1)     Eq(det).Opt det SIN kz, mu = 0.6 eV, R = 0.25 micrones, solve_det_sinkz_vs_re_epsi1.py
1.000000000e+00	8.337597202e-01	-8.233168205e-03	3.948591584e-14
1.010000000e+00	8.317238329e-01	-8.256598912e-03	8.644179042e-14
1.020000000e+00	8.297027559e-01	-8.280019567e-03	6.420161778e-14
1.030000000e+00	8.276963107e-01	-8.303430325e-03	1.084629513e-13
1.040000000e+00	8.257043220e-01	-8.326831345e-03	1.120158398e-13
1.050000000e+00	8.237266174e-01	-8.350222779e-03	6.298036892e-14
1.060000000e+00	8.217630274e-01	-8.373604779e-03	3.301439383e-14
1.070000000e+00	8.198133851e-01	-8.396977498e-03	5.609013845e-14
1.080000000e+00	8.178775267e-01	-8.420341084e-03	7.342380805e-14
1.090000000e+00	8.159552906e-01	-8.443695684e-03	6.294837274e-14
1.100000000e+00	8.140465183e-01	-8.467041443e-03	3.942464334e-14
1.110000000e+00	8.121510536e-01	-8.490378506e-03	1.025295706e-13
1.120000000e+00	8.102687428e-01	-8.513707014e-03	1.065879443e-13
1.130000000e+00	8.083994349e-01	-8.537027109e-03	5.814985854e-14
1.140000000e+00	8.065429810e-01	-8.560338930e-03	8.852726123e-14
1.150000000e+00	8.046992349e-01	-8.583642613e-03	7.481029759e-14
1.160000000e+00	8.028680524e-01	-8.606938295e-03	8.498827957e-14
1.170000000e+00	8.010492918e-01	-8.630226111e-03	9.070573495e-14
1.180000000e+00	7.992428134e-01	-8.653506192e-03	1.022028022e-13
1.190000000e+00	7.974484801e-01	-8.676778671e-03	8.273843517e-14
1.200000000e+00	7.956661564e-01	-8.700043677e-03	5.873416242e-14
1.210000000e+00	7.938957094e-01	-8.723301339e-03	9.792462192e-14
1.220000000e+00	7.921370078e-01	-8.746551784e-03	1.383231963e-13
1.230000000e+00	7.903899226e-01	-8.769795138e-03	1.926932116e-13
1.240000000e+00	7.886543267e-01	-8.793031524e-03	6.674536870e-14
1.250000000e+00	7.869300949e-01	-8.816261066e-03	1.359067858e-13
1.260000000e+00	7.852171041e-01	-8.839483886e-03	1.070201009e-13
1.270000000e+00	7.835152327e-01	-8.862700103e-03	4.339418039e-14
1.280000000e+00	7.818243612e-01	-8.885909836e-03	4.687521488e-14
1.290000000e+00	7.801443718e-01	-8.909113203e-03	1.067560263e-13
1.300000000e+00	7.784751484e-01	-8.932310321e-03	8.033686428e-14
1.310000000e+00	7.768165768e-01	-8.955501304e-03	1.063880889e-13
1.320000000e+00	7.751685443e-01	-8.978686266e-03	1.595861726e-13
1.330000000e+00	7.735309400e-01	-9.001865320e-03	1.242117302e-13
1.340000000e+00	7.719036545e-01	-9.025038578e-03	1.092475331e-13
1.350000000e+00	7.702865800e-01	-9.048206149e-03	5.094298491e-14
1.360000000e+00	7.686796104e-01	-9.071368142e-03	5.906387958e-14
1.370000000e+00	7.670826411e-01	-9.094524666e-03	1.459434117e-13
1.380000000e+00	7.654955688e-01	-9.117675827e-03	7.105739601e-14
1.390000000e+00	7.639182921e-01	-9.140821731e-03	6.835896258e-14
1.400000000e+00	7.623507105e-01	-9.163962482e-03	1.096269240e-13
1.410000000e+00	7.607927255e-01	-9.187098183e-03	2.380180953e-13
1.420000000e+00	7.592442396e-01	-9.210228938e-03	1.133903012e-13
1.430000000e+00	7.577051567e-01	-9.233354847e-03	1.104095482e-13
1.440000000e+00	7.561753824e-01	-9.256476010e-03	2.046490773e-13
1.450000000e+00	7.546548232e-01	-9.279592526e-03	1.371926882e-13
1.460000000e+00	7.531433871e-01	-9.302704494e-03	8.915630515e-14
1.470000000e+00	7.516409834e-01	-9.325812011e-03	1.428995076e-13
1.480000000e+00	7.501475226e-01	-9.348915172e-03	1.176965521e-13
1.490000000e+00	7.486629165e-01	-9.372014073e-03	6.124407857e-14
1.500000000e+00	7.471870780e-01	-9.395108808e-03	9.483566407e-14
1.510000000e+00	7.457199214e-01	-9.418199470e-03	9.890541937e-14
1.520000000e+00	7.442613618e-01	-9.441286151e-03	7.685627143e-14
1.530000000e+00	7.428113158e-01	-9.464368943e-03	7.477407705e-14
1.540000000e+00	7.413697011e-01	-9.487447936e-03	1.696765966e-13
1.550000000e+00	7.399364363e-01	-9.510523218e-03	6.028895015e-14
1.560000000e+00	7.385114412e-01	-9.533594880e-03	1.384513660e-13
1.570000000e+00	7.370946367e-01	-9.556663008e-03	1.633898694e-13
1.580000000e+00	7.356859448e-01	-9.579727689e-03	6.920529273e-14
1.590000000e+00	7.342852884e-01	-9.602789009e-03	9.927654156e-14
1.600000000e+00	7.328925915e-01	-9.625847053e-03	1.637189420e-13
1.610000000e+00	7.315077792e-01	-9.648901904e-03	1.008026910e-13
1.620000000e+00	7.301307773e-01	-9.671953648e-03	6.250792878e-14
1.630000000e+00	7.287615129e-01	-9.695002365e-03	1.953781822e-13
1.640000000e+00	7.273999139e-01	-9.718048137e-03	2.513905347e-13
1.650000000e+00	7.260459090e-01	-9.741091046e-03	1.055178210e-13
1.660000000e+00	7.246994280e-01	-9.764131172e-03	1.286012597e-13
1.670000000e+00	7.233604016e-01	-9.787168593e-03	1.473980507e-13
1.680000000e+00	7.220287613e-01	-9.810203388e-03	1.006553108e-13
1.690000000e+00	7.207044396e-01	-9.833235635e-03	7.732113563e-14
1.700000000e+00	7.193873698e-01	-9.856265411e-03	1.825410672e-13
1.710000000e+00	7.180774859e-01	-9.879292792e-03	4.002307192e-13
1.720000000e+00	7.167747230e-01	-9.902317853e-03	1.142501488e-13
1.730000000e+00	7.154790169e-01	-9.925340670e-03	8.052770265e-14
1.740000000e+00	7.141903041e-01	-9.948361316e-03	1.098416446e-13
1.750000000e+00	7.129085219e-01	-9.971379864e-03	1.279996150e-13
1.760000000e+00	7.116336087e-01	-9.994396388e-03	2.094285605e-13
1.770000000e+00	7.103655033e-01	-1.001741096e-02	1.391891199e-13
1.780000000e+00	7.091041455e-01	-1.004042365e-02	5.623107686e-14
1.790000000e+00	7.078494756e-01	-1.006343452e-02	1.570375933e-13
1.800000000e+00	7.066014348e-01	-1.008644366e-02	2.954638803e-13
1.810000000e+00	7.053599651e-01	-1.010945112e-02	9.054671957e-14
1.820000000e+00	7.041250090e-01	-1.013245699e-02	3.267656456e-13
1.830000000e+00	7.028965098e-01	-1.015546131e-02	1.064761185e-13
1.840000000e+00	7.016744116e-01	-1.017846417e-02	1.257243632e-13
1.850000000e+00	7.004586589e-01	-1.020146562e-02	1.197552578e-13
1.860000000e+00	6.992491972e-01	-1.022446574e-02	2.191480137e-13
1.870000000e+00	6.980459724e-01	-1.024746458e-02	2.306429549e-13
1.880000000e+00	6.968489311e-01	-1.027046222e-02	1.801117451e-13
1.890000000e+00	6.956580206e-01	-1.029345872e-02	8.256255093e-14
1.900000000e+00	6.944731889e-01	-1.031645414e-02	1.394029139e-13
1.910000000e+00	6.932943843e-01	-1.033944855e-02	1.014085879e-13
1.920000000e+00	6.921215562e-01	-1.036244200e-02	7.651363979e-14
1.930000000e+00	6.909546541e-01	-1.038543456e-02	2.495165920e-13
1.940000000e+00	6.897936284e-01	-1.040842629e-02	1.628451956e-13
1.950000000e+00	6.886384300e-01	-1.043141726e-02	1.593931154e-13
1.960000000e+00	6.874890103e-01	-1.045440751e-02	9.375969837e-14
1.970000000e+00	6.863453214e-01	-1.047739711e-02	2.292718071e-13
1.980000000e+00	6.852073159e-01	-1.050038612e-02	7.756320312e-14
1.990000000e+00	6.840749468e-01	-1.052337460e-02	1.031822100e-13
2.000000000e+00	6.829481679e-01	-1.054636261e-02	2.685750659e-13
2.010000000e+00	6.818269334e-01	-1.056935020e-02	3.223660645e-13
2.020000000e+00	6.807111979e-01	-1.059233743e-02	1.266436154e-13
2.030000000e+00	6.796009168e-01	-1.061532435e-02	9.960985385e-14
2.040000000e+00	6.784960457e-01	-1.063831103e-02	5.934710652e-14
2.050000000e+00	6.773965409e-01	-1.066129751e-02	7.030403477e-14
2.060000000e+00	6.763023592e-01	-1.068428386e-02	6.414908603e-14
2.070000000e+00	6.752134578e-01	-1.070727012e-02	9.024605797e-14
2.080000000e+00	6.741297943e-01	-1.073025635e-02	3.690336619e-13
2.090000000e+00	6.730513271e-01	-1.075324261e-02	1.204825259e-13
2.100000000e+00	6.719780146e-01	-1.077622894e-02	1.279231807e-13
2.110000000e+00	6.709098160e-01	-1.079921541e-02	5.177604559e-14
2.120000000e+00	6.698466909e-01	-1.082220205e-02	9.252070404e-14
2.130000000e+00	6.687885992e-01	-1.084518893e-02	1.065855881e-13
2.140000000e+00	6.677355015e-01	-1.086817609e-02	8.616704033e-14
2.150000000e+00	6.666873585e-01	-1.089116358e-02	2.438422399e-13
2.160000000e+00	6.656441316e-01	-1.091415146e-02	8.693282007e-14
2.170000000e+00	6.646057825e-01	-1.093713977e-02	1.011440748e-13
2.180000000e+00	6.635722734e-01	-1.096012857e-02	1.243739329e-13
2.190000000e+00	6.625435668e-01	-1.098311790e-02	1.860420519e-13
2.200000000e+00	6.615196256e-01	-1.100610781e-02	5.728043427e-14
2.210000000e+00	6.605004131e-01	-1.102909834e-02	1.702270248e-13
2.220000000e+00	6.594858933e-01	-1.105208956e-02	9.682392422e-14
2.230000000e+00	6.584760301e-01	-1.107508149e-02	4.859919339e-13
2.240000000e+00	6.574707881e-01	-1.109807420e-02	6.231956667e-13
2.250000000e+00	6.564701321e-01	-1.112106772e-02	2.690847158e-13
2.260000000e+00	6.554740275e-01	-1.114406211e-02	1.834588456e-13
2.270000000e+00	6.544824399e-01	-1.116705740e-02	1.138014885e-13
2.280000000e+00	6.534953353e-01	-1.119005365e-02	1.436967026e-13
2.290000000e+00	6.525126799e-01	-1.121305089e-02	4.974245202e-14
2.300000000e+00	6.515344406e-01	-1.123604918e-02	1.086976381e-13
2.310000000e+00	6.505605843e-01	-1.125904855e-02	1.010204278e-13
2.320000000e+00	6.495910785e-01	-1.128204905e-02	1.510242873e-13
2.330000000e+00	6.486258908e-01	-1.130505073e-02	1.354122598e-13
2.340000000e+00	6.476649895e-01	-1.132805362e-02	1.025221234e-13
2.350000000e+00	6.467083427e-01	-1.135105776e-02	6.169484474e-14
2.360000000e+00	6.457559194e-01	-1.137406321e-02	3.862280050e-13
2.370000000e+00	6.448076884e-01	-1.139707001e-02	6.796018295e-14
2.380000000e+00	6.438636192e-01	-1.142007818e-02	1.296944010e-13
2.390000000e+00	6.429236814e-01	-1.144308778e-02	1.898163293e-13
2.400000000e+00	6.419878450e-01	-1.146609885e-02	1.912041294e-13
2.410000000e+00	6.410560803e-01	-1.148911142e-02	2.122242640e-13
2.420000000e+00	6.401283579e-01	-1.151212554e-02	1.750523184e-13
2.430000000e+00	6.392046486e-01	-1.153514124e-02	1.447364677e-13
2.440000000e+00	6.382849236e-01	-1.155815857e-02	9.917517321e-14
2.450000000e+00	6.373691544e-01	-1.158117756e-02	6.990816176e-13
2.460000000e+00	6.364573128e-01	-1.160419826e-02	1.402004212e-13
2.470000000e+00	6.355493706e-01	-1.162722069e-02	2.350470888e-13
2.480000000e+00	6.346453004e-01	-1.165024491e-02	5.563145786e-13
2.490000000e+00	6.337450745e-01	-1.167327094e-02	1.034228019e-13
2.500000000e+00	6.328486660e-01	-1.169629883e-02	1.821135346e-13
2.510000000e+00	6.319560478e-01	-1.171932861e-02	7.656909673e-14
2.520000000e+00	6.310671934e-01	-1.174236032e-02	5.376231354e-14
2.530000000e+00	6.301820765e-01	-1.176539400e-02	2.608872924e-13
2.540000000e+00	6.293006708e-01	-1.178842967e-02	1.950881738e-13
2.550000000e+00	6.284229507e-01	-1.181146739e-02	2.294601094e-13
2.560000000e+00	6.275488904e-01	-1.183450717e-02	3.950637179e-13
2.570000000e+00	6.266784646e-01	-1.185754907e-02	8.129872951e-14
2.580000000e+00	6.258116483e-01	-1.188059311e-02	1.487212015e-13
2.590000000e+00	6.249484166e-01	-1.190363932e-02	1.421196489e-13
2.600000000e+00	6.240887448e-01	-1.192668775e-02	8.572647312e-14
2.610000000e+00	6.232326085e-01	-1.194973843e-02	2.273737025e-13
2.620000000e+00	6.223799837e-01	-1.197279139e-02	8.903545665e-14
2.630000000e+00	6.215308464e-01	-1.199584666e-02	2.913230505e-13
2.640000000e+00	6.206851728e-01	-1.201890428e-02	1.451786312e-13
2.650000000e+00	6.198429396e-01	-1.204196428e-02	7.823985137e-14
2.660000000e+00	6.190041235e-01	-1.206502670e-02	4.895821207e-13
2.670000000e+00	6.181687014e-01	-1.208809156e-02	7.964966229e-14
2.680000000e+00	6.173366505e-01	-1.211115890e-02	1.757697295e-13
2.690000000e+00	6.165079483e-01	-1.213422876e-02	4.028151686e-14
2.700000000e+00	6.156825724e-01	-1.215730115e-02	7.369124875e-13
2.710000000e+00	6.148605005e-01	-1.218037612e-02	4.741986085e-13
2.720000000e+00	6.140417107e-01	-1.220345370e-02	2.022972588e-13
2.730000000e+00	6.132261813e-01	-1.222653391e-02	8.819392567e-14
2.740000000e+00	6.124138906e-01	-1.224961679e-02	1.805696435e-13
2.750000000e+00	6.116048173e-01	-1.227270237e-02	2.570766424e-13
2.760000000e+00	6.107989402e-01	-1.229579068e-02	1.900499477e-13
2.770000000e+00	6.099962384e-01	-1.231888175e-02	1.778575899e-13
2.780000000e+00	6.091966911e-01	-1.234197560e-02	7.289229277e-14
2.790000000e+00	6.084002776e-01	-1.236507228e-02	4.292430055e-14
2.800000000e+00	6.076069776e-01	-1.238817180e-02	2.487470481e-13
2.810000000e+00	6.068167709e-01	-1.241127420e-02	9.264343824e-14
2.820000000e+00	6.060296373e-01	-1.243437950e-02	7.979167549e-14
2.830000000e+00	6.052455571e-01	-1.245748774e-02	1.295188293e-13
2.840000000e+00	6.044645106e-01	-1.248059894e-02	7.079289040e-14
2.850000000e+00	6.036864782e-01	-1.250371313e-02	2.558879831e-13
2.860000000e+00	6.029114407e-01	-1.252683034e-02	5.204862421e-14
2.870000000e+00	6.021393789e-01	-1.254995060e-02	1.791481688e-13
2.880000000e+00	6.013702738e-01	-1.257307393e-02	1.480358242e-13
2.890000000e+00	6.006041066e-01	-1.259620037e-02	7.229658108e-13
2.900000000e+00	5.998408587e-01	-1.261932993e-02	1.400558117e-13
2.910000000e+00	5.990805115e-01	-1.264246265e-02	5.081099146e-14
2.920000000e+00	5.983230468e-01	-1.266559855e-02	1.717851928e-13
2.930000000e+00	5.975684464e-01	-1.268873766e-02	7.303647544e-14
2.940000000e+00	5.968166922e-01	-1.271188001e-02	4.311326371e-14
2.950000000e+00	5.960677666e-01	-1.273502562e-02	4.519044140e-14
2.960000000e+00	5.953216517e-01	-1.275817452e-02	8.019968651e-14
2.970000000e+00	5.945783301e-01	-1.278132673e-02	1.501895001e-13
2.980000000e+00	5.938377843e-01	-1.280448227e-02	8.694067118e-14
2.990000000e+00	5.930999972e-01	-1.282764119e-02	3.047294241e-14
3.000000000e+00	5.923649517e-01	-1.285080349e-02	6.795725829e-14
3.010000000e+00	5.916326308e-01	-1.287396921e-02	1.137007147e-13
3.020000000e+00	5.909030178e-01	-1.289713837e-02	1.154631946e-13
3.030000000e+00	5.901760960e-01	-1.292031099e-02	1.185385493e-13
3.040000000e+00	5.894518490e-01	-1.294348709e-02	1.243139382e-12
3.050000000e+00	5.887302603e-01	-1.296666671e-02	2.382173337e-13
3.060000000e+00	5.880113138e-01	-1.298984987e-02	1.675811691e-14
3.070000000e+00	5.872949934e-01	-1.301303659e-02	1.623016961e-13
3.080000000e+00	5.865812831e-01	-1.303622689e-02	1.341827508e-13
3.090000000e+00	5.858701672e-01	-1.305942080e-02	2.365061702e-13
3.100000000e+00	5.851616299e-01	-1.308261834e-02	5.774020941e-13
3.110000000e+00	5.844556558e-01	-1.310581953e-02	1.886976806e-13
3.120000000e+00	5.837522294e-01	-1.312902440e-02	3.845812557e-13
3.130000000e+00	5.830513355e-01	-1.315223297e-02	4.152234112e-14
3.140000000e+00	5.823529588e-01	-1.317544526e-02	2.985291241e-13
3.150000000e+00	5.816570844e-01	-1.319866130e-02	5.802644125e-13
3.160000000e+00	5.809636974e-01	-1.322188110e-02	2.418228860e-13
3.170000000e+00	5.802727829e-01	-1.324510469e-02	9.354615612e-14
3.180000000e+00	5.795843264e-01	-1.326833209e-02	1.005862060e-13
3.190000000e+00	5.788983133e-01	-1.329156333e-02	2.058822914e-13
3.200000000e+00	5.782147293e-01	-1.331479841e-02	1.974235032e-13
3.210000000e+00	5.775335599e-01	-1.333803738e-02	3.283877561e-13
3.220000000e+00	5.768547910e-01	-1.336128024e-02	1.424178587e-13
3.230000000e+00	5.761784086e-01	-1.338452702e-02	6.217248938e-15
3.240000000e+00	5.755043987e-01	-1.340777774e-02	1.136868377e-13
3.250000000e+00	5.748327476e-01	-1.343103241e-02	9.108450760e-13
3.260000000e+00	5.741634413e-01	-1.345429107e-02	2.904713483e-14
3.270000000e+00	5.734964665e-01	-1.347755373e-02	7.719400091e-13
3.280000000e+00	5.728318095e-01	-1.350082041e-02	1.840621204e-13
3.290000000e+00	5.721694570e-01	-1.352409113e-02	4.241923767e-14
3.300000000e+00	5.715093958e-01	-1.354736592e-02	2.140898074e-13
3.310000000e+00	5.708516125e-01	-1.357064478e-02	4.344817771e-14
3.320000000e+00	5.701960942e-01	-1.359392775e-02	2.848284472e-13
3.330000000e+00	5.695428279e-01	-1.361721484e-02	2.373385746e-13
3.340000000e+00	5.688918007e-01	-1.364050606e-02	8.060219159e-14
3.350000000e+00	5.682429999e-01	-1.366380145e-02	1.406080695e-13
3.360000000e+00	5.675964129e-01	-1.368710102e-02	6.335434941e-14
3.370000000e+00	5.669520270e-01	-1.371040478e-02	1.300089650e-13
3.380000000e+00	5.663098299e-01	-1.373371276e-02	1.329808066e-13
3.390000000e+00	5.656698091e-01	-1.375702498e-02	2.062568499e-13
3.400000000e+00	5.650319524e-01	-1.378034145e-02	1.719125774e-13
3.410000000e+00	5.643962476e-01	-1.380366219e-02	1.964702059e-13
3.420000000e+00	5.637626827e-01	-1.382698722e-02	3.449061097e-14
3.430000000e+00	5.631312458e-01	-1.385031657e-02	9.521338941e-14
3.440000000e+00	5.625019248e-01	-1.387365024e-02	3.280073087e-13
3.450000000e+00	5.618747081e-01	-1.389698825e-02	1.952661064e-13
3.460000000e+00	5.612495839e-01	-1.392033063e-02	2.789785241e-13
3.470000000e+00	5.606265406e-01	-1.394367739e-02	1.986604428e-13
3.480000000e+00	5.600055668e-01	-1.396702855e-02	2.846172735e-13
3.490000000e+00	5.593866509e-01	-1.399038413e-02	1.040233356e-13
3.500000000e+00	5.587697817e-01	-1.401374413e-02	6.832303834e-13
3.510000000e+00	5.581549480e-01	-1.403710859e-02	1.652704113e-14
3.520000000e+00	5.575421384e-01	-1.406047752e-02	1.701835377e-13
3.530000000e+00	5.569313420e-01	-1.408385093e-02	1.233035504e-13
3.540000000e+00	5.563225478e-01	-1.410722884e-02	1.167549299e-13
3.550000000e+00	5.557157449e-01	-1.413061127e-02	1.325353352e-13
3.560000000e+00	5.551109224e-01	-1.415399823e-02	6.256183090e-14
3.570000000e+00	5.545080695e-01	-1.417738975e-02	1.189565048e-12
3.580000000e+00	5.539071757e-01	-1.420078583e-02	2.880167609e-14
3.590000000e+00	5.533082303e-01	-1.422418650e-02	1.594824458e-13
3.600000000e+00	5.527112229e-01	-1.424759176e-02	1.743615776e-13
3.610000000e+00	5.521161430e-01	-1.427100164e-02	1.423754439e-13
3.620000000e+00	5.515229803e-01	-1.429441616e-02	1.203481759e-13
3.630000000e+00	5.509317244e-01	-1.431783532e-02	8.274968201e-14
3.640000000e+00	5.503423653e-01	-1.434125914e-02	1.581308391e-13
3.650000000e+00	5.497548927e-01	-1.436468764e-02	3.229383635e-13
3.660000000e+00	5.491692967e-01	-1.438812084e-02	1.487698853e-14
3.670000000e+00	5.485855674e-01	-1.441155874e-02	3.446681613e-13
3.680000000e+00	5.480036947e-01	-1.443500138e-02	2.184670678e-13
3.690000000e+00	5.474236688e-01	-1.445844875e-02	1.304929148e-13
3.700000000e+00	5.468454802e-01	-1.448190087e-02	5.404083988e-14
3.710000000e+00	5.462691189e-01	-1.450535776e-02	1.494252959e-13
3.720000000e+00	5.456945756e-01	-1.452881944e-02	1.136903071e-13
3.730000000e+00	5.451218405e-01	-1.455228592e-02	1.130056527e-13
3.740000000e+00	5.445509044e-01	-1.457575721e-02	2.845291732e-14
3.750000000e+00	5.439817577e-01	-1.459923333e-02	4.030442327e-13
3.760000000e+00	5.434143911e-01	-1.462271430e-02	1.263433802e-13
3.770000000e+00	5.428487954e-01	-1.464620012e-02	1.004711967e-13
3.780000000e+00	5.422849615e-01	-1.466969081e-02	1.561382549e-13
3.790000000e+00	5.417228801e-01	-1.469318638e-02	1.285260463e-13
3.800000000e+00	5.411625422e-01	-1.471668686e-02	8.636935762e-13
3.810000000e+00	5.406039388e-01	-1.474019224e-02	1.999912010e-13
3.820000000e+00	5.400470611e-01	-1.476370256e-02	2.337850272e-13
3.830000000e+00	5.394919001e-01	-1.478721781e-02	1.586376231e-13
3.840000000e+00	5.389384470e-01	-1.481073802e-02	8.714366763e-14
3.850000000e+00	5.383866931e-01	-1.483426320e-02	1.230127111e-13
3.860000000e+00	5.378366298e-01	-1.485779336e-02	3.180869373e-13
3.870000000e+00	5.372882484e-01	-1.488132851e-02	2.813132516e-13
3.880000000e+00	5.367415403e-01	-1.490486867e-02	1.065814104e-13
3.890000000e+00	5.361964971e-01	-1.492841385e-02	4.868198203e-14
3.900000000e+00	5.356531104e-01	-1.495196406e-02	5.070129770e-13
3.910000000e+00	5.351113717e-01	-1.497551932e-02	5.723240073e-14
3.920000000e+00	5.345712728e-01	-1.499907964e-02	3.012696094e-14
3.930000000e+00	5.340328054e-01	-1.502264503e-02	9.308940350e-14
3.940000000e+00	5.334959614e-01	-1.504621551e-02	2.711960124e-13
3.950000000e+00	5.329607325e-01	-1.506979109e-02	4.122525845e-13
3.960000000e+00	5.324271107e-01	-1.509337177e-02	1.418865025e-13
3.970000000e+00	5.318950880e-01	-1.511695758e-02	1.442490350e-13
3.980000000e+00	5.313646564e-01	-1.514054852e-02	5.748923072e-13
3.990000000e+00	5.308358080e-01	-1.516414461e-02	5.701662732e-14
4.000000000e+00	5.303085349e-01	-1.518774585e-02	2.159296733e-13
4.010000000e+00	5.297828294e-01	-1.521135227e-02	1.283194984e-13
4.020000000e+00	5.292586836e-01	-1.523496387e-02	4.440892099e-14
4.030000000e+00	5.287360900e-01	-1.525858067e-02	2.550823836e-13
4.040000000e+00	5.282150408e-01	-1.528220267e-02	2.714762053e-13
