# Re(epsi1)     Omega/c [1/micrones]    Im(epsi1)     Eq(det).Opt det SIN kz, mu = 0.6 eV, R = 0.25 micrones, solve_det_sinkz_vs_re_epsi1.py
1.000000000e+00	7.235607526e-01	-7.338093615e-03	6.976875357e-14
1.010000000e+00	7.217865956e-01	-7.361068359e-03	7.795375769e-14
1.020000000e+00	7.200253888e-01	-7.384040231e-03	8.918719891e-14
1.030000000e+00	7.182769758e-01	-7.407009360e-03	7.514968050e-14
1.040000000e+00	7.165412029e-01	-7.429975872e-03	5.425555931e-14
1.050000000e+00	7.148179191e-01	-7.452939892e-03	1.557648548e-13
1.060000000e+00	7.131069756e-01	-7.475901543e-03	7.076147544e-14
1.070000000e+00	7.114082262e-01	-7.498860946e-03	8.515759007e-14
1.080000000e+00	7.097215273e-01	-7.521818223e-03	6.092076502e-14
1.090000000e+00	7.080467373e-01	-7.544773491e-03	1.030209135e-13
1.100000000e+00	7.063837171e-01	-7.567726868e-03	1.139158212e-13
1.110000000e+00	7.047323300e-01	-7.590678470e-03	9.592516892e-14
1.120000000e+00	7.030924412e-01	-7.613628412e-03	9.577959027e-14
1.130000000e+00	7.014639183e-01	-7.636576805e-03	5.584361805e-14
1.140000000e+00	6.998466308e-01	-7.659523764e-03	6.967316383e-14
1.150000000e+00	6.982404507e-01	-7.682469396e-03	3.927004950e-14
1.160000000e+00	6.966452515e-01	-7.705413813e-03	8.213271240e-14
1.170000000e+00	6.950609090e-01	-7.728357120e-03	7.628324068e-14
1.180000000e+00	6.934873011e-01	-7.751299426e-03	8.893289346e-14
1.190000000e+00	6.919243072e-01	-7.774240835e-03	1.244012772e-13
1.200000000e+00	6.903718088e-01	-7.797181451e-03	8.801065011e-14
1.210000000e+00	6.888296894e-01	-7.820121377e-03	7.421191635e-14
1.220000000e+00	6.872978341e-01	-7.843060714e-03	6.423347842e-14
1.230000000e+00	6.857761297e-01	-7.865999562e-03	5.045130758e-14
1.240000000e+00	6.842644649e-01	-7.888938022e-03	1.318003340e-13
1.250000000e+00	6.827627301e-01	-7.911876190e-03	6.320592561e-14
1.260000000e+00	6.812708172e-01	-7.934814163e-03	6.800460413e-14
1.270000000e+00	6.797886199e-01	-7.957752038e-03	8.618717634e-14
1.280000000e+00	6.783160335e-01	-7.980689909e-03	9.372854566e-14
1.290000000e+00	6.768529547e-01	-8.003627869e-03	9.186306012e-14
1.300000000e+00	6.753992819e-01	-8.026566011e-03	1.239818487e-13
1.310000000e+00	6.739549149e-01	-8.049504425e-03	5.398887547e-14
1.320000000e+00	6.725197552e-01	-8.072443203e-03	7.765123301e-14
1.330000000e+00	6.710937055e-01	-8.095382434e-03	1.224563800e-13
1.340000000e+00	6.696766701e-01	-8.118322205e-03	1.164296112e-13
1.350000000e+00	6.682685545e-01	-8.141262604e-03	8.450142148e-14
1.360000000e+00	6.668692659e-01	-8.164203717e-03	6.754377922e-14
1.370000000e+00	6.654787124e-01	-8.187145630e-03	8.335449114e-14
1.380000000e+00	6.640968039e-01	-8.210088425e-03	1.360189955e-13
1.390000000e+00	6.627234513e-01	-8.233032188e-03	2.070256965e-13
1.400000000e+00	6.613585668e-01	-8.255977000e-03	1.006699826e-13
1.410000000e+00	6.600020640e-01	-8.278922942e-03	8.035629819e-14
1.420000000e+00	6.586538575e-01	-8.301870096e-03	1.350644603e-13
1.430000000e+00	6.573138634e-01	-8.324818540e-03	1.502705634e-13
1.440000000e+00	6.559819987e-01	-8.347768353e-03	1.173278839e-13
1.450000000e+00	6.546581818e-01	-8.370719614e-03	8.588700405e-14
1.460000000e+00	6.533423321e-01	-8.393672399e-03	4.091445109e-14
1.470000000e+00	6.520343701e-01	-8.416626783e-03	8.888661881e-14
1.480000000e+00	6.507342175e-01	-8.439582843e-03	1.033497782e-13
1.490000000e+00	6.494417970e-01	-8.462540653e-03	1.345705835e-13
1.500000000e+00	6.481570325e-01	-8.485500286e-03	8.901153923e-14
1.510000000e+00	6.468798488e-01	-8.508461816e-03	7.945719017e-14
1.520000000e+00	6.456101717e-01	-8.531425313e-03	1.655943285e-13
1.530000000e+00	6.443479282e-01	-8.554390849e-03	1.848710448e-13
1.540000000e+00	6.430930461e-01	-8.577358495e-03	1.109388135e-13
1.550000000e+00	6.418454543e-01	-8.600328321e-03	1.282982951e-13
1.560000000e+00	6.406050826e-01	-8.623300394e-03	1.078532527e-13
1.570000000e+00	6.393718617e-01	-8.646274784e-03	8.603783557e-14
1.580000000e+00	6.381457233e-01	-8.669251557e-03	9.843265136e-14
1.590000000e+00	6.369266001e-01	-8.692230780e-03	9.021933950e-14
1.600000000e+00	6.357144254e-01	-8.715212519e-03	5.504026697e-14
1.610000000e+00	6.345091336e-01	-8.738196839e-03	1.932755562e-13
1.620000000e+00	6.333106600e-01	-8.761183805e-03	1.413399404e-13
1.630000000e+00	6.321189406e-01	-8.784173480e-03	1.020738869e-13
1.640000000e+00	6.309339124e-01	-8.807165928e-03	8.072238092e-14
1.650000000e+00	6.297555129e-01	-8.830161211e-03	7.166715900e-14
1.660000000e+00	6.285836809e-01	-8.853159391e-03	9.069890200e-14
1.670000000e+00	6.274183555e-01	-8.876160528e-03	1.012183739e-13
1.680000000e+00	6.262594769e-01	-8.899164684e-03	1.317434938e-13
1.690000000e+00	6.251069860e-01	-8.922171918e-03	2.195296140e-13
1.700000000e+00	6.239608244e-01	-8.945182289e-03	6.231546445e-14
1.710000000e+00	6.228209345e-01	-8.968195856e-03	3.062557055e-13
1.720000000e+00	6.216872593e-01	-8.991212676e-03	1.799753902e-13
1.730000000e+00	6.205597427e-01	-9.014232807e-03	2.657287673e-13
1.740000000e+00	6.194383293e-01	-9.037256307e-03	1.496234914e-13
1.750000000e+00	6.183229642e-01	-9.060283230e-03	1.490887560e-13
1.760000000e+00	6.172135933e-01	-9.083313632e-03	1.780456659e-13
1.770000000e+00	6.161101632e-01	-9.106347568e-03	1.254656650e-13
1.780000000e+00	6.150126213e-01	-9.129385093e-03	1.850870170e-13
1.790000000e+00	6.139209153e-01	-9.152426260e-03	9.125594717e-14
1.800000000e+00	6.128349938e-01	-9.175471123e-03	7.848469986e-14
1.810000000e+00	6.117548060e-01	-9.198519734e-03	1.453847569e-13
1.820000000e+00	6.106803017e-01	-9.221572146e-03	1.705978455e-13
1.830000000e+00	6.096114312e-01	-9.244628410e-03	1.888406166e-13
1.840000000e+00	6.085481457e-01	-9.267688576e-03	1.679641678e-13
1.850000000e+00	6.074903967e-01	-9.290752696e-03	1.138674883e-13
1.860000000e+00	6.064381363e-01	-9.313820820e-03	1.458450362e-13
1.870000000e+00	6.053913174e-01	-9.336892996e-03	1.865295695e-13
1.880000000e+00	6.043498932e-01	-9.359969275e-03	1.008381415e-13
1.890000000e+00	6.033138178e-01	-9.383049704e-03	1.752468691e-13
1.900000000e+00	6.022830454e-01	-9.406134332e-03	1.421395763e-13
1.910000000e+00	6.012575311e-01	-9.429223205e-03	9.246238779e-14
1.920000000e+00	6.002372303e-01	-9.452316372e-03	1.799912099e-13
1.930000000e+00	5.992220992e-01	-9.475413878e-03	3.327223426e-13
1.940000000e+00	5.982120943e-01	-9.498515770e-03	1.127265462e-13
1.950000000e+00	5.972071726e-01	-9.521622092e-03	1.307229536e-13
1.960000000e+00	5.962072916e-01	-9.544732891e-03	9.111198394e-14
1.970000000e+00	5.952124095e-01	-9.567848211e-03	1.103175477e-13
1.980000000e+00	5.942224848e-01	-9.590968096e-03	2.163468409e-13
1.990000000e+00	5.932374765e-01	-9.614092590e-03	1.401568627e-13
2.000000000e+00	5.922573441e-01	-9.637221737e-03	2.629611822e-13
2.010000000e+00	5.912820475e-01	-9.660355578e-03	1.098945871e-13
2.020000000e+00	5.903115472e-01	-9.683494157e-03	1.629650464e-13
2.030000000e+00	5.893458040e-01	-9.706637516e-03	1.232327334e-13
2.040000000e+00	5.883847793e-01	-9.729785696e-03	6.749409561e-14
2.050000000e+00	5.874284347e-01	-9.752938738e-03	1.801730524e-13
2.060000000e+00	5.864767326e-01	-9.776096684e-03	1.227954126e-13
2.070000000e+00	5.855296354e-01	-9.799259574e-03	9.648727563e-14
2.080000000e+00	5.845871062e-01	-9.822427447e-03	9.564427987e-14
2.090000000e+00	5.836491085e-01	-9.845600343e-03	1.277379982e-13
2.100000000e+00	5.827156060e-01	-9.868778302e-03	1.012087646e-13
2.110000000e+00	5.817865632e-01	-9.891961362e-03	2.954497483e-13
2.120000000e+00	5.808619445e-01	-9.915149562e-03	1.181080202e-13
2.130000000e+00	5.799417151e-01	-9.938342939e-03	2.987453173e-13
2.140000000e+00	5.790258403e-01	-9.961541532e-03	8.428590995e-14
2.150000000e+00	5.781142861e-01	-9.984745378e-03	1.815617969e-13
2.160000000e+00	5.772070184e-01	-1.000795451e-02	3.730273623e-13
2.170000000e+00	5.763040040e-01	-1.003116897e-02	1.080380067e-13
2.180000000e+00	5.754052096e-01	-1.005438880e-02	2.835299692e-13
2.190000000e+00	5.745106026e-01	-1.007761402e-02	1.242716806e-13
2.200000000e+00	5.736201507e-01	-1.010084468e-02	1.285571628e-13
2.210000000e+00	5.727338216e-01	-1.012408080e-02	1.354035922e-13
2.220000000e+00	5.718515839e-01	-1.014732243e-02	1.867496857e-13
2.230000000e+00	5.709734061e-01	-1.017056960e-02	9.520550844e-14
2.240000000e+00	5.700992573e-01	-1.019382234e-02	1.403506343e-13
2.250000000e+00	5.692291067e-01	-1.021708068e-02	2.961097506e-13
2.260000000e+00	5.683629240e-01	-1.024034467e-02	1.970400529e-13
2.270000000e+00	5.675006791e-01	-1.026361433e-02	8.401740650e-14
2.280000000e+00	5.666423425e-01	-1.028688969e-02	1.031244956e-13
2.290000000e+00	5.657878845e-01	-1.031017080e-02	1.173816075e-13
2.300000000e+00	5.649372763e-01	-1.033345767e-02	2.090090899e-13
2.310000000e+00	5.640904888e-01	-1.035675035e-02	1.860782808e-13
2.320000000e+00	5.632474938e-01	-1.038004886e-02	4.856550829e-13
2.330000000e+00	5.624082630e-01	-1.040335323e-02	1.015654602e-13
2.340000000e+00	5.615727684e-01	-1.042666350e-02	7.422478212e-14
2.350000000e+00	5.607409825e-01	-1.044997970e-02	1.058110837e-13
2.360000000e+00	5.599128779e-01	-1.047330186e-02	1.014573926e-13
2.370000000e+00	5.590884277e-01	-1.049663000e-02	8.780909646e-14
2.380000000e+00	5.582676049e-01	-1.051996417e-02	1.076111551e-13
2.390000000e+00	5.574503832e-01	-1.054330437e-02	9.799227728e-14
2.400000000e+00	5.566367363e-01	-1.056665066e-02	5.457915361e-13
2.410000000e+00	5.558266382e-01	-1.059000305e-02	1.851985453e-13
2.420000000e+00	5.550200633e-01	-1.061336157e-02	2.451054637e-13
2.430000000e+00	5.542169861e-01	-1.063672626e-02	7.397220726e-14
2.440000000e+00	5.534173814e-01	-1.066009714e-02	1.346063350e-13
2.450000000e+00	5.526212243e-01	-1.068347424e-02	1.894782300e-13
2.460000000e+00	5.518284901e-01	-1.070685758e-02	8.545458092e-14
2.470000000e+00	5.510391544e-01	-1.073024719e-02	1.114409692e-13
2.480000000e+00	5.502531929e-01	-1.075364311e-02	1.767535116e-13
2.490000000e+00	5.494705818e-01	-1.077704535e-02	1.103063565e-13
2.500000000e+00	5.486912974e-01	-1.080045395e-02	8.148403589e-14
2.510000000e+00	5.479153161e-01	-1.082386893e-02	4.284630284e-14
2.520000000e+00	5.471426147e-01	-1.084729032e-02	8.533939993e-14
2.530000000e+00	5.463731701e-01	-1.087071814e-02	1.513475068e-13
2.540000000e+00	5.456069597e-01	-1.089415241e-02	1.294409710e-13
2.550000000e+00	5.448439608e-01	-1.091759317e-02	1.184824373e-13
2.560000000e+00	5.440841510e-01	-1.094104044e-02	1.585030014e-13
2.570000000e+00	5.433275083e-01	-1.096449424e-02	1.484285143e-13
2.580000000e+00	5.425740107e-01	-1.098795460e-02	1.407034132e-13
2.590000000e+00	5.418236365e-01	-1.101142155e-02	2.207869632e-13
2.600000000e+00	5.410763642e-01	-1.103489510e-02	9.182814638e-14
2.610000000e+00	5.403321725e-01	-1.105837528e-02	1.315059173e-13
2.620000000e+00	5.395910403e-01	-1.108186212e-02	1.426465183e-13
2.630000000e+00	5.388529468e-01	-1.110535563e-02	1.237681089e-13
2.640000000e+00	5.381178712e-01	-1.112885585e-02	2.416770204e-13
2.650000000e+00	5.373857930e-01	-1.115236279e-02	6.135506694e-14
2.660000000e+00	5.366566920e-01	-1.117587648e-02	1.133114227e-13
2.670000000e+00	5.359305481e-01	-1.119939695e-02	1.571607750e-13
2.680000000e+00	5.352073413e-01	-1.122292420e-02	4.709992657e-13
2.690000000e+00	5.344870518e-01	-1.124645827e-02	8.815485420e-14
2.700000000e+00	5.337696602e-01	-1.126999917e-02	2.209588166e-13
2.710000000e+00	5.330551471e-01	-1.129354694e-02	4.786079777e-13
2.720000000e+00	5.323434934e-01	-1.131710159e-02	1.400510152e-13
2.730000000e+00	5.316346799e-01	-1.134066314e-02	1.397068676e-13
2.740000000e+00	5.309286879e-01	-1.136423161e-02	8.058508148e-14
2.750000000e+00	5.302254987e-01	-1.138780703e-02	1.562475619e-13
2.760000000e+00	5.295250938e-01	-1.141138941e-02	2.401180389e-13
2.770000000e+00	5.288274550e-01	-1.143497878e-02	8.454339220e-14
2.780000000e+00	5.281325641e-01	-1.145857516e-02	6.471164687e-14
2.790000000e+00	5.274404031e-01	-1.148217857e-02	7.006591472e-14
2.800000000e+00	5.267509542e-01	-1.150578902e-02	8.326287798e-14
2.810000000e+00	5.260641997e-01	-1.152940654e-02	8.348244132e-14
2.820000000e+00	5.253801222e-01	-1.155303114e-02	9.650495099e-14
2.830000000e+00	5.246987043e-01	-1.157666286e-02	1.197025480e-13
2.840000000e+00	5.240199288e-01	-1.160030170e-02	3.149226819e-13
2.850000000e+00	5.233437788e-01	-1.162394768e-02	8.535557506e-14
2.860000000e+00	5.226702373e-01	-1.164760083e-02	9.552874000e-14
2.870000000e+00	5.219992877e-01	-1.167126116e-02	4.147793814e-13
2.880000000e+00	5.213309133e-01	-1.169492870e-02	7.616040936e-14
2.890000000e+00	5.206650978e-01	-1.171860345e-02	1.282669566e-13
2.900000000e+00	5.200018249e-01	-1.174228545e-02	8.464414898e-14
2.910000000e+00	5.193410784e-01	-1.176597470e-02	1.065971518e-13
2.920000000e+00	5.186828424e-01	-1.178967123e-02	2.952595136e-13
2.930000000e+00	5.180271010e-01	-1.181337505e-02	6.951505678e-14
2.940000000e+00	5.173738385e-01	-1.183708618e-02	2.677637217e-13
2.950000000e+00	5.167230393e-01	-1.186080464e-02	7.310841799e-14
2.960000000e+00	5.160746881e-01	-1.188453044e-02	1.026718172e-13
2.970000000e+00	5.154287695e-01	-1.190826361e-02	1.523838533e-13
2.980000000e+00	5.147852684e-01	-1.193200416e-02	1.010287244e-13
2.990000000e+00	5.141441697e-01	-1.195575211e-02	6.210740020e-13
3.000000000e+00	5.135054585e-01	-1.197950746e-02	3.624354480e-13
3.010000000e+00	5.128691200e-01	-1.200327025e-02	5.524140554e-14
3.020000000e+00	5.122351397e-01	-1.202704049e-02	5.171569125e-14
3.030000000e+00	5.116035029e-01	-1.205081819e-02	1.867574655e-13
3.040000000e+00	5.109741954e-01	-1.207460337e-02	1.068964476e-13
3.050000000e+00	5.103472027e-01	-1.209839605e-02	7.976880966e-14
3.060000000e+00	5.097225109e-01	-1.212219623e-02	1.387080941e-13
3.070000000e+00	5.091001058e-01	-1.214600394e-02	7.013835606e-14
3.080000000e+00	5.084799736e-01	-1.216981920e-02	1.544290396e-13
3.090000000e+00	5.078621004e-01	-1.219364201e-02	7.580831747e-14
3.100000000e+00	5.072464726e-01	-1.221747240e-02	2.927493072e-13
3.110000000e+00	5.066330766e-01	-1.224131038e-02	8.939798171e-14
3.120000000e+00	5.060218990e-01	-1.226515596e-02	8.962354017e-14
3.130000000e+00	5.054129264e-01	-1.228900916e-02	6.180114082e-14
3.140000000e+00	5.048061457e-01	-1.231286999e-02	3.574918139e-14
3.150000000e+00	5.042015437e-01	-1.233673847e-02	1.132549930e-13
3.160000000e+00	5.035991074e-01	-1.236061461e-02	9.108437769e-14
3.170000000e+00	5.029988240e-01	-1.238449843e-02	2.452356005e-13
3.180000000e+00	5.024006806e-01	-1.240838994e-02	8.998698346e-14
3.190000000e+00	5.018046646e-01	-1.243228916e-02	1.526829144e-13
3.200000000e+00	5.012107634e-01	-1.245619610e-02	2.099243856e-13
3.210000000e+00	5.006189645e-01	-1.248011077e-02	6.628031457e-14
3.220000000e+00	5.000292556e-01	-1.250403318e-02	3.577675394e-14
3.230000000e+00	4.994416244e-01	-1.252796336e-02	4.398241380e-13
3.240000000e+00	4.988560588e-01	-1.255190131e-02	7.882427104e-14
3.250000000e+00	4.982725466e-01	-1.257584705e-02	2.208423090e-14
3.260000000e+00	4.976910759e-01	-1.259980059e-02	2.202729766e-13
3.270000000e+00	4.971116349e-01	-1.262376194e-02	5.893894646e-13
3.280000000e+00	4.965342118e-01	-1.264773112e-02	3.280222081e-13
3.290000000e+00	4.959587948e-01	-1.267170814e-02	1.109370601e-13
3.300000000e+00	4.953853724e-01	-1.269569301e-02	1.090263883e-13
3.310000000e+00	4.948139332e-01	-1.271968575e-02	1.760725863e-13
3.320000000e+00	4.942444656e-01	-1.274368636e-02	1.249716668e-13
3.330000000e+00	4.936769585e-01	-1.276769487e-02	1.197197301e-13
3.340000000e+00	4.931114006e-01	-1.279171128e-02	1.031363727e-13
3.350000000e+00	4.925477808e-01	-1.281573560e-02	1.472584352e-13
3.360000000e+00	4.919860880e-01	-1.283976785e-02	4.299132776e-13
3.370000000e+00	4.914263113e-01	-1.286380804e-02	1.913756902e-13
3.380000000e+00	4.908684398e-01	-1.288785618e-02	1.788628214e-13
3.390000000e+00	4.903124627e-01	-1.291191228e-02	8.030719799e-14
3.400000000e+00	4.897583694e-01	-1.293597636e-02	1.659160615e-13
3.410000000e+00	4.892061493e-01	-1.296004842e-02	9.296750665e-14
3.420000000e+00	4.886557918e-01	-1.298412849e-02	1.630941808e-13
3.430000000e+00	4.881072864e-01	-1.300821656e-02	7.753848791e-14
3.440000000e+00	4.875606229e-01	-1.303231264e-02	3.301193978e-13
3.450000000e+00	4.870157910e-01	-1.305641677e-02	2.283585999e-13
3.460000000e+00	4.864727804e-01	-1.308052893e-02	8.361453645e-14
3.470000000e+00	4.859315810e-01	-1.310464915e-02	1.389765103e-13
3.480000000e+00	4.853921828e-01	-1.312877743e-02	4.363130863e-13
3.490000000e+00	4.848545758e-01	-1.315291378e-02	1.066352888e-13
3.500000000e+00	4.843187502e-01	-1.317705822e-02	2.698500922e-13
3.510000000e+00	4.837846961e-01	-1.320121076e-02	4.889712604e-13
3.520000000e+00	4.832524038e-01	-1.322537141e-02	1.352071608e-13
3.530000000e+00	4.827218636e-01	-1.324954017e-02	1.472355407e-13
3.540000000e+00	4.821930660e-01	-1.327371706e-02	9.835805328e-14
3.550000000e+00	4.816660014e-01	-1.329790208e-02	6.385095216e-14
3.560000000e+00	4.811406604e-01	-1.332209526e-02	1.234999737e-13
3.570000000e+00	4.806170336e-01	-1.334629659e-02	1.182186830e-13
3.580000000e+00	4.800951117e-01	-1.337050609e-02	7.034574940e-14
3.590000000e+00	4.795748856e-01	-1.339472377e-02	1.290161320e-13
3.600000000e+00	4.790563460e-01	-1.341894963e-02	4.837974379e-14
3.610000000e+00	4.785394838e-01	-1.344318370e-02	3.519319430e-14
3.620000000e+00	4.780242901e-01	-1.346742596e-02	7.745641823e-14
3.630000000e+00	4.775107559e-01	-1.349167645e-02	4.438773843e-13
3.640000000e+00	4.769988723e-01	-1.351593516e-02	4.286323656e-14
3.650000000e+00	4.764886304e-01	-1.354020210e-02	2.016841059e-13
3.660000000e+00	4.759800216e-01	-1.356447729e-02	1.350076848e-13
3.670000000e+00	4.754730371e-01	-1.358876074e-02	1.010301122e-13
3.680000000e+00	4.749676684e-01	-1.361305244e-02	2.671923035e-13
3.690000000e+00	4.744639068e-01	-1.363735241e-02	1.252646981e-13
3.700000000e+00	4.739617438e-01	-1.366166067e-02	1.708342850e-13
3.710000000e+00	4.734611711e-01	-1.368597722e-02	5.702805029e-13
3.720000000e+00	4.729621803e-01	-1.371030206e-02	1.062886496e-13
3.730000000e+00	4.724647630e-01	-1.373463521e-02	1.392826887e-13
3.740000000e+00	4.719689110e-01	-1.375897667e-02	8.833692362e-14
3.750000000e+00	4.714746161e-01	-1.378332646e-02	1.545814833e-13
3.760000000e+00	4.709818702e-01	-1.380768458e-02	1.428456278e-13
3.770000000e+00	4.704906652e-01	-1.383205104e-02	2.452354749e-13
3.780000000e+00	4.700009931e-01	-1.385642584e-02	1.875416456e-13
3.790000000e+00	4.695128459e-01	-1.388080901e-02	1.081246084e-13
3.800000000e+00	4.690262159e-01	-1.390520054e-02	5.309153367e-14
3.810000000e+00	4.685410950e-01	-1.392960044e-02	1.503312490e-13
3.820000000e+00	4.680574756e-01	-1.395400872e-02	1.298875534e-13
3.830000000e+00	4.675753499e-01	-1.397842540e-02	1.160204309e-13
3.840000000e+00	4.670947102e-01	-1.400285047e-02	1.166472505e-13
3.850000000e+00	4.666155489e-01	-1.402728394e-02	4.641582097e-14
3.860000000e+00	4.661378586e-01	-1.405172582e-02	1.342648480e-13
3.870000000e+00	4.656616316e-01	-1.407617613e-02	8.473387667e-14
3.880000000e+00	4.651868605e-01	-1.410063486e-02	1.542000665e-13
3.890000000e+00	4.647135379e-01	-1.412510203e-02	1.526088275e-13
3.900000000e+00	4.642416565e-01	-1.414957764e-02	2.436441785e-13
3.910000000e+00	4.637712089e-01	-1.417406170e-02	1.712072259e-13
3.920000000e+00	4.633021880e-01	-1.419855421e-02	8.842457688e-14
3.930000000e+00	4.628345865e-01	-1.422305519e-02	1.423754439e-13
3.940000000e+00	4.623683972e-01	-1.424756465e-02	1.526144408e-13
3.950000000e+00	4.619036132e-01	-1.427208257e-02	6.010809385e-14
3.960000000e+00	4.614402274e-01	-1.429660899e-02	7.385545364e-14
3.970000000e+00	4.609782327e-01	-1.432114390e-02	1.323328098e-13
3.980000000e+00	4.605176222e-01	-1.434568730e-02	1.854605880e-13
3.990000000e+00	4.600583891e-01	-1.437023921e-02	1.617582374e-13
4.000000000e+00	4.596005264e-01	-1.439479964e-02	6.434851118e-14
4.010000000e+00	4.591440274e-01	-1.441936858e-02	1.368378590e-13
4.020000000e+00	4.586888854e-01	-1.444394605e-02	2.022557003e-13
4.030000000e+00	4.582350935e-01	-1.446853205e-02	1.351969501e-13
4.040000000e+00	4.577826453e-01	-1.449312659e-02	9.195066558e-14
