# Re(epsi1)     Omega/c [1/micrones]    Im(epsi1)     Eq(det).Opt det SIN kz, mu = 0.6 eV, R = 0.25 micrones, solve_det_sinkz_vs_re_epsi1.py
1.000000000e+00	4.172127531e-01	-2.303346055e-02	5.243945013e-14
1.010000000e+00	4.161988400e-01	-2.297270237e-02	1.284913369e-13
1.020000000e+00	4.151921871e-01	-2.291280951e-02	1.622908760e-13
1.030000000e+00	4.141927092e-01	-2.285376994e-02	1.239007434e-13
1.040000000e+00	4.132003224e-01	-2.279557186e-02	1.350163122e-13
1.050000000e+00	4.122149443e-01	-2.273820368e-02	1.580668334e-13
1.060000000e+00	4.112364936e-01	-2.268165401e-02	1.115151502e-13
1.070000000e+00	4.102648906e-01	-2.262591172e-02	1.086618591e-13
1.080000000e+00	4.093000565e-01	-2.257096583e-02	7.192832118e-14
1.090000000e+00	4.083419140e-01	-2.251680561e-02	1.586514165e-13
1.100000000e+00	4.073903871e-01	-2.246342050e-02	9.391391347e-14
1.110000000e+00	4.064454006e-01	-2.241080014e-02	1.102692691e-13
1.120000000e+00	4.055068809e-01	-2.235893436e-02	1.057864869e-13
1.130000000e+00	4.045747554e-01	-2.230781317e-02	1.452461232e-13
1.140000000e+00	4.036489525e-01	-2.225742677e-02	6.924709074e-14
1.150000000e+00	4.027294018e-01	-2.220776552e-02	1.632366377e-13
1.160000000e+00	4.018160340e-01	-2.215881997e-02	1.305116159e-13
1.170000000e+00	4.009087808e-01	-2.211058083e-02	1.656564018e-13
1.180000000e+00	4.000075752e-01	-2.206303897e-02	7.316127551e-14
1.190000000e+00	3.991123507e-01	-2.201618543e-02	1.629479235e-13
1.200000000e+00	3.982230423e-01	-2.197001140e-02	1.480478995e-13
1.210000000e+00	3.973395857e-01	-2.192450823e-02	1.210730787e-13
1.220000000e+00	3.964619177e-01	-2.187966742e-02	1.452693657e-13
1.230000000e+00	3.955899760e-01	-2.183548062e-02	7.801989616e-14
1.240000000e+00	3.947236992e-01	-2.179193961e-02	1.113081258e-13
1.250000000e+00	3.938630267e-01	-2.174903634e-02	1.364245722e-13
1.260000000e+00	3.930078991e-01	-2.170676286e-02	2.516031157e-13
1.270000000e+00	3.921582577e-01	-2.166511139e-02	1.260237410e-13
1.280000000e+00	3.913140445e-01	-2.162407426e-02	1.551325666e-13
1.290000000e+00	3.904752026e-01	-2.158364395e-02	7.305166792e-14
1.300000000e+00	3.896416757e-01	-2.154381304e-02	1.266795608e-13
1.310000000e+00	3.888134086e-01	-2.150457426e-02	1.512688369e-13
1.320000000e+00	3.879903467e-01	-2.146592045e-02	1.348231478e-13
1.330000000e+00	3.871724362e-01	-2.142784456e-02	4.623090020e-14
1.340000000e+00	3.863596240e-01	-2.139033968e-02	8.384705354e-14
1.350000000e+00	3.855518579e-01	-2.135339900e-02	1.463498417e-13
1.360000000e+00	3.847490863e-01	-2.131701582e-02	9.020892147e-14
1.370000000e+00	3.839512585e-01	-2.128118355e-02	7.788842109e-14
1.380000000e+00	3.831583245e-01	-2.124589572e-02	1.679643077e-13
1.390000000e+00	3.823702347e-01	-2.121114595e-02	1.484287323e-13
1.400000000e+00	3.815869406e-01	-2.117692797e-02	1.132079126e-13
1.410000000e+00	3.808083940e-01	-2.114323561e-02	1.271649890e-13
1.420000000e+00	3.800345478e-01	-2.111006280e-02	1.173322436e-13
1.430000000e+00	3.792653550e-01	-2.107740357e-02	5.301376702e-14
1.440000000e+00	3.785007698e-01	-2.104525203e-02	1.619109674e-13
1.450000000e+00	3.777407467e-01	-2.101360241e-02	1.736068279e-13
1.460000000e+00	3.769852409e-01	-2.098244902e-02	1.455614192e-13
1.470000000e+00	3.762342081e-01	-2.095178624e-02	1.247007356e-13
1.480000000e+00	3.754876048e-01	-2.092160856e-02	2.023881781e-13
1.490000000e+00	3.747453880e-01	-2.089191055e-02	7.884602337e-14
1.500000000e+00	3.740075152e-01	-2.086268687e-02	6.866252026e-14
1.510000000e+00	3.732739446e-01	-2.083393226e-02	8.618792269e-14
1.520000000e+00	3.725446349e-01	-2.080564153e-02	1.430105596e-13
1.530000000e+00	3.718195453e-01	-2.077780959e-02	1.195287089e-13
1.540000000e+00	3.710986357e-01	-2.075043140e-02	1.756930326e-13
1.550000000e+00	3.703818662e-01	-2.072350204e-02	5.180235229e-14
1.560000000e+00	3.696691978e-01	-2.069701661e-02	1.973621288e-13
1.570000000e+00	3.689605918e-01	-2.067097034e-02	9.971651287e-14
1.580000000e+00	3.682560100e-01	-2.064535849e-02	1.995176806e-13
1.590000000e+00	3.675554148e-01	-2.062017641e-02	1.689244373e-13
1.600000000e+00	3.668587691e-01	-2.059541951e-02	5.205706010e-14
1.610000000e+00	3.661660361e-01	-2.057108329e-02	1.168302834e-13
1.620000000e+00	3.654771797e-01	-2.054716329e-02	2.064379950e-13
1.630000000e+00	3.647921641e-01	-2.052365513e-02	6.984732929e-14
1.640000000e+00	3.641109540e-01	-2.050055450e-02	1.226605027e-13
1.650000000e+00	3.634335145e-01	-2.047785714e-02	2.282003692e-13
1.660000000e+00	3.627598113e-01	-2.045555886e-02	1.078690407e-13
1.670000000e+00	3.620898104e-01	-2.043365553e-02	7.230101031e-14
1.680000000e+00	3.614234783e-01	-2.041214308e-02	7.189446339e-14
1.690000000e+00	3.607607818e-01	-2.039101750e-02	1.650212387e-13
1.700000000e+00	3.601016882e-01	-2.037027483e-02	1.247074815e-13
1.710000000e+00	3.594461653e-01	-2.034991119e-02	1.044980024e-13
1.720000000e+00	3.587941812e-01	-2.032992273e-02	9.726586950e-14
1.730000000e+00	3.581457043e-01	-2.031030566e-02	1.202377174e-13
1.740000000e+00	3.575007035e-01	-2.029105626e-02	9.905986712e-14
1.750000000e+00	3.568591482e-01	-2.027217085e-02	7.988176176e-14
1.760000000e+00	3.562210079e-01	-2.025364580e-02	2.029450508e-13
1.770000000e+00	3.555862527e-01	-2.023547753e-02	5.505873052e-14
1.780000000e+00	3.549548529e-01	-2.021766252e-02	1.017846420e-13
1.790000000e+00	3.543267794e-01	-2.020019730e-02	2.547634135e-13
1.800000000e+00	3.537020032e-01	-2.018307844e-02	8.555354874e-14
1.810000000e+00	3.530804957e-01	-2.016630256e-02	6.708193616e-14
1.820000000e+00	3.524622288e-01	-2.014986633e-02	7.332922224e-14
1.830000000e+00	3.518471746e-01	-2.013376646e-02	1.279179413e-13
1.840000000e+00	3.512353054e-01	-2.011799970e-02	6.711445110e-14
1.850000000e+00	3.506265942e-01	-2.010256287e-02	1.288207311e-13
1.860000000e+00	3.500210140e-01	-2.008745281e-02	1.475785123e-13
1.870000000e+00	3.494185382e-01	-2.007266642e-02	9.567894442e-14
1.880000000e+00	3.488191406e-01	-2.005820061e-02	1.485813697e-13
1.890000000e+00	3.482227952e-01	-2.004405237e-02	8.454233974e-14
1.900000000e+00	3.476294764e-01	-2.003021871e-02	1.759146915e-13
1.910000000e+00	3.470391588e-01	-2.001669669e-02	1.206681973e-13
1.920000000e+00	3.464518174e-01	-2.000348339e-02	1.294550516e-13
1.930000000e+00	3.458674274e-01	-1.999057596e-02	3.582109470e-14
1.940000000e+00	3.452859642e-01	-1.997797156e-02	1.030324988e-13
1.950000000e+00	3.447074039e-01	-1.996566740e-02	2.184665335e-13
1.960000000e+00	3.441317223e-01	-1.995366072e-02	9.118414182e-14
1.970000000e+00	3.435588958e-01	-1.994194882e-02	6.230147477e-14
1.980000000e+00	3.429889012e-01	-1.993052900e-02	1.487266119e-13
1.990000000e+00	3.424217151e-01	-1.991939862e-02	9.838970643e-14
2.000000000e+00	3.418573149e-01	-1.990855506e-02	2.480295776e-13
2.010000000e+00	3.412956779e-01	-1.989799575e-02	1.814255254e-13
2.020000000e+00	3.407367818e-01	-1.988771813e-02	9.640054839e-14
2.030000000e+00	3.401806045e-01	-1.987771971e-02	7.853221737e-14
2.040000000e+00	3.396271241e-01	-1.986799799e-02	1.075958054e-13
2.050000000e+00	3.390763190e-01	-1.985855053e-02	1.147187735e-13
2.060000000e+00	3.385281680e-01	-1.984937491e-02	1.361443096e-13
2.070000000e+00	3.379826498e-01	-1.984046874e-02	1.525971661e-13
2.080000000e+00	3.374397436e-01	-1.983182967e-02	1.102581464e-13
2.090000000e+00	3.368994287e-01	-1.982345537e-02	1.888076188e-13
2.100000000e+00	3.363616847e-01	-1.981534355e-02	1.076371421e-13
2.110000000e+00	3.358264914e-01	-1.980749193e-02	8.697883995e-14
2.120000000e+00	3.352938288e-01	-1.979989828e-02	7.894619131e-14
2.130000000e+00	3.347636771e-01	-1.979256038e-02	1.643269059e-13
2.140000000e+00	3.342360167e-01	-1.978547605e-02	1.146377213e-13
2.150000000e+00	3.337108285e-01	-1.977864314e-02	6.212340211e-14
2.160000000e+00	3.331880931e-01	-1.977205950e-02	9.404789936e-14
2.170000000e+00	3.326677916e-01	-1.976572305e-02	1.854880677e-13
2.180000000e+00	3.321499054e-01	-1.975963170e-02	1.960191817e-13
2.190000000e+00	3.316344159e-01	-1.975378339e-02	2.913241770e-13
2.200000000e+00	3.311213048e-01	-1.974817611e-02	9.669195261e-14
2.210000000e+00	3.306105540e-01	-1.974280784e-02	1.467328293e-13
2.220000000e+00	3.301021454e-01	-1.973767662e-02	2.268401659e-13
2.230000000e+00	3.295960614e-01	-1.973278048e-02	2.995800648e-13
2.240000000e+00	3.290922844e-01	-1.972811749e-02	7.054910987e-14
2.250000000e+00	3.285907970e-01	-1.972368575e-02	1.866519206e-13
2.260000000e+00	3.280915820e-01	-1.971948337e-02	1.349860254e-13
2.270000000e+00	3.275946224e-01	-1.971550850e-02	2.402790482e-13
2.280000000e+00	3.270999013e-01	-1.971175928e-02	8.755966937e-14
2.290000000e+00	3.266074021e-01	-1.970823390e-02	8.997398703e-14
2.300000000e+00	3.261171082e-01	-1.970493057e-02	9.989157628e-14
2.310000000e+00	3.256290035e-01	-1.970184751e-02	7.050117814e-14
2.320000000e+00	3.251430716e-01	-1.969898297e-02	2.556922986e-13
2.330000000e+00	3.246592966e-01	-1.969633520e-02	1.083278604e-13
2.340000000e+00	3.241776626e-01	-1.969390251e-02	1.985732985e-13
2.350000000e+00	3.236981541e-01	-1.969168319e-02	7.705435698e-14
2.360000000e+00	3.232207555e-01	-1.968967558e-02	9.490543727e-14
2.370000000e+00	3.227454514e-01	-1.968787801e-02	1.368005423e-13
2.380000000e+00	3.222722266e-01	-1.968628885e-02	1.674114811e-13
2.390000000e+00	3.218010662e-01	-1.968490649e-02	9.706435917e-14
2.400000000e+00	3.213319551e-01	-1.968372933e-02	6.262327722e-14
2.410000000e+00	3.208648788e-01	-1.968275579e-02	6.399896491e-14
2.420000000e+00	3.203998225e-01	-1.968198431e-02	7.500328964e-14
2.430000000e+00	3.199367718e-01	-1.968141335e-02	9.554635080e-14
2.440000000e+00	3.194757125e-01	-1.968104137e-02	2.419972013e-13
2.450000000e+00	3.190166303e-01	-1.968086688e-02	3.532353217e-13
2.460000000e+00	3.185595112e-01	-1.968088837e-02	1.673388971e-13
2.470000000e+00	3.181043414e-01	-1.968110438e-02	1.117343367e-13
2.480000000e+00	3.176511071e-01	-1.968151345e-02	1.476681765e-13
2.490000000e+00	3.171997947e-01	-1.968211414e-02	8.572519704e-14
2.500000000e+00	3.167503907e-01	-1.968290501e-02	5.074268838e-14
2.510000000e+00	3.163028817e-01	-1.968388466e-02	2.506046849e-13
2.520000000e+00	3.158572545e-01	-1.968505170e-02	7.574668975e-14
2.530000000e+00	3.154134961e-01	-1.968640475e-02	1.264711181e-13
2.540000000e+00	3.149715935e-01	-1.968794244e-02	1.505379009e-13
2.550000000e+00	3.145315338e-01	-1.968966343e-02	1.604665602e-13
2.560000000e+00	3.140933044e-01	-1.969156639e-02	2.568200059e-13
2.570000000e+00	3.136568925e-01	-1.969364998e-02	7.320336146e-14
2.580000000e+00	3.132222858e-01	-1.969591292e-02	2.231970856e-13
2.590000000e+00	3.127894719e-01	-1.969835390e-02	8.961406727e-14
2.600000000e+00	3.123584386e-01	-1.970097166e-02	1.967172657e-13
2.610000000e+00	3.119291737e-01	-1.970376493e-02	1.017246049e-13
2.620000000e+00	3.115016652e-01	-1.970673246e-02	2.055409051e-13
2.630000000e+00	3.110759013e-01	-1.970987302e-02	6.661858544e-14
2.640000000e+00	3.106518701e-01	-1.971318538e-02	9.039930899e-14
2.650000000e+00	3.102295600e-01	-1.971666834e-02	1.069724082e-13
2.660000000e+00	3.098089594e-01	-1.972032069e-02	7.856553851e-14
2.670000000e+00	3.093900569e-01	-1.972414127e-02	1.039907599e-13
2.680000000e+00	3.089728411e-01	-1.972812889e-02	8.773096214e-14
2.690000000e+00	3.085573008e-01	-1.973228240e-02	4.422622575e-14
2.700000000e+00	3.081434249e-01	-1.973660064e-02	4.420133516e-13
2.710000000e+00	3.077312022e-01	-1.974108250e-02	4.238468155e-14
2.720000000e+00	3.073206219e-01	-1.974572684e-02	1.112301637e-13
2.730000000e+00	3.069116732e-01	-1.975053256e-02	1.736388899e-13
2.740000000e+00	3.065043453e-01	-1.975549855e-02	1.089786828e-13
2.750000000e+00	3.060986276e-01	-1.976062373e-02	7.958326532e-14
2.760000000e+00	3.056945095e-01	-1.976590703e-02	9.655034602e-14
2.770000000e+00	3.052919806e-01	-1.977134737e-02	3.120279194e-13
2.780000000e+00	3.048910306e-01	-1.977694371e-02	1.611978934e-13
2.790000000e+00	3.044916492e-01	-1.978269500e-02	1.502124880e-13
2.800000000e+00	3.040938262e-01	-1.978860021e-02	1.436587410e-13
2.810000000e+00	3.036975516e-01	-1.979465832e-02	2.753001265e-13
2.820000000e+00	3.033028154e-01	-1.980086831e-02	3.011763125e-13
2.830000000e+00	3.029096077e-01	-1.980722919e-02	1.433748049e-13
2.840000000e+00	3.025179188e-01	-1.981373996e-02	9.775839984e-14
2.850000000e+00	3.021277388e-01	-1.982039965e-02	6.859730381e-13
2.860000000e+00	3.017390581e-01	-1.982720728e-02	9.137884154e-14
2.870000000e+00	3.013518674e-01	-1.983416190e-02	1.923485982e-13
2.880000000e+00	3.009661569e-01	-1.984126255e-02	9.370604603e-14
2.890000000e+00	3.005819175e-01	-1.984850828e-02	9.330002787e-14
2.900000000e+00	3.001991398e-01	-1.985589818e-02	1.002051163e-13
2.910000000e+00	2.998178146e-01	-1.986343131e-02	3.240273913e-13
2.920000000e+00	2.994379327e-01	-1.987110676e-02	1.014751740e-13
2.930000000e+00	2.990594852e-01	-1.987892362e-02	1.727454315e-13
2.940000000e+00	2.986824630e-01	-1.988688101e-02	6.372682579e-14
2.950000000e+00	2.983068573e-01	-1.989497803e-02	1.028638408e-13
2.960000000e+00	2.979326593e-01	-1.990321380e-02	1.526712183e-13
2.970000000e+00	2.975598601e-01	-1.991158746e-02	2.354712631e-13
2.980000000e+00	2.971884512e-01	-1.992009815e-02	1.133772560e-13
2.990000000e+00	2.968184240e-01	-1.992874501e-02	3.228672866e-13
3.000000000e+00	2.964497699e-01	-1.993752719e-02	7.512929329e-14
3.010000000e+00	2.960824806e-01	-1.994644387e-02	2.238601686e-13
3.020000000e+00	2.957165475e-01	-1.995549421e-02	8.769034906e-14
3.030000000e+00	2.953519625e-01	-1.996467740e-02	1.366338175e-13
3.040000000e+00	2.949887173e-01	-1.997399262e-02	1.390150965e-13
3.050000000e+00	2.946268038e-01	-1.998343907e-02	2.612420833e-13
3.060000000e+00	2.942662139e-01	-1.999301594e-02	1.554685007e-13
3.070000000e+00	2.939069395e-01	-2.000272246e-02	1.281459025e-13
3.080000000e+00	2.935489727e-01	-2.001255785e-02	7.087676311e-14
3.090000000e+00	2.931923056e-01	-2.002252132e-02	3.709879012e-13
3.100000000e+00	2.928369304e-01	-2.003261211e-02	1.009788123e-13
3.110000000e+00	2.924828394e-01	-2.004282946e-02	1.528557786e-13
3.120000000e+00	2.921300248e-01	-2.005317262e-02	1.164056002e-13
3.130000000e+00	2.917784791e-01	-2.006364085e-02	7.934204010e-14
3.140000000e+00	2.914281946e-01	-2.007423340e-02	1.555620161e-13
3.150000000e+00	2.910791639e-01	-2.008494955e-02	2.681272962e-13
3.160000000e+00	2.907313795e-01	-2.009578857e-02	1.183708626e-13
3.170000000e+00	2.903848342e-01	-2.010674974e-02	1.065814104e-13
3.180000000e+00	2.900395204e-01	-2.011783236e-02	3.507441462e-13
3.190000000e+00	2.896954311e-01	-2.012903572e-02	6.582379737e-14
3.200000000e+00	2.893525589e-01	-2.014035912e-02	3.744758563e-13
3.210000000e+00	2.890108968e-01	-2.015180187e-02	1.370193453e-13
3.220000000e+00	2.886704378e-01	-2.016336328e-02	8.915694024e-14
3.230000000e+00	2.883311746e-01	-2.017504269e-02	1.869328848e-13
3.240000000e+00	2.879931005e-01	-2.018683940e-02	1.098790061e-13
3.250000000e+00	2.876562085e-01	-2.019875277e-02	3.458749582e-13
3.260000000e+00	2.873204918e-01	-2.021078213e-02	7.251636940e-14
3.270000000e+00	2.869859435e-01	-2.022292682e-02	1.119494778e-13
3.280000000e+00	2.866525569e-01	-2.023518619e-02	9.532316960e-14
3.290000000e+00	2.863203254e-01	-2.024755962e-02	7.366329768e-14
3.300000000e+00	2.859892422e-01	-2.026004645e-02	2.934247885e-13
3.310000000e+00	2.856593009e-01	-2.027264606e-02	6.666020256e-14
3.320000000e+00	2.853304949e-01	-2.028535782e-02	2.491959881e-13
3.330000000e+00	2.850028177e-01	-2.029818111e-02	1.157176383e-13
3.340000000e+00	2.846762628e-01	-2.031111533e-02	1.932559004e-13
3.350000000e+00	2.843508240e-01	-2.032415985e-02	1.230553892e-13
3.360000000e+00	2.840264949e-01	-2.033731409e-02	6.213599991e-14
3.370000000e+00	2.837032693e-01	-2.035057743e-02	1.792470803e-13
3.380000000e+00	2.833811408e-01	-2.036394930e-02	6.475620269e-14
3.390000000e+00	2.830601034e-01	-2.037742910e-02	1.036742049e-13
3.400000000e+00	2.827401508e-01	-2.039101624e-02	8.728132539e-14
3.410000000e+00	2.824212771e-01	-2.040471016e-02	9.803520770e-14
3.420000000e+00	2.821034762e-01	-2.041851028e-02	2.603655084e-13
3.430000000e+00	2.817867421e-01	-2.043241604e-02	1.578049934e-13
3.440000000e+00	2.814710689e-01	-2.044642687e-02	1.032309374e-13
3.450000000e+00	2.811564507e-01	-2.046054222e-02	4.938386953e-14
3.460000000e+00	2.808428816e-01	-2.047476153e-02	4.900980798e-14
3.470000000e+00	2.805303558e-01	-2.048908426e-02	2.600359962e-13
3.480000000e+00	2.802188677e-01	-2.050350986e-02	1.870494266e-13
3.490000000e+00	2.799084114e-01	-2.051803780e-02	5.857195352e-13
3.500000000e+00	2.795989813e-01	-2.053266755e-02	1.556910463e-13
3.510000000e+00	2.792905718e-01	-2.054739857e-02	1.127026760e-13
3.520000000e+00	2.789831772e-01	-2.056223035e-02	1.153444384e-13
3.530000000e+00	2.786767922e-01	-2.057716236e-02	1.428109464e-13
3.540000000e+00	2.783714111e-01	-2.059219408e-02	1.443289932e-13
3.550000000e+00	2.780670285e-01	-2.060732502e-02	6.211662105e-13
3.560000000e+00	2.777636391e-01	-2.062255465e-02	9.318510316e-14
3.570000000e+00	2.774612373e-01	-2.063788248e-02	1.210420112e-13
3.580000000e+00	2.771598179e-01	-2.065330802e-02	5.263748140e-14
3.590000000e+00	2.768593757e-01	-2.066883076e-02	1.280885744e-13
3.600000000e+00	2.765599053e-01	-2.068445022e-02	1.412753564e-13
3.610000000e+00	2.762614015e-01	-2.070016591e-02	1.025534979e-13
3.620000000e+00	2.759638591e-01	-2.071597735e-02	7.776145438e-14
3.630000000e+00	2.756672731e-01	-2.073188407e-02	8.615330671e-14
3.640000000e+00	2.753716384e-01	-2.074788559e-02	7.843432983e-14
3.650000000e+00	2.750769497e-01	-2.076398145e-02	1.646236140e-13
3.660000000e+00	2.747832023e-01	-2.078017116e-02	1.403163903e-13
3.670000000e+00	2.744903910e-01	-2.079645429e-02	9.675924874e-14
3.680000000e+00	2.741985109e-01	-2.081283036e-02	9.670501409e-14
3.690000000e+00	2.739075571e-01	-2.082929893e-02	9.454825106e-14
3.700000000e+00	2.736175247e-01	-2.084585954e-02	1.101707290e-13
3.710000000e+00	2.733284089e-01	-2.086251174e-02	9.532931148e-14
3.720000000e+00	2.730402049e-01	-2.087925510e-02	9.207444412e-14
3.730000000e+00	2.727529080e-01	-2.089608918e-02	1.733237094e-13
3.740000000e+00	2.724665132e-01	-2.091301353e-02	1.211646693e-13
3.750000000e+00	2.721810161e-01	-2.093002773e-02	2.919189944e-14
3.760000000e+00	2.718964119e-01	-2.094713135e-02	8.983789984e-14
3.770000000e+00	2.716126959e-01	-2.096432397e-02	6.557596462e-14
3.780000000e+00	2.713298637e-01	-2.098160516e-02	1.520290720e-13
3.790000000e+00	2.710479105e-01	-2.099897450e-02	1.521341410e-13
3.800000000e+00	2.707668320e-01	-2.101643157e-02	7.497386722e-14
3.810000000e+00	2.704866235e-01	-2.103397598e-02	1.523838533e-13
3.820000000e+00	2.702072806e-01	-2.105160730e-02	1.065897367e-13
3.830000000e+00	2.699287989e-01	-2.106932514e-02	6.429648435e-14
3.840000000e+00	2.696511740e-01	-2.108712909e-02	2.039225619e-13
3.850000000e+00	2.693744015e-01	-2.110501876e-02	4.751264290e-13
3.860000000e+00	2.690984770e-01	-2.112299374e-02	1.048459879e-13
3.870000000e+00	2.688233963e-01	-2.114105365e-02	7.956295393e-14
3.880000000e+00	2.685491551e-01	-2.115919810e-02	1.214249049e-13
3.890000000e+00	2.682757491e-01	-2.117742669e-02	9.287772088e-14
3.900000000e+00	2.680031741e-01	-2.119573906e-02	6.332248484e-13
3.910000000e+00	2.677314259e-01	-2.121413481e-02	1.225215617e-13
3.920000000e+00	2.674605003e-01	-2.123261357e-02	2.039907317e-13
3.930000000e+00	2.671903933e-01	-2.125117497e-02	1.514982612e-13
3.940000000e+00	2.669211006e-01	-2.126981863e-02	2.972037176e-13
3.950000000e+00	2.666526183e-01	-2.128854419e-02	8.383242525e-14
3.960000000e+00	2.663849424e-01	-2.130735128e-02	2.867895832e-13
3.970000000e+00	2.661180686e-01	-2.132623954e-02	1.109130583e-13
3.980000000e+00	2.658519932e-01	-2.134520861e-02	2.352525651e-13
3.990000000e+00	2.655867121e-01	-2.136425813e-02	8.689635542e-14
4.000000000e+00	2.653222214e-01	-2.138338774e-02	2.970202100e-13
4.010000000e+00	2.650585172e-01	-2.140259711e-02	2.534209240e-13
4.020000000e+00	2.647955955e-01	-2.142188587e-02	1.123885875e-13
4.030000000e+00	2.645334527e-01	-2.144125368e-02	6.118930520e-14
4.040000000e+00	2.642720847e-01	-2.146070019e-02	8.559151704e-14
