# R [micrones]     Omega/c [1/micrones]    Im(epsi1)     Eq(det).Opt det SIN kz, mu = 0.6 eV, Re(epsi1)=3.90, solve_det_sinkz_vs_R.py
1.000000000e-01	9.452999845e-01	-1.340187880e-02	3.163730466e-21
1.500000000e-01	7.746429577e-01	-1.121117200e-02	1.601715632e-20
2.000000000e-01	6.719258034e-01	-1.007432811e-02	1.008677931e-20
2.500000000e-01	6.014496301e-01	-9.389307495e-03	2.772608037e-20
3.000000000e-01	5.492415157e-01	-8.942295659e-03	9.894240059e-20
3.500000000e-01	5.085607295e-01	-8.636838015e-03	8.602865311e-20
4.000000000e-01	4.757031988e-01	-8.422619948e-03	1.121005918e-19
4.500000000e-01	4.484423792e-01	-8.270677174e-03	1.714038270e-19
5.000000000e-01	4.253486994e-01	-8.163099523e-03	2.598047585e-19
5.500000000e-01	4.054566817e-01	-8.088193057e-03	2.429080202e-19
6.000000000e-01	3.880876115e-01	-8.037988728e-03	2.560496321e-19
6.500000000e-01	3.727485621e-01	-8.006864960e-03	3.796394391e-19
7.000000000e-01	3.590717318e-01	-7.990741577e-03	6.650767325e-19
7.500000000e-01	3.467763576e-01	-7.986585607e-03	5.312862933e-19
8.000000000e-01	3.356439036e-01	-7.992096294e-03	3.623783796e-19
8.500000000e-01	3.255013794e-01	-8.005497603e-03	2.963032425e-19
9.000000000e-01	3.162098196e-01	-8.025397618e-03	9.323105074e-19
9.500000000e-01	3.076561340e-01	-8.050690883e-03	1.164301015e-18
1.000000000e+00	2.997472254e-01	-8.080489103e-03	1.308769213e-18
1.050000000e+00	2.924056617e-01	-8.114071022e-03	8.576919651e-19
1.100000000e+00	2.855664422e-01	-8.150845543e-03	1.477005975e-18
1.150000000e+00	2.791745429e-01	-8.190324186e-03	1.504929367e-18
1.200000000e+00	2.731830299e-01	-8.232100228e-03	1.019264706e-18
1.250000000e+00	2.675515915e-01	-8.275832708e-03	3.469321218e-18
1.300000000e+00	2.622453832e-01	-8.321234028e-03	8.800280999e-19
1.350000000e+00	2.572341090e-01	-8.368060234e-03	2.922077323e-18
1.400000000e+00	2.524912861e-01	-8.416103334e-03	1.865890521e-18
1.450000000e+00	2.479936484e-01	-8.465185162e-03	1.278588939e-18
1.500000000e+00	2.437206610e-01	-8.515152447e-03	3.633585767e-18
1.550000000e+00	2.396541214e-01	-8.565872818e-03	2.041630556e-18
1.600000000e+00	2.357778292e-01	-8.617231543e-03	1.899305807e-18
1.650000000e+00	2.320773119e-01	-8.669128850e-03	3.615162022e-18
1.700000000e+00	2.285395943e-01	-8.721477711e-03	3.099108303e-18
1.750000000e+00	2.251530054e-01	-8.774202011e-03	3.956730081e-18
1.800000000e+00	2.219070145e-01	-8.827235007e-03	4.568669605e-18
1.850000000e+00	2.187920916e-01	-8.880518038e-03	6.782405714e-18
1.900000000e+00	2.157995882e-01	-8.933999443e-03	5.887793358e-18
1.950000000e+00	2.129216356e-01	-8.987633639e-03	4.465758205e-18
2.000000000e+00	2.101510562e-01	-9.041380335e-03	7.947127285e-18
2.050000000e+00	2.074812878e-01	-9.095203865e-03	3.505288840e-18
2.100000000e+00	2.049063169e-01	-9.149072618e-03	1.005493779e-17
2.150000000e+00	2.024206214e-01	-9.202958541e-03	7.755663379e-18
2.200000000e+00	2.000191199e-01	-9.256836717e-03	5.322885787e-18
2.250000000e+00	1.976971278e-01	-9.310684996e-03	4.543477485e-18
2.300000000e+00	1.954503179e-01	-9.364483676e-03	1.217586195e-17
2.350000000e+00	1.932746862e-01	-9.418215223e-03	8.241916326e-18
2.400000000e+00	1.911665217e-01	-9.471864030e-03	4.325514072e-18
2.450000000e+00	1.891223792e-01	-9.525416207e-03	7.003897866e-18
2.500000000e+00	1.871390553e-01	-9.578859389e-03	1.436475943e-17
2.550000000e+00	1.852135670e-01	-9.632182577e-03	1.472982025e-17
2.600000000e+00	1.833431326e-01	-9.685375990e-03	1.839606320e-17
2.650000000e+00	1.815251547e-01	-9.738430939e-03	6.557685588e-18
2.700000000e+00	1.797572043e-01	-9.791339717e-03	8.814290822e-18
2.750000000e+00	1.780370078e-01	-9.844095493e-03	8.422059499e-18
2.800000000e+00	1.763624335e-01	-9.896692226e-03	1.154007088e-17
2.850000000e+00	1.747314812e-01	-9.949124588e-03	6.306684532e-18
2.900000000e+00	1.731422716e-01	-1.000138789e-02	1.482175805e-17
2.950000000e+00	1.715930370e-01	-1.005347802e-02	7.941780913e-18
3.000000000e+00	1.700821130e-01	-1.010539138e-02	1.585929453e-17
3.050000000e+00	1.686079309e-01	-1.015712486e-02	7.988162948e-18
3.100000000e+00	1.671690107e-01	-1.020867576e-02	2.005786038e-17
3.150000000e+00	1.657639547e-01	-1.026004177e-02	3.637823012e-17
3.200000000e+00	1.643914418e-01	-1.031122092e-02	2.419913123e-17
3.250000000e+00	1.630502222e-01	-1.036221156e-02	2.636623875e-17
3.300000000e+00	1.617391122e-01	-1.041301234e-02	2.009040020e-17
3.350000000e+00	1.604569903e-01	-1.046362214e-02	2.539075463e-17
3.400000000e+00	1.592027927e-01	-1.051404009e-02	1.386984626e-17
3.450000000e+00	1.579755095e-01	-1.056426554e-02	2.405449262e-17
3.500000000e+00	1.567741815e-01	-1.061429801e-02	2.884738978e-17
3.550000000e+00	1.555978967e-01	-1.066413721e-02	3.168023236e-17
3.600000000e+00	1.544457876e-01	-1.071378302e-02	2.772769271e-17
3.650000000e+00	1.533170282e-01	-1.076323542e-02	1.883941670e-17
3.700000000e+00	1.522108317e-01	-1.081249457e-02	1.697819716e-17
3.750000000e+00	1.511264479e-01	-1.086156071e-02	1.839566521e-17
3.800000000e+00	1.500631613e-01	-1.091043421e-02	1.864859138e-17
3.850000000e+00	1.490202888e-01	-1.095911552e-02	2.846300631e-17
3.900000000e+00	1.479971783e-01	-1.100760518e-02	1.638944316e-17
3.950000000e+00	1.469932061e-01	-1.105590383e-02	1.243522651e-17
4.000000000e+00	1.460077761e-01	-1.110401215e-02	1.279054574e-17
4.050000000e+00	1.450403180e-01	-1.115193089e-02	4.578079383e-17
4.100000000e+00	1.440902857e-01	-1.119966088e-02	6.046425724e-17
4.150000000e+00	1.431571562e-01	-1.124720297e-02	2.697227005e-17
4.200000000e+00	1.422404283e-01	-1.129455807e-02	2.515442162e-17
4.250000000e+00	1.413396214e-01	-1.134172715e-02	4.568065104e-17
4.300000000e+00	1.404542744e-01	-1.138871118e-02	2.006011890e-17
4.350000000e+00	1.395839449e-01	-1.143551119e-02	2.593850317e-17
4.400000000e+00	1.387282081e-01	-1.148212822e-02	3.678187470e-17
4.450000000e+00	1.378866556e-01	-1.152856336e-02	3.794030295e-17
4.500000000e+00	1.370588952e-01	-1.157481770e-02	4.526576341e-17
4.550000000e+00	1.362445496e-01	-1.162089235e-02	4.224936599e-17
4.600000000e+00	1.354432561e-01	-1.166678845e-02	2.736597297e-17
4.650000000e+00	1.346546652e-01	-1.171250714e-02	2.215635618e-17
4.700000000e+00	1.338784409e-01	-1.175804959e-02	2.488961946e-17
4.750000000e+00	1.331142592e-01	-1.180341696e-02	7.959547987e-17
4.800000000e+00	1.323618080e-01	-1.184861043e-02	4.793133425e-17
4.850000000e+00	1.316207866e-01	-1.189363119e-02	7.014999361e-17
4.900000000e+00	1.308909048e-01	-1.193848042e-02	3.661334042e-17
4.950000000e+00	1.301718829e-01	-1.198315931e-02	4.564398646e-17
5.000000000e+00	1.294634508e-01	-1.202766906e-02	7.678554887e-17
5.050000000e+00	1.287653478e-01	-1.207201086e-02	4.516985647e-17
5.100000000e+00	1.280773221e-01	-1.211618591e-02	7.539543530e-17
5.150000000e+00	1.273991305e-01	-1.216019540e-02	5.524901252e-17
5.200000000e+00	1.267305380e-01	-1.220404052e-02	6.501756160e-17
5.250000000e+00	1.260713174e-01	-1.224772246e-02	8.287052453e-17
5.300000000e+00	1.254212489e-01	-1.229124241e-02	3.934788616e-17
5.350000000e+00	1.247801201e-01	-1.233460154e-02	5.832856946e-17
5.400000000e+00	1.241477251e-01	-1.237780104e-02	5.248092218e-17
5.450000000e+00	1.235238650e-01	-1.242084206e-02	3.690781955e-17
5.500000000e+00	1.229083471e-01	-1.246372578e-02	4.789512183e-17
5.550000000e+00	1.223009846e-01	-1.250645335e-02	4.271185580e-17
5.600000000e+00	1.217015966e-01	-1.254902592e-02	1.073594249e-16
5.650000000e+00	1.211100081e-01	-1.259144464e-02	4.019314508e-17
5.700000000e+00	1.205260489e-01	-1.263371064e-02	6.903160902e-17
5.750000000e+00	1.199495545e-01	-1.267582505e-02	1.231386020e-16
5.800000000e+00	1.193803650e-01	-1.271778898e-02	4.628433124e-17
5.850000000e+00	1.188183255e-01	-1.275960356e-02	9.436682587e-17
5.900000000e+00	1.182632855e-01	-1.280126988e-02	1.546361558e-16
5.950000000e+00	1.177150991e-01	-1.284278903e-02	5.681732470e-17
6.000000000e+00	1.171736245e-01	-1.288416210e-02	1.064226112e-16
6.050000000e+00	1.166387240e-01	-1.292539016e-02	5.209771948e-17
6.100000000e+00	1.161102641e-01	-1.296647429e-02	5.892599573e-17
6.150000000e+00	1.155881146e-01	-1.300741554e-02	9.670428520e-17
6.200000000e+00	1.150721495e-01	-1.304821495e-02	5.501907417e-17
6.250000000e+00	1.145622460e-01	-1.308887356e-02	1.170313077e-16
6.300000000e+00	1.140582847e-01	-1.312939240e-02	6.796056090e-17
6.350000000e+00	1.135601495e-01	-1.316977250e-02	4.792716286e-17
6.400000000e+00	1.130677278e-01	-1.321001485e-02	1.013778278e-16
6.450000000e+00	1.125809095e-01	-1.325012047e-02	7.634683137e-17
6.500000000e+00	1.120995878e-01	-1.329009033e-02	5.259974638e-17
6.550000000e+00	1.116236588e-01	-1.332992542e-02	7.963688705e-17
6.600000000e+00	1.111530211e-01	-1.336962671e-02	7.498995280e-17
6.650000000e+00	1.106875761e-01	-1.340919516e-02	6.523009277e-17
6.700000000e+00	1.102272277e-01	-1.344863172e-02	5.451569747e-17
6.750000000e+00	1.097718825e-01	-1.348793734e-02	9.070858012e-17
6.800000000e+00	1.093214492e-01	-1.352711295e-02	6.744848675e-17
6.850000000e+00	1.088758390e-01	-1.356615946e-02	7.167761884e-17
6.900000000e+00	1.084349653e-01	-1.360507780e-02	7.415950785e-17
6.950000000e+00	1.079987436e-01	-1.364386886e-02	9.201986002e-17
7.000000000e+00	1.075670918e-01	-1.368253355e-02	9.838597173e-17
7.050000000e+00	1.071399295e-01	-1.372107274e-02	5.927324607e-17
7.100000000e+00	1.067171783e-01	-1.375948732e-02	9.259524540e-17
7.150000000e+00	1.062987619e-01	-1.379777816e-02	1.560102931e-16
7.200000000e+00	1.058846058e-01	-1.383594610e-02	1.656142808e-16
7.250000000e+00	1.054746372e-01	-1.387399200e-02	1.234972198e-16
7.300000000e+00	1.050687851e-01	-1.391191671e-02	1.328448943e-16
7.350000000e+00	1.046669801e-01	-1.394972104e-02	7.468845915e-17
7.400000000e+00	1.042691546e-01	-1.398740584e-02	7.594246114e-17
7.450000000e+00	1.038752425e-01	-1.402497190e-02	7.571153592e-17
7.500000000e+00	1.034851791e-01	-1.406242004e-02	1.766189138e-16
7.550000000e+00	1.030989015e-01	-1.409975106e-02	3.973767592e-17
7.600000000e+00	1.027163480e-01	-1.413696574e-02	1.083848877e-16
7.650000000e+00	1.023374583e-01	-1.417406486e-02	2.426467659e-16
7.700000000e+00	1.019621736e-01	-1.421104920e-02	1.738996666e-16
7.750000000e+00	1.015904363e-01	-1.424791953e-02	8.697536902e-17
7.800000000e+00	1.012221903e-01	-1.428467659e-02	7.358402747e-17
7.850000000e+00	1.008573804e-01	-1.432132115e-02	1.047176763e-16
7.900000000e+00	1.004959529e-01	-1.435785393e-02	2.405080120e-16
7.950000000e+00	1.001378553e-01	-1.439427567e-02	7.840277521e-17
8.000000000e+00	9.978303597e-02	-1.443058710e-02	8.625944526e-17
8.050000000e+00	9.943144463e-02	-1.446678894e-02	1.290730285e-16
8.100000000e+00	9.908303201e-02	-1.450288189e-02	1.395030026e-16
8.150000000e+00	9.873774989e-02	-1.453886666e-02	1.152545189e-16
8.200000000e+00	9.839555109e-02	-1.457474395e-02	1.815714932e-16
8.250000000e+00	9.805638942e-02	-1.461051444e-02	1.734732814e-16
8.300000000e+00	9.772021965e-02	-1.464617881e-02	1.484116507e-16
8.350000000e+00	9.738699751e-02	-1.468173775e-02	1.399090650e-16
8.400000000e+00	9.705667964e-02	-1.471719191e-02	2.089115098e-16
8.450000000e+00	9.672922358e-02	-1.475254196e-02	1.565115176e-16
8.500000000e+00	9.640458772e-02	-1.478778855e-02	1.259388010e-16
8.550000000e+00	9.608273134e-02	-1.482293232e-02	1.970038011e-16
8.600000000e+00	9.576361449e-02	-1.485797393e-02	1.097186116e-16
8.650000000e+00	9.544719807e-02	-1.489291400e-02	1.328048814e-16
8.700000000e+00	9.513344374e-02	-1.492775315e-02	1.926651594e-16
8.750000000e+00	9.482231393e-02	-1.496249202e-02	9.196349887e-17
8.800000000e+00	9.451377182e-02	-1.499713121e-02	7.577217933e-17
8.850000000e+00	9.420778130e-02	-1.503167134e-02	1.759174093e-16
8.900000000e+00	9.390430698e-02	-1.506611300e-02	1.509503672e-16
8.950000000e+00	9.360331414e-02	-1.510045679e-02	9.523800551e-17
9.000000000e+00	9.330476876e-02	-1.513470331e-02	2.570178348e-16
9.050000000e+00	9.300863745e-02	-1.516885313e-02	2.750967319e-16
9.100000000e+00	9.271488747e-02	-1.520290684e-02	8.912142785e-17
9.150000000e+00	9.242348671e-02	-1.523686500e-02	6.077400629e-17
9.200000000e+00	9.213440365e-02	-1.527072819e-02	3.355313930e-16
9.250000000e+00	9.184760737e-02	-1.530449697e-02	1.711715797e-16
9.300000000e+00	9.156306754e-02	-1.533817188e-02	1.171132363e-16
9.350000000e+00	9.128075438e-02	-1.537175349e-02	2.148628208e-16
9.400000000e+00	9.100063867e-02	-1.540524233e-02	1.309278450e-16
9.450000000e+00	9.072269172e-02	-1.543863895e-02	1.436492551e-16
9.500000000e+00	9.044688539e-02	-1.547194388e-02	1.532879467e-16
9.550000000e+00	9.017319201e-02	-1.550515765e-02	2.448968376e-16
9.600000000e+00	8.990158445e-02	-1.553828078e-02	1.946994541e-16
9.650000000e+00	8.963203606e-02	-1.557131379e-02	1.161894504e-16
9.700000000e+00	8.936452065e-02	-1.560425720e-02	4.372314085e-16
9.750000000e+00	8.909901252e-02	-1.563711151e-02	2.168146561e-16
9.800000000e+00	8.883548642e-02	-1.566987723e-02	1.604294013e-16
9.850000000e+00	8.857391753e-02	-1.570255486e-02	1.243194199e-16
9.900000000e+00	8.831428150e-02	-1.573514489e-02	1.916032267e-16
9.950000000e+00	8.805655436e-02	-1.576764781e-02	1.437273076e-16
1.000000000e+01	8.780071261e-02	-1.580006410e-02	9.104862098e-17
1.005000000e+01	8.754673311e-02	-1.583239425e-02	9.217288831e-17
1.010000000e+01	8.729459315e-02	-1.586463874e-02	8.584185678e-17
1.015000000e+01	8.704427039e-02	-1.589679802e-02	1.507280486e-16
1.020000000e+01	8.679574288e-02	-1.592887258e-02	1.652704054e-16
1.025000000e+01	8.654898904e-02	-1.596086287e-02	2.509005483e-16
1.030000000e+01	8.630398766e-02	-1.599276934e-02	2.873563589e-16
1.035000000e+01	8.606071788e-02	-1.602459247e-02	1.351632310e-16
1.040000000e+01	8.581915919e-02	-1.605633268e-02	4.759745159e-16
1.045000000e+01	8.557929142e-02	-1.608799044e-02	1.818995618e-16
1.050000000e+01	8.534109473e-02	-1.611956618e-02	1.362911159e-16
1.055000000e+01	8.510454963e-02	-1.615106034e-02	2.610841282e-16
1.060000000e+01	8.486963692e-02	-1.618247334e-02	2.452617790e-16
1.065000000e+01	8.463633774e-02	-1.621380563e-02	1.872878838e-16
1.070000000e+01	8.440463350e-02	-1.624505763e-02	2.341764254e-16
1.075000000e+01	8.417450595e-02	-1.627622976e-02	1.945826239e-16
1.080000000e+01	8.394593712e-02	-1.630732243e-02	2.320261440e-16
1.085000000e+01	8.371890931e-02	-1.633833606e-02	2.646458718e-16
1.090000000e+01	8.349340513e-02	-1.636927106e-02	1.725901472e-16
1.095000000e+01	8.326940746e-02	-1.640012785e-02	1.863819554e-16
1.100000000e+01	8.304689942e-02	-1.643090681e-02	5.306422158e-16
1.105000000e+01	8.282586444e-02	-1.646160835e-02	3.991222561e-16
1.110000000e+01	8.260628619e-02	-1.649223287e-02	2.343775285e-16
1.115000000e+01	8.238814858e-02	-1.652278076e-02	3.842904550e-16
1.120000000e+01	8.217143580e-02	-1.655325240e-02	2.329992154e-16
1.125000000e+01	8.195613225e-02	-1.658364819e-02	1.668450116e-16
1.130000000e+01	8.174222260e-02	-1.661396851e-02	2.104367449e-16
1.135000000e+01	8.152969173e-02	-1.664421373e-02	6.035113890e-16
1.140000000e+01	8.131852478e-02	-1.667438423e-02	1.532252053e-16
1.145000000e+01	8.110870709e-02	-1.670448038e-02	3.583256892e-16
1.150000000e+01	8.090022423e-02	-1.673450255e-02	2.609122236e-16
1.155000000e+01	8.069306199e-02	-1.676445112e-02	1.530784837e-16
1.160000000e+01	8.048720636e-02	-1.679432643e-02	1.584363391e-16
1.165000000e+01	8.028264356e-02	-1.682412886e-02	2.297202653e-16
1.170000000e+01	8.007935999e-02	-1.685385875e-02	6.833226661e-17
1.175000000e+01	7.987734228e-02	-1.688351646e-02	1.629255392e-16
1.180000000e+01	7.967657723e-02	-1.691310235e-02	2.416955428e-16
1.185000000e+01	7.947705185e-02	-1.694261675e-02	3.186428729e-16
1.190000000e+01	7.927875334e-02	-1.697206002e-02	2.013615804e-16
1.195000000e+01	7.908166907e-02	-1.700143249e-02	1.164559440e-16
1.200000000e+01	7.888578660e-02	-1.703073452e-02	3.248647674e-16
1.205000000e+01	7.869109368e-02	-1.705996642e-02	2.416190213e-16
1.210000000e+01	7.849757823e-02	-1.708912854e-02	2.213131535e-16
1.215000000e+01	7.830522834e-02	-1.711822120e-02	1.697901536e-16
1.220000000e+01	7.811403226e-02	-1.714724474e-02	3.120745958e-16
1.225000000e+01	7.792397843e-02	-1.717619948e-02	5.493392130e-17
1.230000000e+01	7.773505544e-02	-1.720508574e-02	3.783417312e-16
1.235000000e+01	7.754725203e-02	-1.723390384e-02	2.050842010e-16
1.240000000e+01	7.736055711e-02	-1.726265410e-02	1.813774076e-16
1.245000000e+01	7.717495975e-02	-1.729133684e-02	4.209748350e-16
1.250000000e+01	7.699044917e-02	-1.731995236e-02	2.335581003e-16
1.255000000e+01	7.680701471e-02	-1.734850098e-02	2.222182053e-16
1.260000000e+01	7.662464591e-02	-1.737698301e-02	1.354231012e-16
1.265000000e+01	7.644333240e-02	-1.740539874e-02	2.648388794e-16
1.270000000e+01	7.626306398e-02	-1.743374849e-02	1.336160416e-16
1.275000000e+01	7.608383060e-02	-1.746203254e-02	1.871769155e-16
1.280000000e+01	7.590562232e-02	-1.749025121e-02	2.046294814e-16
1.285000000e+01	7.572842934e-02	-1.751840478e-02	2.199956015e-16
1.290000000e+01	7.555224201e-02	-1.754649355e-02	5.172879292e-16
1.295000000e+01	7.537705079e-02	-1.757451781e-02	5.673113768e-16
1.300000000e+01	7.520284627e-02	-1.760247784e-02	1.304291186e-16
1.305000000e+01	7.502961917e-02	-1.763037394e-02	2.927346079e-16
1.310000000e+01	7.485736033e-02	-1.765820638e-02	2.768096091e-16
1.315000000e+01	7.468606072e-02	-1.768597546e-02	2.610377456e-16
1.320000000e+01	7.451571142e-02	-1.771368144e-02	3.636210843e-16
1.325000000e+01	7.434630362e-02	-1.774132461e-02	5.967463537e-16
1.330000000e+01	7.417782864e-02	-1.776890524e-02	1.319573624e-16
1.335000000e+01	7.401027790e-02	-1.779642361e-02	3.433885876e-16
1.340000000e+01	7.384364295e-02	-1.782387998e-02	1.958715145e-16
1.345000000e+01	7.367791542e-02	-1.785127463e-02	3.967012781e-16
1.350000000e+01	7.351308707e-02	-1.787860782e-02	4.725542183e-16
1.355000000e+01	7.334914976e-02	-1.790587982e-02	3.502812921e-16
1.360000000e+01	7.318609544e-02	-1.793309089e-02	2.575235790e-16
1.365000000e+01	7.302391620e-02	-1.796024129e-02	4.268250210e-16
1.370000000e+01	7.286260418e-02	-1.798733129e-02	3.503013806e-16
1.375000000e+01	7.270215166e-02	-1.801436113e-02	1.383445796e-16
1.380000000e+01	7.254255099e-02	-1.804133108e-02	1.438070656e-16
1.385000000e+01	7.238379464e-02	-1.806824138e-02	2.736399615e-16
1.390000000e+01	7.222587515e-02	-1.809509229e-02	3.951055412e-16
1.395000000e+01	7.206878516e-02	-1.812188407e-02	1.968440930e-16
1.400000000e+01	7.191251742e-02	-1.814861695e-02	3.803078982e-16
1.405000000e+01	7.175706474e-02	-1.817529118e-02	4.250756207e-16
1.410000000e+01	7.160242004e-02	-1.820190701e-02	3.738802613e-16
1.415000000e+01	7.144857631e-02	-1.822846468e-02	2.939605060e-16
1.420000000e+01	7.129552665e-02	-1.825496443e-02	3.984177456e-16
1.425000000e+01	7.114326421e-02	-1.828140651e-02	2.138461261e-16
1.430000000e+01	7.099178226e-02	-1.830779114e-02	3.758142553e-16
1.435000000e+01	7.084107412e-02	-1.833411856e-02	6.122149441e-16
1.440000000e+01	7.069113321e-02	-1.836038901e-02	2.715019380e-16
1.445000000e+01	7.054195302e-02	-1.838660272e-02	3.467750481e-16
1.450000000e+01	7.039352712e-02	-1.841275993e-02	6.779411045e-16
1.455000000e+01	7.024584916e-02	-1.843886085e-02	4.265878320e-16
1.460000000e+01	7.009891286e-02	-1.846490572e-02	2.800397459e-16
1.465000000e+01	6.995271201e-02	-1.849089476e-02	4.297942063e-16
1.470000000e+01	6.980724049e-02	-1.851682821e-02	3.052983998e-16
1.475000000e+01	6.966249224e-02	-1.854270627e-02	3.089788685e-16
1.480000000e+01	6.951846126e-02	-1.856852917e-02	3.052452753e-16
1.485000000e+01	6.937514164e-02	-1.859429714e-02	3.937263582e-16
1.490000000e+01	6.923252754e-02	-1.862001038e-02	2.924259131e-16
1.495000000e+01	6.909061316e-02	-1.864566912e-02	3.700058813e-16
1.500000000e+01	6.894939281e-02	-1.867127358e-02	7.583902380e-16
1.505000000e+01	6.880886082e-02	-1.869682396e-02	2.207544853e-16
1.510000000e+01	6.866901161e-02	-1.872232047e-02	6.754304998e-16
1.515000000e+01	6.852983967e-02	-1.874776334e-02	4.271571670e-16
1.520000000e+01	6.839133953e-02	-1.877315276e-02	5.546921679e-16
1.525000000e+01	6.825350581e-02	-1.879848895e-02	3.974836583e-16
1.530000000e+01	6.811633316e-02	-1.882377211e-02	6.159713161e-16
