# R [micrones]     Omega/c [1/micrones]    Im(epsi1)     Eq(det).Opt det SIN kz, mu = 0.6 eV, Re(epsi1)=3.90, solve_det_sinkz_vs_R.py
1.000000000e-01	1.087291164e+00	-1.548275309e-02	2.571206924e-24
1.500000000e-01	8.922908599e-01	-1.268300251e-02	4.845214769e-24
2.000000000e-01	7.745728237e-01	-1.120912293e-02	3.108003644e-23
2.500000000e-01	6.936788291e-01	-1.030087948e-02	6.948266688e-23
3.000000000e-01	6.336969663e-01	-9.690476146e-03	2.033613747e-22
3.500000000e-01	5.869299700e-01	-9.257579152e-03	4.896874520e-22
4.000000000e-01	5.491405170e-01	-8.939520326e-03	4.132512373e-22
4.500000000e-01	5.177782686e-01	-8.700231389e-03	5.405700680e-22
5.000000000e-01	4.912041977e-01	-8.517391878e-03	1.188767510e-21
5.500000000e-01	4.683105513e-01	-8.376406042e-03	1.272665597e-21
6.000000000e-01	4.483181397e-01	-8.267306361e-03	4.410863425e-21
6.500000000e-01	4.306607936e-01	-8.183043274e-03	3.689440765e-21
7.000000000e-01	4.149158931e-01	-8.118484804e-03	3.162951986e-21
7.500000000e-01	4.007607221e-01	-8.069803302e-03	5.046023647e-21
8.000000000e-01	3.879440182e-01	-8.034084457e-03	4.117524815e-21
8.500000000e-01	3.762668371e-01	-8.009069622e-03	4.057971129e-21
9.000000000e-01	3.655693298e-01	-7.992981055e-03	7.693543333e-21
9.500000000e-01	3.557213880e-01	-7.984400435e-03	7.790742755e-21
1.000000000e+00	3.466158867e-01	-7.982182557e-03	5.170137167e-21
1.050000000e+00	3.381637143e-01	-7.985392818e-03	7.549182594e-21
1.100000000e+00	3.302900557e-01	-7.993261165e-03	1.593300523e-20
1.150000000e+00	3.229315720e-01	-8.005147643e-03	1.547988017e-20
1.200000000e+00	3.160342314e-01	-8.020516255e-03	2.073069747e-20
1.250000000e+00	3.095516216e-01	-8.038914892e-03	5.437545055e-20
1.300000000e+00	3.034436214e-01	-8.059959735e-03	3.053391267e-20
1.350000000e+00	2.976753447e-01	-8.083323006e-03	1.303711887e-20
1.400000000e+00	2.922162940e-01	-8.108723271e-03	2.391949308e-20
1.450000000e+00	2.870396746e-01	-8.135917671e-03	2.783395991e-20
1.500000000e+00	2.821218361e-01	-8.164695671e-03	1.854755449e-20
1.550000000e+00	2.774418131e-01	-8.194873979e-03	3.555232127e-20
1.600000000e+00	2.729809456e-01	-8.226292383e-03	4.630850116e-20
1.650000000e+00	2.687225629e-01	-8.258810337e-03	5.029160440e-20
1.700000000e+00	2.646517186e-01	-8.292304119e-03	8.542183211e-20
1.750000000e+00	2.607549685e-01	-8.326664471e-03	7.070581328e-20
1.800000000e+00	2.570201809e-01	-8.361794625e-03	1.897871868e-19
1.850000000e+00	2.534363771e-01	-8.397608632e-03	1.748575689e-19
1.900000000e+00	2.499935939e-01	-8.434029955e-03	1.789379308e-19
1.950000000e+00	2.466827655e-01	-8.470990275e-03	7.926019595e-20
2.000000000e+00	2.434956230e-01	-8.508428469e-03	1.068272659e-19
2.050000000e+00	2.404246056e-01	-8.546289733e-03	9.007900610e-20
2.100000000e+00	2.374627851e-01	-8.584524834e-03	6.824827553e-20
2.150000000e+00	2.346037992e-01	-8.623089458e-03	1.095201166e-19
2.200000000e+00	2.318417933e-01	-8.661943651e-03	1.455108002e-19
2.250000000e+00	2.291713698e-01	-8.701051329e-03	1.257444588e-19
2.300000000e+00	2.265875430e-01	-8.740379856e-03	1.744630945e-19
2.350000000e+00	2.240856995e-01	-8.779899668e-03	3.644163005e-19
2.400000000e+00	2.216615634e-01	-8.819583952e-03	2.148353209e-19
2.450000000e+00	2.193111652e-01	-8.859408357e-03	2.174398230e-19
2.500000000e+00	2.170308138e-01	-8.899350743e-03	2.093544267e-19
2.550000000e+00	2.148170721e-01	-8.939390961e-03	3.211400104e-19
2.600000000e+00	2.126667352e-01	-8.979510650e-03	2.957732569e-19
2.650000000e+00	2.105768099e-01	-9.019693071e-03	2.372769765e-19
2.700000000e+00	2.085444979e-01	-9.059922944e-03	4.026308500e-19
2.750000000e+00	2.065671792e-01	-9.100186312e-03	2.979958630e-19
2.800000000e+00	2.046423977e-01	-9.140470422e-03	4.873414662e-19
2.850000000e+00	2.027678488e-01	-9.180763608e-03	2.791698273e-19
2.900000000e+00	2.009413671e-01	-9.221055196e-03	5.433764040e-19
2.950000000e+00	1.991609157e-01	-9.261335415e-03	3.688015166e-19
3.000000000e+00	1.974245771e-01	-9.301595316e-03	3.390624987e-19
3.050000000e+00	1.957305437e-01	-9.341826702e-03	3.950144444e-19
3.100000000e+00	1.940771103e-01	-9.382022059e-03	3.577047314e-19
3.150000000e+00	1.924626666e-01	-9.422174506e-03	4.071372240e-19
3.200000000e+00	1.908856903e-01	-9.462277731e-03	7.013437918e-19
3.250000000e+00	1.893447414e-01	-9.502325951e-03	4.878996658e-19
3.300000000e+00	1.878384562e-01	-9.542313869e-03	3.194124745e-19
3.350000000e+00	1.863655426e-01	-9.582236628e-03	1.059371964e-18
3.400000000e+00	1.849247748e-01	-9.622089781e-03	1.165181857e-18
3.450000000e+00	1.835149894e-01	-9.661869255e-03	6.589652158e-19
3.500000000e+00	1.821350812e-01	-9.701571323e-03	6.647255676e-19
3.550000000e+00	1.807839996e-01	-9.741192577e-03	9.678250788e-19
3.600000000e+00	1.794607450e-01	-9.780729902e-03	8.070979996e-19
3.650000000e+00	1.781643659e-01	-9.820180453e-03	7.272766972e-19
3.700000000e+00	1.768939557e-01	-9.859541637e-03	8.388393618e-19
3.750000000e+00	1.756486504e-01	-9.898811089e-03	4.946411787e-19
3.800000000e+00	1.744276255e-01	-9.937986660e-03	1.128741766e-18
3.850000000e+00	1.732300943e-01	-9.977066398e-03	9.655661572e-19
3.900000000e+00	1.720553051e-01	-1.001604853e-02	1.839930461e-18
3.950000000e+00	1.709025399e-01	-1.005493146e-02	9.221475366e-19
4.000000000e+00	1.697711118e-01	-1.009371374e-02	1.021830639e-18
4.050000000e+00	1.686603638e-01	-1.013239408e-02	1.471296325e-18
4.100000000e+00	1.675696669e-01	-1.017097130e-02	1.653632260e-18
4.150000000e+00	1.664984185e-01	-1.020944437e-02	1.343701843e-18
4.200000000e+00	1.654460414e-01	-1.024781237e-02	1.109519487e-18
4.250000000e+00	1.644119820e-01	-1.028607447e-02	8.761275435e-19
4.300000000e+00	1.633957091e-01	-1.032422997e-02	1.534695440e-18
4.350000000e+00	1.623967132e-01	-1.036227823e-02	6.018196007e-19
4.400000000e+00	1.614145048e-01	-1.040021873e-02	1.239123511e-18
4.450000000e+00	1.604486137e-01	-1.043805099e-02	2.853704731e-18
4.500000000e+00	1.594985881e-01	-1.047577464e-02	1.238328280e-18
4.550000000e+00	1.585639936e-01	-1.051338936e-02	1.742474433e-18
4.600000000e+00	1.576444121e-01	-1.055089489e-02	1.106239379e-18
4.650000000e+00	1.567394413e-01	-1.058829106e-02	1.152064474e-18
4.700000000e+00	1.558486941e-01	-1.062557771e-02	1.433789752e-18
4.750000000e+00	1.549717975e-01	-1.066275476e-02	1.309796180e-18
4.800000000e+00	1.541083920e-01	-1.069982218e-02	2.150629507e-18
4.850000000e+00	1.532581312e-01	-1.073677997e-02	1.307624807e-18
4.900000000e+00	1.524206810e-01	-1.077362818e-02	6.664884881e-19
4.950000000e+00	1.515957192e-01	-1.081036689e-02	4.767751186e-18
5.000000000e+00	1.507829348e-01	-1.084699623e-02	1.976146938e-18
5.050000000e+00	1.499820275e-01	-1.088351635e-02	6.169246591e-18
5.100000000e+00	1.491927076e-01	-1.091992742e-02	2.426362840e-18
5.150000000e+00	1.484146948e-01	-1.095622967e-02	1.805866496e-18
5.200000000e+00	1.476477185e-01	-1.099242334e-02	4.119937280e-18
5.250000000e+00	1.468915171e-01	-1.102850867e-02	3.385732566e-18
5.300000000e+00	1.461458376e-01	-1.106448597e-02	1.694398865e-18
5.350000000e+00	1.454104353e-01	-1.110035554e-02	4.765294710e-18
5.400000000e+00	1.446850733e-01	-1.113611769e-02	3.751720682e-18
5.450000000e+00	1.439695224e-01	-1.117177278e-02	3.190381529e-18
5.500000000e+00	1.432635607e-01	-1.120732116e-02	4.318442959e-18
5.550000000e+00	1.425669733e-01	-1.124276321e-02	3.037865163e-18
5.600000000e+00	1.418795520e-01	-1.127809931e-02	3.734818299e-18
5.650000000e+00	1.412010949e-01	-1.131332986e-02	4.284966825e-18
5.700000000e+00	1.405314065e-01	-1.134845529e-02	3.639647745e-18
5.750000000e+00	1.398702971e-01	-1.138347600e-02	3.173954408e-18
5.800000000e+00	1.392175828e-01	-1.141839243e-02	1.120801681e-18
5.850000000e+00	1.385730852e-01	-1.145320503e-02	3.004759095e-18
5.900000000e+00	1.379366312e-01	-1.148791424e-02	3.361101687e-18
5.950000000e+00	1.373080526e-01	-1.152252052e-02	3.463637866e-18
6.000000000e+00	1.366871862e-01	-1.155702433e-02	3.594910238e-18
6.050000000e+00	1.360738738e-01	-1.159142614e-02	4.550620557e-18
6.100000000e+00	1.354679612e-01	-1.162572643e-02	2.507587251e-18
6.150000000e+00	1.348692991e-01	-1.165992568e-02	3.250902768e-18
6.200000000e+00	1.342777420e-01	-1.169402436e-02	6.426422001e-18
6.250000000e+00	1.336931487e-01	-1.172802298e-02	6.191539985e-18
6.300000000e+00	1.331153819e-01	-1.176192200e-02	5.375094109e-18
6.350000000e+00	1.325443080e-01	-1.179572194e-02	3.339728811e-18
6.400000000e+00	1.319797971e-01	-1.182942328e-02	4.152435618e-18
6.450000000e+00	1.314217228e-01	-1.186302653e-02	4.064842631e-18
6.500000000e+00	1.308699621e-01	-1.189653218e-02	3.578401438e-18
6.550000000e+00	1.303243952e-01	-1.192994072e-02	4.355172923e-18
6.600000000e+00	1.297849056e-01	-1.196325267e-02	4.058526016e-18
6.650000000e+00	1.292513799e-01	-1.199646853e-02	8.713733693e-18
6.700000000e+00	1.287237074e-01	-1.202958879e-02	4.555308304e-18
6.750000000e+00	1.282017806e-01	-1.206261396e-02	6.157894107e-18
6.800000000e+00	1.276854945e-01	-1.209554453e-02	3.772615927e-18
6.850000000e+00	1.271747469e-01	-1.212838102e-02	6.190327041e-18
6.900000000e+00	1.266694381e-01	-1.216112392e-02	7.451162809e-18
6.950000000e+00	1.261694711e-01	-1.219377374e-02	7.161683605e-18
7.000000000e+00	1.256747510e-01	-1.222633096e-02	6.645638540e-18
7.050000000e+00	1.251851855e-01	-1.225879609e-02	3.625893196e-18
7.100000000e+00	1.247006846e-01	-1.229116963e-02	3.581857870e-18
7.150000000e+00	1.242211603e-01	-1.232345207e-02	1.705576928e-18
7.200000000e+00	1.237465269e-01	-1.235564390e-02	1.598563757e-17
7.250000000e+00	1.232767007e-01	-1.238774562e-02	4.481508762e-18
7.300000000e+00	1.228115999e-01	-1.241975771e-02	8.475695251e-18
7.350000000e+00	1.223511448e-01	-1.245168067e-02	5.210900705e-18
7.400000000e+00	1.218952576e-01	-1.248351497e-02	6.614939309e-18
7.450000000e+00	1.214438622e-01	-1.251526111e-02	5.937062933e-18
7.500000000e+00	1.209968842e-01	-1.254691956e-02	6.078596964e-18
7.550000000e+00	1.205542512e-01	-1.257849080e-02	5.349494233e-18
7.600000000e+00	1.201158923e-01	-1.260997531e-02	5.789086941e-18
7.650000000e+00	1.196817382e-01	-1.264137356e-02	1.055123811e-17
7.700000000e+00	1.192517211e-01	-1.267268603e-02	8.117031128e-18
7.750000000e+00	1.188257748e-01	-1.270391318e-02	6.094116389e-18
7.800000000e+00	1.184038348e-01	-1.273505547e-02	1.392146187e-17
7.850000000e+00	1.179858377e-01	-1.276611338e-02	5.708075091e-18
7.900000000e+00	1.175717216e-01	-1.279708736e-02	2.103421118e-17
7.950000000e+00	1.171614261e-01	-1.282797787e-02	9.234213533e-18
8.000000000e+00	1.167548920e-01	-1.285878537e-02	6.190925278e-18
8.050000000e+00	1.163520613e-01	-1.288951030e-02	1.072902219e-17
8.100000000e+00	1.159528773e-01	-1.292015312e-02	1.176381780e-17
8.150000000e+00	1.155572848e-01	-1.295071427e-02	7.391537005e-18
8.200000000e+00	1.151652293e-01	-1.298119420e-02	4.358501428e-18
8.250000000e+00	1.147766578e-01	-1.301159335e-02	1.953941008e-17
8.300000000e+00	1.143915183e-01	-1.304191214e-02	1.377324799e-17
8.350000000e+00	1.140097598e-01	-1.307215103e-02	6.414633022e-18
8.400000000e+00	1.136313325e-01	-1.310231043e-02	1.648656016e-17
8.450000000e+00	1.132561876e-01	-1.313239078e-02	7.174339712e-18
8.500000000e+00	1.128842773e-01	-1.316239251e-02	7.815861203e-18
8.550000000e+00	1.125155546e-01	-1.319231603e-02	8.308186211e-18
8.600000000e+00	1.121499738e-01	-1.322216176e-02	1.046071246e-17
8.650000000e+00	1.117874898e-01	-1.325193013e-02	9.188058857e-18
8.700000000e+00	1.114280585e-01	-1.328162153e-02	1.232040679e-17
8.750000000e+00	1.110716368e-01	-1.331123640e-02	1.070001844e-17
8.800000000e+00	1.107181823e-01	-1.334077512e-02	8.735276621e-18
8.850000000e+00	1.103676536e-01	-1.337023811e-02	8.394981102e-18
8.900000000e+00	1.100200099e-01	-1.339962577e-02	1.557367234e-17
8.950000000e+00	1.096752113e-01	-1.342893849e-02	1.299960613e-17
9.000000000e+00	1.093332187e-01	-1.345817667e-02	1.761368857e-17
9.050000000e+00	1.089939938e-01	-1.348734070e-02	1.496458955e-17
9.100000000e+00	1.086574989e-01	-1.351643098e-02	1.413823846e-17
9.150000000e+00	1.083236971e-01	-1.354544788e-02	1.163520086e-17
9.200000000e+00	1.079925521e-01	-1.357439180e-02	1.224385806e-17
9.250000000e+00	1.076640285e-01	-1.360326310e-02	1.759052645e-17
9.300000000e+00	1.073380914e-01	-1.363206218e-02	5.377286713e-18
9.350000000e+00	1.070147065e-01	-1.366078940e-02	2.203996396e-17
9.400000000e+00	1.066938403e-01	-1.368944513e-02	1.045343604e-17
9.450000000e+00	1.063754598e-01	-1.371802975e-02	2.228977538e-17
9.500000000e+00	1.060595326e-01	-1.374654362e-02	1.326727041e-17
9.550000000e+00	1.057460270e-01	-1.377498710e-02	1.075422932e-17
9.600000000e+00	1.054349118e-01	-1.380336055e-02	9.260832129e-18
9.650000000e+00	1.051261564e-01	-1.383166434e-02	3.523052068e-17
9.700000000e+00	1.048197306e-01	-1.385989881e-02	1.879806852e-17
9.750000000e+00	1.045156050e-01	-1.388806432e-02	1.401814961e-17
9.800000000e+00	1.042137504e-01	-1.391616122e-02	2.860123198e-17
9.850000000e+00	1.039141385e-01	-1.394418985e-02	2.690767498e-17
9.900000000e+00	1.036167412e-01	-1.397215055e-02	1.672888218e-17
9.950000000e+00	1.033215311e-01	-1.400004368e-02	4.869146119e-17
1.000000000e+01	1.030284810e-01	-1.402786956e-02	2.227413422e-17
1.005000000e+01	1.027375644e-01	-1.405562854e-02	1.518027872e-17
1.010000000e+01	1.024487552e-01	-1.408332094e-02	2.611629658e-17
1.015000000e+01	1.021620278e-01	-1.411094710e-02	2.034884564e-17
1.020000000e+01	1.018773569e-01	-1.413850734e-02	1.829586970e-17
1.025000000e+01	1.015947178e-01	-1.416600199e-02	2.203507925e-17
1.030000000e+01	1.013140860e-01	-1.419343138e-02	3.118465400e-17
1.035000000e+01	1.010354377e-01	-1.422079581e-02	1.669671560e-17
1.040000000e+01	1.007587493e-01	-1.424809562e-02	1.422490830e-17
1.045000000e+01	1.004839975e-01	-1.427533112e-02	1.507246223e-17
1.050000000e+01	1.002111597e-01	-1.430250261e-02	1.195666776e-17
1.055000000e+01	9.994021334e-02	-1.432961041e-02	5.182918400e-18
1.060000000e+01	9.967113649e-02	-1.435665483e-02	3.236488768e-17
1.065000000e+01	9.940390745e-02	-1.438363617e-02	2.055919961e-17
1.070000000e+01	9.913850489e-02	-1.441055474e-02	2.614836602e-17
1.075000000e+01	9.887490783e-02	-1.443741083e-02	1.151859771e-17
1.080000000e+01	9.861309563e-02	-1.446420475e-02	2.556847251e-17
1.085000000e+01	9.835304798e-02	-1.449093680e-02	2.696942199e-17
1.090000000e+01	9.809474490e-02	-1.451760725e-02	1.720694010e-17
1.095000000e+01	9.783816673e-02	-1.454421642e-02	1.571028595e-17
1.100000000e+01	9.758329411e-02	-1.457076458e-02	2.310807224e-17
1.105000000e+01	9.733010799e-02	-1.459725202e-02	2.096238890e-17
1.110000000e+01	9.707858962e-02	-1.462367903e-02	1.830747283e-17
1.115000000e+01	9.682872054e-02	-1.465004590e-02	3.733687534e-17
1.120000000e+01	9.658048258e-02	-1.467635289e-02	1.880012629e-17
1.125000000e+01	9.633385785e-02	-1.470260030e-02	1.261120910e-17
1.130000000e+01	9.608882874e-02	-1.472878839e-02	1.776374750e-17
1.135000000e+01	9.584537790e-02	-1.475491744e-02	2.919534132e-17
1.140000000e+01	9.560348825e-02	-1.478098773e-02	3.268123588e-17
1.145000000e+01	9.536314298e-02	-1.480699951e-02	2.589587228e-17
1.150000000e+01	9.512432552e-02	-1.483295307e-02	3.231797883e-17
1.155000000e+01	9.488701955e-02	-1.485884866e-02	3.035887085e-17
1.160000000e+01	9.465120900e-02	-1.488468655e-02	2.895330196e-17
1.165000000e+01	9.441687805e-02	-1.491046701e-02	6.321616932e-17
1.170000000e+01	9.418401109e-02	-1.493619028e-02	1.649324737e-17
1.175000000e+01	9.395259278e-02	-1.496185664e-02	1.476248018e-17
1.180000000e+01	9.372260795e-02	-1.498746633e-02	3.552154597e-17
1.185000000e+01	9.349404171e-02	-1.501301961e-02	6.120811242e-17
1.190000000e+01	9.326687936e-02	-1.503851673e-02	1.889593418e-17
1.195000000e+01	9.304110641e-02	-1.506395794e-02	2.331331015e-17
1.200000000e+01	9.281670859e-02	-1.508934349e-02	2.844889500e-17
1.205000000e+01	9.259367183e-02	-1.511467363e-02	6.745820320e-17
1.210000000e+01	9.237198227e-02	-1.513994860e-02	4.705514532e-17
1.215000000e+01	9.215162624e-02	-1.516516864e-02	8.259951692e-17
1.220000000e+01	9.193259027e-02	-1.519033400e-02	4.773957873e-17
1.225000000e+01	9.171486109e-02	-1.521544491e-02	4.216963068e-17
1.230000000e+01	9.149842560e-02	-1.524050161e-02	3.631296675e-17
1.235000000e+01	9.128327089e-02	-1.526550434e-02	2.965351030e-17
1.240000000e+01	9.106938424e-02	-1.529045332e-02	4.577653101e-17
1.245000000e+01	9.085675309e-02	-1.531534881e-02	4.146569765e-17
1.250000000e+01	9.064536508e-02	-1.534019101e-02	3.181750258e-17
1.255000000e+01	9.043520800e-02	-1.536498017e-02	5.383095347e-17
1.260000000e+01	9.022626982e-02	-1.538971651e-02	3.127205116e-17
1.265000000e+01	9.001853867e-02	-1.541440025e-02	1.275390062e-17
1.270000000e+01	8.981200284e-02	-1.543903162e-02	2.558808379e-17
1.275000000e+01	8.960665078e-02	-1.546361084e-02	4.114642674e-17
1.280000000e+01	8.940247112e-02	-1.548813813e-02	3.655902924e-17
1.285000000e+01	8.919945261e-02	-1.551261371e-02	9.253027616e-17
1.290000000e+01	8.899758416e-02	-1.553703780e-02	4.339548823e-17
1.295000000e+01	8.879685485e-02	-1.556141062e-02	3.205466792e-17
1.300000000e+01	8.859725389e-02	-1.558573237e-02	4.291008879e-17
1.305000000e+01	8.839877062e-02	-1.561000328e-02	3.589128908e-17
1.310000000e+01	8.820139455e-02	-1.563422354e-02	5.950612437e-17
1.315000000e+01	8.800511531e-02	-1.565839338e-02	2.811650755e-17
1.320000000e+01	8.780992268e-02	-1.568251300e-02	3.487360188e-17
1.325000000e+01	8.761580655e-02	-1.570658260e-02	1.978190652e-17
1.330000000e+01	8.742275697e-02	-1.573060240e-02	3.351808091e-17
1.335000000e+01	8.723076411e-02	-1.575457259e-02	2.936462372e-17
1.340000000e+01	8.703981825e-02	-1.577849339e-02	5.752398569e-17
1.345000000e+01	8.684990982e-02	-1.580236498e-02	3.453639253e-17
1.350000000e+01	8.666102937e-02	-1.582618757e-02	2.266323861e-17
1.355000000e+01	8.647316756e-02	-1.584996136e-02	5.316164657e-17
1.360000000e+01	8.628631517e-02	-1.587368654e-02	7.070994516e-17
1.365000000e+01	8.610046310e-02	-1.589736331e-02	2.219754290e-17
1.370000000e+01	8.591560238e-02	-1.592099187e-02	1.953596790e-17
1.375000000e+01	8.573172413e-02	-1.594457241e-02	2.387467590e-17
1.380000000e+01	8.554881960e-02	-1.596810511e-02	4.529774069e-17
1.385000000e+01	8.536688014e-02	-1.599159017e-02	4.692269353e-17
1.390000000e+01	8.518589720e-02	-1.601502777e-02	3.677030399e-17
1.395000000e+01	8.500586236e-02	-1.603841812e-02	4.801977323e-17
1.400000000e+01	8.482676729e-02	-1.606176138e-02	5.095241425e-17
1.405000000e+01	8.464860376e-02	-1.608505775e-02	3.082740895e-17
1.410000000e+01	8.447136365e-02	-1.610830741e-02	7.235390047e-17
1.415000000e+01	8.429503893e-02	-1.613151054e-02	8.372902009e-17
1.420000000e+01	8.411962168e-02	-1.615466732e-02	6.811220383e-17
1.425000000e+01	8.394510406e-02	-1.617777793e-02	6.997662191e-17
1.430000000e+01	8.377147835e-02	-1.620084256e-02	3.819530394e-17
1.435000000e+01	8.359873690e-02	-1.622386138e-02	3.523976312e-17
1.440000000e+01	8.342687216e-02	-1.624683456e-02	5.276282885e-17
1.445000000e+01	8.325587668e-02	-1.626976229e-02	3.529943995e-17
1.450000000e+01	8.308574309e-02	-1.629264473e-02	4.355511717e-17
1.455000000e+01	8.291646410e-02	-1.631548206e-02	5.015458388e-17
1.460000000e+01	8.274803253e-02	-1.633827445e-02	3.085012455e-17
1.465000000e+01	8.258044126e-02	-1.636102206e-02	4.824114894e-17
1.470000000e+01	8.241368326e-02	-1.638372508e-02	4.677245582e-17
1.475000000e+01	8.224775161e-02	-1.640638367e-02	6.567761923e-17
1.480000000e+01	8.208263943e-02	-1.642899799e-02	2.194738046e-17
1.485000000e+01	8.191833995e-02	-1.645156822e-02	3.967604633e-17
1.490000000e+01	8.175484646e-02	-1.647409451e-02	5.936366428e-17
1.495000000e+01	8.159215235e-02	-1.649657703e-02	8.513381096e-17
1.500000000e+01	8.143025106e-02	-1.651901595e-02	9.003433406e-17
1.505000000e+01	8.126913612e-02	-1.654141142e-02	3.729312705e-17
1.510000000e+01	8.110880114e-02	-1.656376361e-02	2.027527024e-17
1.515000000e+01	8.094923979e-02	-1.658607267e-02	6.052088398e-17
1.520000000e+01	8.079044583e-02	-1.660833877e-02	6.027716171e-17
1.525000000e+01	8.063241306e-02	-1.663056206e-02	5.995672937e-17
1.530000000e+01	8.047513539e-02	-1.665274270e-02	9.934075090e-17
