# R [micrones]     Omega/c [1/micrones]    Im(epsi1)     Eq(det).Opt det SIN kz, mu = 0.6 eV, Re(epsi1)=3.90, solve_det_sinkz_vs_R.py
1.000000000e-01	5.497463192e-01	-8.956146854e-03	9.186987109e-16
1.500000000e-01	4.490632394e-01	-8.287476063e-03	1.210404782e-15
2.000000000e-01	3.888050700e-01	-8.057412278e-03	1.972077175e-15
2.500000000e-01	3.475780162e-01	-8.008446277e-03	1.593536058e-15
3.000000000e-01	3.170868614e-01	-8.049577796e-03	2.565032000e-15
3.500000000e-01	2.933513862e-01	-8.140494755e-03	1.538733963e-15
4.000000000e-01	2.741921113e-01	-8.260718762e-03	4.643805840e-15
4.500000000e-01	2.583021756e-01	-8.398843749e-03	1.111022341e-15
5.000000000e-01	2.448440352e-01	-8.548084949e-03	3.337872121e-15
5.500000000e-01	2.332528408e-01	-8.704204819e-03	1.122768382e-15
6.000000000e-01	2.231319531e-01	-8.864457095e-03	3.075514480e-15
6.500000000e-01	2.141935636e-01	-9.027011029e-03	2.616545806e-15
7.000000000e-01	2.062230778e-01	-9.190619812e-03	2.494568739e-15
7.500000000e-01	1.990567832e-01	-9.354420911e-03	3.903496831e-15
8.000000000e-01	1.925673153e-01	-9.517811289e-03	1.712277577e-15
8.500000000e-01	1.866538974e-01	-9.680366958e-03	2.346829963e-15
9.000000000e-01	1.812356026e-01	-9.841789711e-03	2.765799946e-15
9.500000000e-01	1.762465931e-01	-1.000187104e-02	6.190666673e-15
1.000000000e+00	1.716326841e-01	-1.016046719e-02	4.769772675e-15
1.050000000e+00	1.673488186e-01	-1.031748165e-02	3.665136097e-15
1.100000000e+00	1.633571803e-01	-1.047285262e-02	3.064494984e-15
1.150000000e+00	1.596257623e-01	-1.062654397e-02	8.191099754e-15
1.200000000e+00	1.561272675e-01	-1.077853862e-02	7.920205141e-15
1.250000000e+00	1.528382529e-01	-1.092883366e-02	3.406118453e-15
1.300000000e+00	1.497384568e-01	-1.107743669e-02	3.629279081e-15
1.350000000e+00	1.468102643e-01	-1.122436311e-02	8.049628462e-15
1.400000000e+00	1.440382779e-01	-1.136963399e-02	4.662429505e-15
1.450000000e+00	1.414089716e-01	-1.151327457e-02	2.520137115e-15
1.500000000e+00	1.389104074e-01	-1.165531300e-02	3.005722316e-15
1.550000000e+00	1.365320037e-01	-1.179577947e-02	4.671772183e-15
1.600000000e+00	1.342643431e-01	-1.193470546e-02	5.368989126e-15
1.650000000e+00	1.320990123e-01	-1.207212326e-02	4.802693950e-15
1.700000000e+00	1.300284688e-01	-1.220806547e-02	7.506153291e-15
1.750000000e+00	1.280459283e-01	-1.234256477e-02	1.068245844e-14
1.800000000e+00	1.261452690e-01	-1.247565362e-02	1.670619824e-15
1.850000000e+00	1.243209508e-01	-1.260736412e-02	4.609301955e-15
1.900000000e+00	1.225679461e-01	-1.273772783e-02	5.849487051e-15
1.950000000e+00	1.208816803e-01	-1.286677572e-02	2.738996565e-15
2.000000000e+00	1.192579806e-01	-1.299453804e-02	2.687929011e-15
2.050000000e+00	1.176930318e-01	-1.312104433e-02	3.747301856e-15
2.100000000e+00	1.161833373e-01	-1.324632333e-02	6.608337723e-15
2.150000000e+00	1.147256866e-01	-1.337040302e-02	4.900023189e-15
2.200000000e+00	1.133171248e-01	-1.349331057e-02	3.519341388e-15
2.250000000e+00	1.119549278e-01	-1.361507233e-02	7.018035822e-15
2.300000000e+00	1.106365792e-01	-1.373571389e-02	3.733661844e-15
2.350000000e+00	1.093597503e-01	-1.385526004e-02	6.163533052e-15
2.400000000e+00	1.081222829e-01	-1.397373480e-02	2.164944671e-15
2.450000000e+00	1.069221730e-01	-1.409116145e-02	4.913342729e-15
2.500000000e+00	1.057575572e-01	-1.420756252e-02	1.300456844e-14
2.550000000e+00	1.046267002e-01	-1.432295985e-02	5.861883975e-15
2.600000000e+00	1.035279837e-01	-1.443737457e-02	4.577634201e-15
2.650000000e+00	1.024598965e-01	-1.455082715e-02	5.612024710e-15
2.700000000e+00	1.014210254e-01	-1.466333742e-02	7.710742150e-15
2.750000000e+00	1.004100471e-01	-1.477492457e-02	4.688377213e-15
2.800000000e+00	9.942572131e-02	-1.488560720e-02	6.010616897e-15
2.850000000e+00	9.846688379e-02	-1.499540331e-02	6.135231998e-15
2.900000000e+00	9.753244066e-02	-1.510433037e-02	1.805614044e-14
2.950000000e+00	9.662136296e-02	-1.521240529e-02	5.858639290e-15
3.000000000e+00	9.573268179e-02	-1.531964444e-02	9.847367564e-15
3.050000000e+00	9.486548382e-02	-1.542606374e-02	4.470754827e-15
3.100000000e+00	9.401890730e-02	-1.553167858e-02	4.951340711e-15
3.150000000e+00	9.319213835e-02	-1.563650390e-02	6.594812607e-15
3.200000000e+00	9.238440759e-02	-1.574055422e-02	4.851102345e-15
3.250000000e+00	9.159498705e-02	-1.584384358e-02	5.142193127e-15
3.300000000e+00	9.082318736e-02	-1.594638566e-02	7.567720291e-15
3.350000000e+00	9.006835513e-02	-1.604819369e-02	3.859826418e-15
3.400000000e+00	8.932987056e-02	-1.614928056e-02	2.885404497e-15
3.450000000e+00	8.860714529e-02	-1.624965877e-02	9.126244356e-15
3.500000000e+00	8.789962034e-02	-1.634934046e-02	3.737383753e-15
3.550000000e+00	8.720676425e-02	-1.644833744e-02	5.885556556e-15
3.600000000e+00	8.652807136e-02	-1.654666119e-02	5.110584146e-15
3.650000000e+00	8.586306023e-02	-1.664432286e-02	7.872637674e-15
3.700000000e+00	8.521127216e-02	-1.674133330e-02	6.318571387e-15
3.750000000e+00	8.457226980e-02	-1.683770307e-02	6.363215946e-15
3.800000000e+00	8.394563594e-02	-1.693344245e-02	4.927426077e-15
3.850000000e+00	8.333097228e-02	-1.702856143e-02	5.248576164e-15
3.900000000e+00	8.272789834e-02	-1.712306975e-02	1.242959477e-14
3.950000000e+00	8.213605051e-02	-1.721697689e-02	6.557742684e-15
4.000000000e+00	8.155508100e-02	-1.731029207e-02	1.145996254e-14
4.050000000e+00	8.098465705e-02	-1.740302430e-02	7.486835862e-15
4.100000000e+00	8.042446006e-02	-1.749518234e-02	9.790668428e-15
4.150000000e+00	7.987418482e-02	-1.758677474e-02	6.760876834e-15
4.200000000e+00	7.933353882e-02	-1.767780983e-02	3.717332117e-15
4.250000000e+00	7.880224155e-02	-1.776829572e-02	7.554793744e-15
4.300000000e+00	7.828002389e-02	-1.785824036e-02	9.360440729e-15
4.350000000e+00	7.776662750e-02	-1.794765147e-02	4.594935808e-15
4.400000000e+00	7.726180431e-02	-1.803653659e-02	1.498230911e-14
4.450000000e+00	7.676531595e-02	-1.812490309e-02	1.439608808e-14
4.500000000e+00	7.627693330e-02	-1.821275816e-02	7.007632090e-15
4.550000000e+00	7.579643602e-02	-1.830010883e-02	5.444812463e-15
4.600000000e+00	7.532361213e-02	-1.838696194e-02	1.194058069e-14
4.650000000e+00	7.485825759e-02	-1.847332421e-02	1.127834974e-14
4.700000000e+00	7.440017593e-02	-1.855920218e-02	8.808133227e-15
4.750000000e+00	7.394917790e-02	-1.864460224e-02	5.246913762e-15
4.800000000e+00	7.350508110e-02	-1.872953066e-02	4.821163961e-15
4.850000000e+00	7.306770971e-02	-1.881399354e-02	5.274319466e-15
4.900000000e+00	7.263689416e-02	-1.889799686e-02	6.575207268e-15
4.950000000e+00	7.221247084e-02	-1.898154649e-02	7.482646064e-15
5.000000000e+00	7.179428183e-02	-1.906464813e-02	1.036386365e-14
5.050000000e+00	7.138217469e-02	-1.914730739e-02	5.508680498e-15
5.100000000e+00	7.097600217e-02	-1.922952974e-02	1.349681933e-14
5.150000000e+00	7.057562198e-02	-1.931132056e-02	1.125519727e-14
5.200000000e+00	7.018089664e-02	-1.939268509e-02	7.797896738e-15
5.250000000e+00	6.979169319e-02	-1.947362848e-02	8.360814508e-15
5.300000000e+00	6.940788307e-02	-1.955415576e-02	7.420828504e-15
5.350000000e+00	6.902934187e-02	-1.963427186e-02	5.623880472e-15
5.400000000e+00	6.865594922e-02	-1.971398161e-02	6.584540115e-15
5.450000000e+00	6.828758858e-02	-1.979328976e-02	9.433764755e-15
5.500000000e+00	6.792414711e-02	-1.987220094e-02	6.842687995e-15
5.550000000e+00	6.756551550e-02	-1.995071970e-02	5.241003642e-15
5.600000000e+00	6.721158783e-02	-2.002885050e-02	9.062752009e-15
5.650000000e+00	6.686226146e-02	-2.010659771e-02	6.513901724e-15
5.700000000e+00	6.651743687e-02	-2.018396563e-02	5.953202987e-15
5.750000000e+00	6.617701756e-02	-2.026095845e-02	9.425859093e-15
5.800000000e+00	6.584090991e-02	-2.033758031e-02	7.643839668e-15
5.850000000e+00	6.550902310e-02	-2.041383525e-02	8.851609781e-15
5.900000000e+00	6.518126898e-02	-2.048972724e-02	7.834878579e-15
5.950000000e+00	6.485756197e-02	-2.056526018e-02	6.768185485e-15
6.000000000e+00	6.453781898e-02	-2.064043789e-02	8.077000344e-15
6.050000000e+00	6.422195931e-02	-2.071526414e-02	1.405591829e-14
6.100000000e+00	6.390990456e-02	-2.078974261e-02	4.816923223e-15
6.150000000e+00	6.360157852e-02	-2.086387693e-02	5.766352933e-15
6.200000000e+00	6.329690717e-02	-2.093767064e-02	6.010091871e-15
6.250000000e+00	6.299581849e-02	-2.101112724e-02	4.227244557e-15
6.300000000e+00	6.269824248e-02	-2.108425017e-02	1.499791338e-14
6.350000000e+00	6.240411105e-02	-2.115704279e-02	8.513098326e-15
6.400000000e+00	6.211335797e-02	-2.122950842e-02	1.647693943e-14
6.450000000e+00	6.182591877e-02	-2.130165031e-02	1.139059869e-14
6.500000000e+00	6.154173071e-02	-2.137347167e-02	1.506781450e-14
6.550000000e+00	6.126073273e-02	-2.144497563e-02	7.685460564e-15
6.600000000e+00	6.098286537e-02	-2.151616530e-02	8.936937251e-15
6.650000000e+00	6.070807071e-02	-2.158704371e-02	4.664600141e-15
6.700000000e+00	6.043629234e-02	-2.165761385e-02	8.207106061e-15
6.750000000e+00	6.016747530e-02	-2.172787866e-02	1.075317360e-14
6.800000000e+00	5.990156604e-02	-2.179784104e-02	1.079892603e-14
6.850000000e+00	5.963851237e-02	-2.186750383e-02	9.926254622e-15
6.900000000e+00	5.937826339e-02	-2.193686983e-02	9.296036577e-15
6.950000000e+00	5.912076950e-02	-2.200594180e-02	9.284744735e-15
7.000000000e+00	5.886598231e-02	-2.207472243e-02	1.056162512e-14
7.050000000e+00	5.861385464e-02	-2.214321441e-02	7.675165221e-15
7.100000000e+00	5.836434043e-02	-2.221142036e-02	9.336437266e-15
7.150000000e+00	5.811739477e-02	-2.227934286e-02	8.103991086e-15
7.200000000e+00	5.787297383e-02	-2.234698445e-02	6.841862207e-15
7.250000000e+00	5.763103481e-02	-2.241434764e-02	1.456252986e-14
7.300000000e+00	5.739153594e-02	-2.248143490e-02	9.823822824e-15
7.350000000e+00	5.715443644e-02	-2.254824865e-02	6.736846136e-15
7.400000000e+00	5.691969647e-02	-2.261479129e-02	6.677749242e-15
7.450000000e+00	5.668727714e-02	-2.268106517e-02	7.275406268e-15
7.500000000e+00	5.645714043e-02	-2.274707262e-02	1.449789790e-14
7.550000000e+00	5.622924922e-02	-2.281281592e-02	2.238317622e-14
7.600000000e+00	5.600356722e-02	-2.287829732e-02	8.198791001e-15
7.650000000e+00	5.578005898e-02	-2.294351905e-02	1.004870209e-14
7.700000000e+00	5.555868982e-02	-2.300848328e-02	1.049501026e-14
7.750000000e+00	5.533942587e-02	-2.307319218e-02	3.126416424e-15
7.800000000e+00	5.512223399e-02	-2.313764788e-02	9.871610194e-15
7.850000000e+00	5.490708178e-02	-2.320185246e-02	1.120815943e-14
7.900000000e+00	5.469393754e-02	-2.326580799e-02	1.029167857e-14
7.950000000e+00	5.448277028e-02	-2.332951651e-02	9.277076724e-15
8.000000000e+00	5.427354966e-02	-2.339298002e-02	7.081916808e-15
8.050000000e+00	5.406624601e-02	-2.345620051e-02	1.277864432e-14
8.100000000e+00	5.386083029e-02	-2.351917992e-02	8.039648143e-15
8.150000000e+00	5.365727407e-02	-2.358192018e-02	1.221609762e-14
8.200000000e+00	5.345554953e-02	-2.364442319e-02	1.062944024e-14
8.250000000e+00	5.325562943e-02	-2.370669082e-02	6.566054850e-15
8.300000000e+00	5.305748709e-02	-2.376872492e-02	6.261006112e-15
8.350000000e+00	5.286109641e-02	-2.383052731e-02	1.200078892e-14
8.400000000e+00	5.266643180e-02	-2.389209980e-02	1.313890154e-14
8.450000000e+00	5.247346820e-02	-2.395344414e-02	1.239477696e-14
8.500000000e+00	5.228218107e-02	-2.401456211e-02	1.342766346e-14
8.550000000e+00	5.209254637e-02	-2.407545542e-02	9.734578229e-15
8.600000000e+00	5.190454052e-02	-2.413612577e-02	1.278066539e-14
8.650000000e+00	5.171814044e-02	-2.419657486e-02	4.775355972e-15
8.700000000e+00	5.153332350e-02	-2.425680435e-02	1.135397281e-14
8.750000000e+00	5.135006750e-02	-2.431681587e-02	7.007537602e-15
8.800000000e+00	5.116835070e-02	-2.437661104e-02	5.656245721e-15
8.850000000e+00	5.098815178e-02	-2.443619147e-02	1.255805528e-14
8.900000000e+00	5.080944983e-02	-2.449555873e-02	2.726541794e-15
8.950000000e+00	5.063222434e-02	-2.455471439e-02	1.301036781e-14
9.000000000e+00	5.045645520e-02	-2.461365997e-02	8.305037331e-15
9.050000000e+00	5.028212269e-02	-2.467239701e-02	2.045742744e-14
9.100000000e+00	5.010920746e-02	-2.473092700e-02	1.321557228e-14
9.150000000e+00	4.993769052e-02	-2.478925142e-02	1.687585862e-14
9.200000000e+00	4.976755324e-02	-2.484737175e-02	9.105903259e-15
9.250000000e+00	4.959877734e-02	-2.490528943e-02	8.017560164e-15
9.300000000e+00	4.943134489e-02	-2.496300589e-02	1.617706425e-14
9.350000000e+00	4.926523827e-02	-2.502052254e-02	2.065758378e-14
9.400000000e+00	4.910044020e-02	-2.507784078e-02	1.172818899e-14
9.450000000e+00	4.893693372e-02	-2.513496199e-02	1.249715600e-14
9.500000000e+00	4.877470216e-02	-2.519188753e-02	1.034044204e-14
9.550000000e+00	4.861372917e-02	-2.524861875e-02	3.827227846e-15
9.600000000e+00	4.845399868e-02	-2.530515699e-02	1.063030450e-14
9.650000000e+00	4.829549492e-02	-2.536150354e-02	1.693579872e-14
9.700000000e+00	4.813820240e-02	-2.541765973e-02	1.559191694e-14
9.750000000e+00	4.798210589e-02	-2.547362683e-02	1.161960676e-14
9.800000000e+00	4.782719045e-02	-2.552940611e-02	8.292643090e-15
9.850000000e+00	4.767344138e-02	-2.558499883e-02	5.997482293e-15
9.900000000e+00	4.752084426e-02	-2.564040624e-02	1.060605142e-14
9.950000000e+00	4.736938490e-02	-2.569562956e-02	5.846380040e-15
1.000000000e+01	4.721904936e-02	-2.575067001e-02	2.451095018e-14
1.005000000e+01	4.706982396e-02	-2.580552878e-02	1.240619813e-14
1.010000000e+01	4.692169522e-02	-2.586020708e-02	1.127618380e-14
1.015000000e+01	4.677464991e-02	-2.591470606e-02	1.941027331e-14
1.020000000e+01	4.662867503e-02	-2.596902689e-02	1.525197647e-14
1.025000000e+01	4.648375778e-02	-2.602317073e-02	7.755561675e-15
1.030000000e+01	4.633988559e-02	-2.607713870e-02	5.597482536e-15
1.035000000e+01	4.619704609e-02	-2.613093194e-02	1.171818240e-14
1.040000000e+01	4.605522712e-02	-2.618455155e-02	1.412670910e-14
1.045000000e+01	4.591441672e-02	-2.623799864e-02	6.528395339e-15
1.050000000e+01	4.577460313e-02	-2.629127430e-02	6.499809151e-15
1.055000000e+01	4.563577479e-02	-2.634437959e-02	8.051270090e-15
1.060000000e+01	4.549792029e-02	-2.639731559e-02	1.168241678e-14
1.065000000e+01	4.536102846e-02	-2.645008335e-02	1.696637824e-14
1.070000000e+01	4.522508827e-02	-2.650268392e-02	1.299317660e-14
1.075000000e+01	4.509008889e-02	-2.655511832e-02	1.188485453e-14
1.080000000e+01	4.495601964e-02	-2.660738759e-02	6.997665722e-15
1.085000000e+01	4.482287003e-02	-2.665949272e-02	8.854223750e-15
1.090000000e+01	4.469062973e-02	-2.671143473e-02	1.094028694e-14
1.095000000e+01	4.455928858e-02	-2.676321460e-02	9.034254830e-15
1.100000000e+01	4.442883655e-02	-2.681483331e-02	1.341071457e-14
1.105000000e+01	4.429926381e-02	-2.686629184e-02	2.401432364e-14
1.110000000e+01	4.417056065e-02	-2.691759114e-02	1.369400274e-14
1.115000000e+01	4.404271752e-02	-2.696873217e-02	7.209072533e-15
1.120000000e+01	4.391572503e-02	-2.701971587e-02	8.829425534e-15
1.125000000e+01	4.378957391e-02	-2.707054317e-02	2.040177123e-14
1.130000000e+01	4.366425505e-02	-2.712121499e-02	6.682470569e-15
1.135000000e+01	4.353975948e-02	-2.717173225e-02	9.200747030e-15
1.140000000e+01	4.341607834e-02	-2.722209585e-02	7.771988840e-15
1.145000000e+01	4.329320293e-02	-2.727230670e-02	1.484424773e-14
1.150000000e+01	4.317112468e-02	-2.732236567e-02	9.382961050e-15
1.155000000e+01	4.304983513e-02	-2.737227365e-02	1.303131206e-14
1.160000000e+01	4.292932597e-02	-2.742203151e-02	8.934613103e-15
1.165000000e+01	4.280958898e-02	-2.747164011e-02	1.235668217e-14
1.170000000e+01	4.269061609e-02	-2.752110030e-02	4.536534479e-15
1.175000000e+01	4.257239933e-02	-2.757041293e-02	1.106315708e-14
1.180000000e+01	4.245493087e-02	-2.761957884e-02	1.234463171e-14
1.185000000e+01	4.233820297e-02	-2.766859885e-02	1.128498035e-14
1.190000000e+01	4.222220802e-02	-2.771747380e-02	1.318706006e-14
1.195000000e+01	4.210693849e-02	-2.776620449e-02	1.936992391e-14
1.200000000e+01	4.199238700e-02	-2.781479174e-02	1.112662513e-14
1.205000000e+01	4.187854625e-02	-2.786323633e-02	4.625019064e-15
1.210000000e+01	4.176540904e-02	-2.791153907e-02	3.587549176e-15
1.215000000e+01	4.165296829e-02	-2.795970074e-02	7.746121373e-15
1.220000000e+01	4.154121701e-02	-2.800772211e-02	2.634183082e-14
1.225000000e+01	4.143014830e-02	-2.805560396e-02	1.122244012e-14
1.230000000e+01	4.131975538e-02	-2.810334705e-02	1.103305382e-14
1.235000000e+01	4.121003154e-02	-2.815095214e-02	8.161946219e-15
1.240000000e+01	4.110097018e-02	-2.819841997e-02	7.667569651e-15
1.245000000e+01	4.099256477e-02	-2.824575130e-02	7.545089223e-15
1.250000000e+01	4.088480891e-02	-2.829294685e-02	2.466364373e-14
1.255000000e+01	4.077769625e-02	-2.834000736e-02	1.367586812e-14
1.260000000e+01	4.067122053e-02	-2.838693354e-02	1.049641827e-14
1.265000000e+01	4.056537560e-02	-2.843372613e-02	8.299121800e-15
1.270000000e+01	4.046015538e-02	-2.848038583e-02	1.648472406e-14
1.275000000e+01	4.035555386e-02	-2.852691333e-02	1.170532801e-14
1.280000000e+01	4.025156512e-02	-2.857330935e-02	9.845902299e-15
1.285000000e+01	4.014818333e-02	-2.861957458e-02	1.191227235e-14
1.290000000e+01	4.004540273e-02	-2.866570970e-02	1.916453941e-14
1.295000000e+01	3.994321763e-02	-2.871171538e-02	1.656073153e-14
1.300000000e+01	3.984162242e-02	-2.875759232e-02	1.011012796e-14
1.305000000e+01	3.974061157e-02	-2.880334116e-02	9.756256480e-15
1.310000000e+01	3.964017961e-02	-2.884896259e-02	1.086345518e-14
1.315000000e+01	3.954032116e-02	-2.889445726e-02	1.955145449e-14
1.320000000e+01	3.944103088e-02	-2.893982581e-02	7.820666181e-15
1.325000000e+01	3.934230354e-02	-2.898506890e-02	1.783330436e-14
1.330000000e+01	3.924413395e-02	-2.903018716e-02	1.989057418e-14
1.335000000e+01	3.914651699e-02	-2.907518123e-02	1.534389195e-14
1.340000000e+01	3.904944761e-02	-2.912005175e-02	2.449899752e-14
1.345000000e+01	3.895292083e-02	-2.916479934e-02	1.051688265e-14
1.350000000e+01	3.885693172e-02	-2.920942462e-02	2.117471237e-14
1.355000000e+01	3.876147542e-02	-2.925392820e-02	1.773312238e-14
1.360000000e+01	3.866654713e-02	-2.929831069e-02	7.007612967e-15
1.365000000e+01	3.857214213e-02	-2.934257270e-02	7.142095877e-15
1.370000000e+01	3.847825571e-02	-2.938671483e-02	1.347886213e-14
1.375000000e+01	3.838488328e-02	-2.943073768e-02	1.067872157e-14
1.380000000e+01	3.829202026e-02	-2.947464183e-02	1.260833122e-14
1.385000000e+01	3.819966216e-02	-2.951842787e-02	1.889032304e-14
1.390000000e+01	3.810780451e-02	-2.956209639e-02	9.772446264e-15
1.395000000e+01	3.801644293e-02	-2.960564795e-02	2.287031069e-14
1.400000000e+01	3.792557308e-02	-2.964908313e-02	1.172867376e-14
1.405000000e+01	3.783519066e-02	-2.969240250e-02	1.248178385e-14
1.410000000e+01	3.774529144e-02	-2.973560662e-02	1.152279541e-14
1.415000000e+01	3.765587125e-02	-2.977869606e-02	1.211429145e-14
1.420000000e+01	3.756692594e-02	-2.982167135e-02	1.484734085e-14
1.425000000e+01	3.747845143e-02	-2.986453306e-02	8.462797051e-15
1.430000000e+01	3.739044369e-02	-2.990728172e-02	8.983710831e-15
1.435000000e+01	3.730289873e-02	-2.994991789e-02	9.880055538e-15
1.440000000e+01	3.721581262e-02	-2.999244209e-02	1.565370337e-14
1.445000000e+01	3.712918147e-02	-3.003485486e-02	1.112166870e-14
1.450000000e+01	3.704300142e-02	-3.007715673e-02	1.940115511e-14
1.455000000e+01	3.695726868e-02	-3.011934822e-02	8.926088716e-15
1.460000000e+01	3.687197950e-02	-3.016142986e-02	1.943997730e-14
1.465000000e+01	3.678713017e-02	-3.020340216e-02	1.501958097e-14
1.470000000e+01	3.670271701e-02	-3.024526563e-02	2.022505471e-14
1.475000000e+01	3.661873640e-02	-3.028702079e-02	1.735571791e-14
1.480000000e+01	3.653518477e-02	-3.032866813e-02	3.073701481e-14
1.485000000e+01	3.645205856e-02	-3.037020816e-02	1.121193211e-14
1.490000000e+01	3.636935429e-02	-3.041164138e-02	1.108467302e-14
1.495000000e+01	3.628706849e-02	-3.045296829e-02	2.397828896e-14
1.500000000e+01	3.620519774e-02	-3.049418936e-02	8.767434547e-15
1.505000000e+01	3.612373866e-02	-3.053530509e-02	1.265617359e-14
1.510000000e+01	3.604268791e-02	-3.057631597e-02	8.856684688e-15
1.515000000e+01	3.596204218e-02	-3.061722246e-02	1.111458328e-14
1.520000000e+01	3.588179821e-02	-3.065802506e-02	3.205645542e-15
1.525000000e+01	3.580195276e-02	-3.069872422e-02	1.544202510e-14
1.530000000e+01	3.572250265e-02	-3.073932042e-02	1.300269153e-14
