# mu [eV]     Omega/c [1/micrones]    Im(epsi1)     Eq(det)R = 0.10 $\mu$m, $E_p$ = 0.900 eV, modo = 1, $\epsilon_\infty$ = 3.9, $\gamma_{DL}$ = 0.01 eV, solve_det_sinkz_vs_mu.py
3.000000000e-01	2.051568027e+00	-2.021266317e-01	8.507915032e-14
3.001000000e-01	2.051580769e+00	-2.021160001e-01	4.337297383e-14
3.002000000e-01	2.051593506e+00	-2.021053865e-01	3.999192994e-14
3.003000000e-01	2.051606238e+00	-2.020947910e-01	5.429053184e-14
3.004000000e-01	2.051618963e+00	-2.020842134e-01	7.460876616e-14
3.006000000e-01	2.051644397e+00	-2.020631121e-01	3.676451010e-14
3.007000000e-01	2.051657105e+00	-2.020525882e-01	7.058455063e-14
3.008000000e-01	2.051669807e+00	-2.020420821e-01	5.562783804e-14
3.009000000e-01	2.051682504e+00	-2.020315938e-01	8.179213060e-14
3.011000000e-01	2.051707880e+00	-2.020106701e-01	9.985274023e-14
3.012000000e-01	2.051720560e+00	-2.020002347e-01	8.457480961e-14
3.014000000e-01	2.051745902e+00	-2.019794165e-01	3.738014610e-14
3.015000000e-01	2.051758565e+00	-2.019690336e-01	2.885489456e-14
3.016000000e-01	2.051771222e+00	-2.019586682e-01	4.986627740e-14
3.017000000e-01	2.051783873e+00	-2.019483200e-01	7.454862733e-14
3.018000000e-01	2.051796519e+00	-2.019379892e-01	5.519635417e-14
3.019000000e-01	2.051809159e+00	-2.019276757e-01	6.477553684e-14
3.021000000e-01	2.051834422e+00	-2.019071003e-01	2.356349021e-14
3.022000000e-01	2.051847046e+00	-2.018968383e-01	5.210627550e-14
3.023000000e-01	2.051859663e+00	-2.018865934e-01	6.207429253e-14
3.024000000e-01	2.051872275e+00	-2.018763656e-01	6.196909202e-14
3.025000000e-01	2.051884882e+00	-2.018661547e-01	6.743025112e-14
3.026000000e-01	2.051897483e+00	-2.018559608e-01	6.415636612e-14
3.027000000e-01	2.051910078e+00	-2.018457839e-01	6.369907724e-14
3.028000000e-01	2.051922668e+00	-2.018356237e-01	6.066761629e-14
3.029000000e-01	2.051935252e+00	-2.018254804e-01	3.993807203e-14
3.030000000e-01	2.051947831e+00	-2.018153539e-01	6.426814774e-14
3.031000000e-01	2.051960404e+00	-2.018052441e-01	3.474821338e-14
3.032000000e-01	2.051972972e+00	-2.017951509e-01	4.835075358e-14
3.033000000e-01	2.051985534e+00	-2.017850745e-01	7.881346442e-14
3.034000000e-01	2.051998091e+00	-2.017750146e-01	4.383142586e-14
3.035000000e-01	2.052010642e+00	-2.017649712e-01	4.665029893e-14
3.036000000e-01	2.052023188e+00	-2.017549444e-01	5.879951876e-14
3.037000000e-01	2.052035728e+00	-2.017449341e-01	5.070699286e-14
3.038000000e-01	2.052048263e+00	-2.017349401e-01	5.595048739e-14
3.039000000e-01	2.052060792e+00	-2.017249626e-01	6.250641372e-14
3.040000000e-01	2.052073316e+00	-2.017150013e-01	1.992478170e-14
3.041000000e-01	2.052085835e+00	-2.017050564e-01	9.621754626e-14
3.042000000e-01	2.052098348e+00	-2.016951277e-01	4.834191061e-14
3.043000000e-01	2.052110856e+00	-2.016852153e-01	6.709391962e-14
3.044000000e-01	2.052123358e+00	-2.016753189e-01	5.158767774e-14
3.045000000e-01	2.052135855e+00	-2.016654388e-01	8.549443146e-14
3.046000000e-01	2.052148346e+00	-2.016555747e-01	8.735221441e-14
3.047000000e-01	2.052160833e+00	-2.016457266e-01	4.505636646e-14
3.048000000e-01	2.052173313e+00	-2.016358945e-01	8.277162651e-14
3.049000000e-01	2.052185789e+00	-2.016260784e-01	4.601753957e-14
3.050000000e-01	2.052198259e+00	-2.016162782e-01	5.448852152e-14
3.051000000e-01	2.052210723e+00	-2.016064939e-01	9.511799167e-14
3.052000000e-01	2.052223183e+00	-2.015967254e-01	7.747152734e-14
3.053000000e-01	2.052235637e+00	-2.015869727e-01	5.009201314e-14
3.054000000e-01	2.052248086e+00	-2.015772357e-01	6.872080338e-14
3.055000000e-01	2.052260529e+00	-2.015675145e-01	2.184747033e-14
3.056000000e-01	2.052272967e+00	-2.015578089e-01	7.786039450e-14
3.057000000e-01	2.052285400e+00	-2.015481189e-01	7.043722061e-14
3.058000000e-01	2.052297827e+00	-2.015384446e-01	5.025026600e-14
3.059000000e-01	2.052310250e+00	-2.015287857e-01	4.888408012e-14
3.060000000e-01	2.052322667e+00	-2.015191424e-01	4.614449590e-14
3.061000000e-01	2.052335078e+00	-2.015095145e-01	6.553188482e-14
3.062000000e-01	2.052347485e+00	-2.014999021e-01	4.543198621e-14
3.063000000e-01	2.052359886e+00	-2.014903051e-01	7.591067271e-14
3.064000000e-01	2.052372282e+00	-2.014807234e-01	8.019222678e-14
3.065000000e-01	2.052384673e+00	-2.014711570e-01	3.172499021e-14
3.067000000e-01	2.052409438e+00	-2.014520699e-01	4.929713334e-14
3.068000000e-01	2.052421814e+00	-2.014425492e-01	6.917864948e-14
3.070000000e-01	2.052446548e+00	-2.014235532e-01	8.106075674e-14
3.071000000e-01	2.052458908e+00	-2.014140778e-01	5.736862002e-14
3.072000000e-01	2.052471262e+00	-2.014046175e-01	5.001774958e-14
3.073000000e-01	2.052483611e+00	-2.013951721e-01	5.179405087e-14
3.074000000e-01	2.052495956e+00	-2.013857417e-01	4.736420921e-14
3.075000000e-01	2.052508294e+00	-2.013763262e-01	6.793524174e-14
3.076000000e-01	2.052520628e+00	-2.013669256e-01	3.136375151e-14
3.077000000e-01	2.052532957e+00	-2.013575399e-01	5.262546297e-14
3.079000000e-01	2.052557599e+00	-2.013388127e-01	4.960755458e-14
3.080000000e-01	2.052569912e+00	-2.013294713e-01	5.420461643e-14
3.081000000e-01	2.052582220e+00	-2.013201445e-01	5.970191837e-14
3.082000000e-01	2.052594524e+00	-2.013108324e-01	5.951659677e-14
3.083000000e-01	2.052606822e+00	-2.013015349e-01	7.209503629e-14
3.084000000e-01	2.052619115e+00	-2.012922520e-01	7.672226649e-14
3.085000000e-01	2.052631403e+00	-2.012829836e-01	5.292080168e-14
3.086000000e-01	2.052643685e+00	-2.012737297e-01	4.350335646e-14
3.087000000e-01	2.052655963e+00	-2.012644903e-01	8.041298907e-14
3.088000000e-01	2.052668236e+00	-2.012552654e-01	5.425709125e-14
3.089000000e-01	2.052680504e+00	-2.012460548e-01	8.642130543e-14
3.090000000e-01	2.052692766e+00	-2.012368586e-01	7.084892867e-14
3.092000000e-01	2.052717277e+00	-2.012185091e-01	6.908831423e-14
3.093000000e-01	2.052729525e+00	-2.012093557e-01	8.314185848e-14
3.094000000e-01	2.052741767e+00	-2.012002166e-01	3.960924149e-14
3.095000000e-01	2.052754005e+00	-2.011910916e-01	8.045091491e-14
3.096000000e-01	2.052766238e+00	-2.011819808e-01	3.026521419e-14
3.097000000e-01	2.052778465e+00	-2.011728841e-01	6.023572649e-14
3.098000000e-01	2.052790688e+00	-2.011638015e-01	6.381436240e-14
3.099000000e-01	2.052802906e+00	-2.011547329e-01	5.773153121e-14
3.101000000e-01	2.052827327e+00	-2.011366377e-01	2.434211552e-14
3.102000000e-01	2.052839530e+00	-2.011276110e-01	6.008049221e-14
3.103000000e-01	2.052851728e+00	-2.011185982e-01	5.345266396e-14
3.104000000e-01	2.052863921e+00	-2.011095993e-01	6.049322015e-14
3.105000000e-01	2.052876110e+00	-2.011006142e-01	3.203996377e-14
3.108000000e-01	2.052912645e+00	-2.010737415e-01	8.517235489e-14
3.109000000e-01	2.052924814e+00	-2.010648113e-01	6.293248714e-14
3.110000000e-01	2.052936978e+00	-2.010558949e-01	4.603668478e-14
3.112000000e-01	2.052961291e+00	-2.010381028e-01	3.243300587e-14
3.114000000e-01	2.052985585e+00	-2.010203649e-01	5.260748498e-14
3.115000000e-01	2.052997724e+00	-2.010115162e-01	4.530352139e-14
3.116000000e-01	2.053009859e+00	-2.010026809e-01	4.256825690e-14
3.117000000e-01	2.053021989e+00	-2.009938591e-01	9.766132971e-14
3.118000000e-01	2.053034114e+00	-2.009850507e-01	5.391374999e-14
3.119000000e-01	2.053046234e+00	-2.009762556e-01	8.796111500e-14
3.120000000e-01	2.053058350e+00	-2.009674738e-01	3.102532103e-14
3.121000000e-01	2.053070461e+00	-2.009587054e-01	6.723060608e-14
3.122000000e-01	2.053082567e+00	-2.009499502e-01	5.843540860e-14
3.123000000e-01	2.053094668e+00	-2.009412082e-01	8.379728275e-14
3.124000000e-01	2.053106764e+00	-2.009324794e-01	6.941451421e-14
3.125000000e-01	2.053118856e+00	-2.009237638e-01	6.266306421e-14
3.127000000e-01	2.053143025e+00	-2.009063719e-01	6.041440080e-14
3.128000000e-01	2.053155103e+00	-2.008976955e-01	8.287512081e-14
3.129000000e-01	2.053167175e+00	-2.008890322e-01	4.938004506e-14
3.130000000e-01	2.053179243e+00	-2.008803819e-01	3.985737518e-14
3.131000000e-01	2.053191307e+00	-2.008717446e-01	4.578485494e-14
3.133000000e-01	2.053215419e+00	-2.008545086e-01	3.340319675e-14
3.134000000e-01	2.053227468e+00	-2.008459100e-01	7.011369063e-14
3.135000000e-01	2.053239513e+00	-2.008373242e-01	4.906772724e-14
3.136000000e-01	2.053251553e+00	-2.008287512e-01	7.699958752e-14
3.137000000e-01	2.053263588e+00	-2.008201910e-01	6.189650771e-14
3.138000000e-01	2.053275618e+00	-2.008116436e-01	5.446170210e-14
3.140000000e-01	2.053299665e+00	-2.007945868e-01	7.406402206e-14
3.141000000e-01	2.053311682e+00	-2.007860774e-01	7.192926319e-14
3.142000000e-01	2.053323694e+00	-2.007775806e-01	5.261466359e-14
3.143000000e-01	2.053335701e+00	-2.007690964e-01	8.839607499e-14
3.144000000e-01	2.053347704e+00	-2.007606248e-01	5.693964635e-14
3.145000000e-01	2.053359702e+00	-2.007521657e-01	6.790680906e-14
3.146000000e-01	2.053371695e+00	-2.007437191e-01	6.031217470e-14
3.147000000e-01	2.053383684e+00	-2.007352850e-01	5.093377132e-14
3.148000000e-01	2.053395668e+00	-2.007268634e-01	6.740512255e-14
3.149000000e-01	2.053407648e+00	-2.007184541e-01	5.952640060e-14
3.150000000e-01	2.053419623e+00	-2.007100572e-01	7.118558600e-14
3.151000000e-01	2.053431593e+00	-2.007016727e-01	8.554941767e-14
3.152000000e-01	2.053443559e+00	-2.006933005e-01	5.921544739e-14
3.153000000e-01	2.053455521e+00	-2.006849406e-01	7.014868203e-14
3.154000000e-01	2.053467478e+00	-2.006765929e-01	3.710293224e-14
3.155000000e-01	2.053479430e+00	-2.006682575e-01	4.386898955e-14
3.157000000e-01	2.053503321e+00	-2.006516233e-01	5.899418746e-14
3.158000000e-01	2.053515259e+00	-2.006433244e-01	8.328513328e-14
3.159000000e-01	2.053527194e+00	-2.006350376e-01	6.146261068e-14
3.160000000e-01	2.053539123e+00	-2.006267630e-01	8.127048121e-14
3.161000000e-01	2.053551048e+00	-2.006185003e-01	9.316363642e-14
3.162000000e-01	2.053562969e+00	-2.006102498e-01	4.676807748e-14
3.163000000e-01	2.053574885e+00	-2.006020112e-01	1.911812992e-14
3.164000000e-01	2.053586797e+00	-2.005937846e-01	6.085563686e-14
3.165000000e-01	2.053598704e+00	-2.005855699e-01	4.715499106e-14
3.166000000e-01	2.053610607e+00	-2.005773671e-01	8.791986468e-14
3.167000000e-01	2.053622505e+00	-2.005691763e-01	5.745247606e-14
3.168000000e-01	2.053634399e+00	-2.005609973e-01	6.942253010e-14
3.169000000e-01	2.053646288e+00	-2.005528301e-01	4.305751252e-14
3.170000000e-01	2.053658173e+00	-2.005446747e-01	5.741405690e-14
3.171000000e-01	2.053670054e+00	-2.005365311e-01	7.238264797e-14
3.172000000e-01	2.053681930e+00	-2.005283993e-01	7.933622786e-14
3.173000000e-01	2.053693801e+00	-2.005202791e-01	4.961035172e-14
3.174000000e-01	2.053705668e+00	-2.005121707e-01	3.803940469e-14
3.175000000e-01	2.053717531e+00	-2.005040739e-01	7.597950570e-14
3.176000000e-01	2.053729390e+00	-2.004959888e-01	7.479016762e-14
3.178000000e-01	2.053753093e+00	-2.004798533e-01	5.023212335e-14
3.180000000e-01	2.053776779e+00	-2.004637640e-01	5.879841371e-14
3.181000000e-01	2.053788616e+00	-2.004557367e-01	5.322001306e-14
3.182000000e-01	2.053800448e+00	-2.004477208e-01	8.115325543e-14
3.183000000e-01	2.053812276e+00	-2.004397163e-01	2.242297123e-14
3.184000000e-01	2.053824099e+00	-2.004317233e-01	6.916811143e-14
3.185000000e-01	2.053835918e+00	-2.004237417e-01	4.899308313e-14
3.187000000e-01	2.053859543e+00	-2.004078124e-01	5.061863332e-14
3.188000000e-01	2.053871349e+00	-2.003998648e-01	5.241241056e-14
3.189000000e-01	2.053883151e+00	-2.003919285e-01	7.792499239e-14
3.190000000e-01	2.053894948e+00	-2.003840034e-01	6.257087762e-14
3.191000000e-01	2.053906741e+00	-2.003760896e-01	7.102798717e-14
3.192000000e-01	2.053918530e+00	-2.003681869e-01	3.241221814e-14
3.194000000e-01	2.053942095e+00	-2.003524152e-01	4.889958147e-14
3.195000000e-01	2.053953871e+00	-2.003445460e-01	5.203051307e-14
3.196000000e-01	2.053965643e+00	-2.003366879e-01	3.937495645e-14
3.197000000e-01	2.053977410e+00	-2.003288409e-01	4.476006809e-14
3.198000000e-01	2.053989173e+00	-2.003210050e-01	8.322762227e-14
3.199000000e-01	2.054000932e+00	-2.003131801e-01	7.271700102e-14
3.200000000e-01	2.054012687e+00	-2.003053662e-01	5.080651909e-14
3.201000000e-01	2.054024437e+00	-2.002975632e-01	6.589662565e-14
3.202000000e-01	2.054036183e+00	-2.002897712e-01	5.915223569e-14
3.203000000e-01	2.054047925e+00	-2.002819901e-01	1.769750981e-14
3.205000000e-01	2.054071397e+00	-2.002664607e-01	5.703568739e-14
3.206000000e-01	2.054083126e+00	-2.002587122e-01	4.776857547e-14
3.207000000e-01	2.054094851e+00	-2.002509746e-01	6.333755652e-14
3.208000000e-01	2.054106572e+00	-2.002432478e-01	6.428556319e-14
3.209000000e-01	2.054118289e+00	-2.002355317e-01	6.976905189e-14
3.210000000e-01	2.054130001e+00	-2.002278264e-01	8.471475538e-14
3.211000000e-01	2.054141710e+00	-2.002201318e-01	7.140940069e-14
3.212000000e-01	2.054153414e+00	-2.002124479e-01	7.842266065e-14
3.213000000e-01	2.054165114e+00	-2.002047747e-01	2.186413105e-14
3.214000000e-01	2.054176810e+00	-2.001971121e-01	4.688744879e-14
3.215000000e-01	2.054188501e+00	-2.001894602e-01	7.668721438e-14
3.216000000e-01	2.054200189e+00	-2.001818189e-01	2.338929310e-14
3.217000000e-01	2.054211872e+00	-2.001741881e-01	4.857488920e-14
3.218000000e-01	2.054223551e+00	-2.001665679e-01	5.825610336e-14
3.219000000e-01	2.054235227e+00	-2.001589582e-01	6.022099850e-14
3.220000000e-01	2.054246897e+00	-2.001513590e-01	2.065668624e-14
3.221000000e-01	2.054258564e+00	-2.001437703e-01	4.519562643e-14
3.223000000e-01	2.054281886e+00	-2.001286243e-01	6.231888412e-14
3.224000000e-01	2.054293540e+00	-2.001210669e-01	8.085260814e-14
3.225000000e-01	2.054305191e+00	-2.001135199e-01	3.615893637e-14
3.226000000e-01	2.054316837e+00	-2.001059832e-01	7.532800617e-14
3.227000000e-01	2.054328479e+00	-2.000984569e-01	7.466178138e-14
3.228000000e-01	2.054340118e+00	-2.000909409e-01	5.359102932e-14
3.229000000e-01	2.054351752e+00	-2.000834352e-01	9.473691416e-14
3.230000000e-01	2.054363382e+00	-2.000759397e-01	8.307886555e-14
3.232000000e-01	2.054386630e+00	-2.000609795e-01	7.449265321e-14
3.233000000e-01	2.054398248e+00	-2.000535147e-01	8.898963343e-14
3.234000000e-01	2.054409862e+00	-2.000460601e-01	8.454415920e-14
3.235000000e-01	2.054421472e+00	-2.000386157e-01	4.080590368e-14
3.236000000e-01	2.054433077e+00	-2.000311813e-01	4.773093586e-14
3.237000000e-01	2.054444679e+00	-2.000237571e-01	4.770212831e-14
3.238000000e-01	2.054456277e+00	-2.000163429e-01	8.296616889e-14
3.239000000e-01	2.054467871e+00	-2.000089389e-01	4.100488352e-14
3.240000000e-01	2.054479460e+00	-2.000015448e-01	5.200011053e-14
3.241000000e-01	2.054491046e+00	-1.999941608e-01	6.663155838e-14
3.242000000e-01	2.054502628e+00	-1.999867867e-01	4.077890259e-14
3.243000000e-01	2.054514206e+00	-1.999794227e-01	5.360773079e-14
3.244000000e-01	2.054525780e+00	-1.999720685e-01	3.700066624e-14
3.245000000e-01	2.054537349e+00	-1.999647243e-01	3.758443384e-14
3.246000000e-01	2.054548915e+00	-1.999573900e-01	6.007876998e-14
3.247000000e-01	2.054560477e+00	-1.999500656e-01	4.413631396e-14
3.248000000e-01	2.054572035e+00	-1.999427511e-01	3.222409260e-14
3.250000000e-01	2.054595139e+00	-1.999281514e-01	6.825076575e-14
3.251000000e-01	2.054606685e+00	-1.999208663e-01	4.658694201e-14
3.252000000e-01	2.054618227e+00	-1.999135910e-01	7.009540733e-14
3.253000000e-01	2.054629765e+00	-1.999063254e-01	3.969564057e-14
3.254000000e-01	2.054641300e+00	-1.998990695e-01	6.852587140e-14
3.255000000e-01	2.054652830e+00	-1.998918233e-01	6.607762809e-14
3.256000000e-01	2.054664356e+00	-1.998845868e-01	5.150764466e-14
3.257000000e-01	2.054675879e+00	-1.998773600e-01	4.198573057e-14
3.258000000e-01	2.054687398e+00	-1.998701428e-01	4.792769670e-14
3.259000000e-01	2.054698912e+00	-1.998629353e-01	7.384343907e-14
3.260000000e-01	2.054710423e+00	-1.998557373e-01	8.146140987e-14
3.261000000e-01	2.054721930e+00	-1.998485489e-01	7.253955829e-14
3.263000000e-01	2.054744932e+00	-1.998342008e-01	5.534801646e-14
3.264000000e-01	2.054756428e+00	-1.998270410e-01	4.058965853e-14
3.265000000e-01	2.054767919e+00	-1.998198907e-01	7.588730417e-14
3.266000000e-01	2.054779407e+00	-1.998127498e-01	1.815377376e-14
3.267000000e-01	2.054790891e+00	-1.998056185e-01	6.226873705e-14
3.268000000e-01	2.054802370e+00	-1.997984965e-01	7.630538281e-14
3.269000000e-01	2.054813847e+00	-1.997913840e-01	2.981636191e-14
3.270000000e-01	2.054825319e+00	-1.997842808e-01	2.871727496e-14
3.271000000e-01	2.054836787e+00	-1.997771870e-01	6.055520235e-14
3.272000000e-01	2.054848252e+00	-1.997701026e-01	8.399801629e-14
3.273000000e-01	2.054859712e+00	-1.997630275e-01	4.543033264e-14
3.274000000e-01	2.054871169e+00	-1.997559617e-01	9.821852455e-14
3.275000000e-01	2.054882623e+00	-1.997489051e-01	5.725406464e-14
3.277000000e-01	2.054905517e+00	-1.997348198e-01	4.799538076e-14
3.278000000e-01	2.054916959e+00	-1.997277910e-01	9.341952230e-14
3.279000000e-01	2.054928397e+00	-1.997207714e-01	3.695340999e-14
3.280000000e-01	2.054939831e+00	-1.997137610e-01	5.847525008e-14
3.281000000e-01	2.054951262e+00	-1.997067598e-01	4.947397596e-14
3.282000000e-01	2.054962688e+00	-1.996997677e-01	3.791387949e-14
3.283000000e-01	2.054974111e+00	-1.996927847e-01	6.860579288e-14
3.284000000e-01	2.054985530e+00	-1.996858108e-01	3.552133194e-14
3.285000000e-01	2.054996946e+00	-1.996788460e-01	9.773736896e-14
3.287000000e-01	2.055019765e+00	-1.996649436e-01	5.195080313e-14
3.288000000e-01	2.055031169e+00	-1.996580059e-01	2.341313418e-14
3.289000000e-01	2.055042569e+00	-1.996510772e-01	7.836012678e-14
3.290000000e-01	2.055053966e+00	-1.996441575e-01	5.188150603e-14
3.291000000e-01	2.055065359e+00	-1.996372468e-01	5.186984088e-14
3.292000000e-01	2.055076748e+00	-1.996303450e-01	4.675452097e-14
3.293000000e-01	2.055088134e+00	-1.996234522e-01	6.732328743e-14
3.294000000e-01	2.055099515e+00	-1.996165683e-01	4.966620436e-14
3.295000000e-01	2.055110894e+00	-1.996096932e-01	5.257305802e-14
3.296000000e-01	2.055122268e+00	-1.996028270e-01	4.718009003e-14
3.297000000e-01	2.055133639e+00	-1.995959697e-01	9.655139726e-14
3.298000000e-01	2.055145006e+00	-1.995891212e-01	6.875602547e-14
3.299000000e-01	2.055156369e+00	-1.995822815e-01	4.429213740e-14
3.300000000e-01	2.055167729e+00	-1.995754506e-01	4.673445627e-14
3.301000000e-01	2.055179085e+00	-1.995686284e-01	6.972568109e-14
3.302000000e-01	2.055190437e+00	-1.995618151e-01	3.042779513e-14
3.303000000e-01	2.055201785e+00	-1.995550104e-01	9.668351005e-14
3.304000000e-01	2.055213130e+00	-1.995482145e-01	6.835936300e-14
3.305000000e-01	2.055224472e+00	-1.995414273e-01	5.244654942e-14
3.306000000e-01	2.055235809e+00	-1.995346487e-01	6.066934858e-14
3.307000000e-01	2.055247144e+00	-1.995278788e-01	4.744866808e-14
3.308000000e-01	2.055258474e+00	-1.995211176e-01	2.634839457e-14
3.310000000e-01	2.055281124e+00	-1.995076209e-01	7.171898625e-14
3.313000000e-01	2.055315072e+00	-1.994874403e-01	3.655765296e-14
3.314000000e-01	2.055326380e+00	-1.994807305e-01	5.493335399e-14
3.315000000e-01	2.055337686e+00	-1.994740292e-01	7.511521348e-14
3.316000000e-01	2.055348987e+00	-1.994673364e-01	7.511084115e-14
3.317000000e-01	2.055360285e+00	-1.994606521e-01	5.609918580e-14
3.318000000e-01	2.055371579e+00	-1.994539762e-01	6.150961552e-14
3.319000000e-01	2.055382870e+00	-1.994473088e-01	6.273044626e-14
3.320000000e-01	2.055394157e+00	-1.994406498e-01	3.656247107e-14
3.321000000e-01	2.055405441e+00	-1.994339992e-01	8.194051820e-14
3.323000000e-01	2.055427997e+00	-1.994207232e-01	3.783327725e-14
3.324000000e-01	2.055439270e+00	-1.994140977e-01	7.544752108e-14
3.326000000e-01	2.055461806e+00	-1.994008718e-01	4.407284606e-14
3.327000000e-01	2.055473068e+00	-1.993942712e-01	8.052376352e-14
3.328000000e-01	2.055484327e+00	-1.993876790e-01	4.762751542e-14
3.329000000e-01	2.055495582e+00	-1.993810950e-01	6.644586112e-14
3.330000000e-01	2.055506834e+00	-1.993745192e-01	4.922235679e-14
3.331000000e-01	2.055518082e+00	-1.993679517e-01	5.838406370e-14
3.333000000e-01	2.055540568e+00	-1.993548413e-01	8.858125524e-14
3.334000000e-01	2.055551805e+00	-1.993482983e-01	9.223148497e-14
3.335000000e-01	2.055563040e+00	-1.993417635e-01	8.175627725e-14
3.336000000e-01	2.055574270e+00	-1.993352369e-01	7.819266176e-14
3.337000000e-01	2.055585497e+00	-1.993287184e-01	6.916522826e-14
