# mu [eV]     Omega/c [1/micrones]    Im(epsi1)     Eq(det)R = 0.10 $\mu$m, $E_p$ = 0.900 eV, modo = 3, $\epsilon_\infty$ = 3.9, $\gamma_{DL}$ = 0.01 eV, solve_det_sinkz_vs_mu.py
3.000000000e-01	2.085824710e+00	-1.442378247e-01	3.926189660e-14
3.001000000e-01	2.085862462e+00	-1.442034725e-01	4.775488545e-14
3.002000000e-01	2.085900196e+00	-1.441691767e-01	6.428949582e-14
3.003000000e-01	2.085937913e+00	-1.441349372e-01	7.794040671e-14
3.004000000e-01	2.085975613e+00	-1.441007539e-01	5.232835630e-14
3.005000000e-01	2.086013297e+00	-1.440666265e-01	8.091621304e-14
3.006000000e-01	2.086050963e+00	-1.440325550e-01	3.669563582e-14
3.007000000e-01	2.086088612e+00	-1.439985392e-01	6.857817012e-14
3.008000000e-01	2.086126244e+00	-1.439645789e-01	7.064108214e-14
3.009000000e-01	2.086163860e+00	-1.439306740e-01	5.341189683e-14
3.010000000e-01	2.086201458e+00	-1.438968244e-01	4.845909886e-14
3.011000000e-01	2.086239040e+00	-1.438630298e-01	7.954338862e-14
3.012000000e-01	2.086276604e+00	-1.438292902e-01	2.970763745e-14
3.013000000e-01	2.086314152e+00	-1.437956054e-01	5.025858254e-14
3.015000000e-01	2.086389198e+00	-1.437283997e-01	8.268390169e-14
3.016000000e-01	2.086426696e+00	-1.436948784e-01	4.517055196e-14
3.018000000e-01	2.086501641e+00	-1.436279985e-01	8.713700521e-14
3.020000000e-01	2.086576520e+00	-1.435613343e-01	4.362518205e-14
3.021000000e-01	2.086613935e+00	-1.435280828e-01	3.991905137e-14
3.022000000e-01	2.086651333e+00	-1.434948847e-01	4.791227518e-14
3.023000000e-01	2.086688714e+00	-1.434617401e-01	4.808659884e-14
3.024000000e-01	2.086726079e+00	-1.434286487e-01	2.864441295e-14
3.025000000e-01	2.086763428e+00	-1.433956104e-01	1.530508605e-14
3.026000000e-01	2.086800760e+00	-1.433626251e-01	5.709068900e-14
3.027000000e-01	2.086838075e+00	-1.433296925e-01	5.772830288e-14
3.028000000e-01	2.086875374e+00	-1.432968127e-01	3.807032108e-14
3.029000000e-01	2.086912657e+00	-1.432639854e-01	7.837161788e-14
3.030000000e-01	2.086949923e+00	-1.432312105e-01	2.621820109e-14
3.031000000e-01	2.086987173e+00	-1.431984878e-01	4.361947055e-14
3.032000000e-01	2.087024407e+00	-1.431658173e-01	6.939200119e-14
3.033000000e-01	2.087061624e+00	-1.431331988e-01	3.143656292e-14
3.034000000e-01	2.087098826e+00	-1.431006322e-01	3.438255538e-14
3.035000000e-01	2.087136011e+00	-1.430681172e-01	3.186623566e-14
3.036000000e-01	2.087173179e+00	-1.430356539e-01	3.940523757e-14
3.037000000e-01	2.087210332e+00	-1.430032420e-01	6.825001371e-14
3.038000000e-01	2.087247468e+00	-1.429708815e-01	4.791577558e-14
3.039000000e-01	2.087284588e+00	-1.429385721e-01	3.311641765e-14
3.040000000e-01	2.087321692e+00	-1.429063138e-01	3.129822690e-14
3.041000000e-01	2.087358780e+00	-1.428741064e-01	1.320682477e-14
3.042000000e-01	2.087395852e+00	-1.428419498e-01	3.607218016e-14
3.043000000e-01	2.087432908e+00	-1.428098439e-01	3.237345859e-14
3.044000000e-01	2.087469948e+00	-1.427777885e-01	4.124450753e-14
3.045000000e-01	2.087506972e+00	-1.427457834e-01	5.350234043e-14
3.046000000e-01	2.087543980e+00	-1.427138287e-01	3.154369138e-14
3.047000000e-01	2.087580972e+00	-1.426819241e-01	4.972505345e-14
3.048000000e-01	2.087617948e+00	-1.426500695e-01	4.947847682e-14
3.049000000e-01	2.087654908e+00	-1.426182648e-01	5.090040415e-14
3.050000000e-01	2.087691853e+00	-1.425865098e-01	5.293190313e-14
3.051000000e-01	2.087728781e+00	-1.425548045e-01	5.229873197e-14
3.052000000e-01	2.087765694e+00	-1.425231487e-01	3.252855475e-14
3.053000000e-01	2.087802591e+00	-1.424915422e-01	4.180587698e-14
3.054000000e-01	2.087839472e+00	-1.424599850e-01	3.931771404e-14
3.055000000e-01	2.087876337e+00	-1.424284769e-01	5.008384616e-14
3.056000000e-01	2.087913187e+00	-1.423970177e-01	4.012263104e-14
3.057000000e-01	2.087950021e+00	-1.423656075e-01	3.909819936e-14
3.058000000e-01	2.087986839e+00	-1.423342460e-01	4.710436133e-14
3.059000000e-01	2.088023642e+00	-1.423029331e-01	6.222259805e-14
3.060000000e-01	2.088060429e+00	-1.422716687e-01	5.642880126e-14
3.061000000e-01	2.088097200e+00	-1.422404527e-01	6.506963658e-14
3.062000000e-01	2.088133956e+00	-1.422092849e-01	4.590621190e-14
3.063000000e-01	2.088170696e+00	-1.421781652e-01	5.377939674e-14
3.064000000e-01	2.088207421e+00	-1.421470935e-01	3.021130518e-14
3.065000000e-01	2.088244130e+00	-1.421160697e-01	4.901998689e-14
3.066000000e-01	2.088280824e+00	-1.420850937e-01	3.222002311e-14
3.067000000e-01	2.088317502e+00	-1.420541653e-01	9.185994575e-14
3.068000000e-01	2.088354165e+00	-1.420232844e-01	8.137724613e-14
3.069000000e-01	2.088390813e+00	-1.419924509e-01	8.024785680e-14
3.070000000e-01	2.088427445e+00	-1.419616647e-01	4.518287619e-14
3.072000000e-01	2.088500663e+00	-1.419002336e-01	6.144514362e-14
3.073000000e-01	2.088537249e+00	-1.418695885e-01	6.199463376e-14
3.074000000e-01	2.088573819e+00	-1.418389902e-01	2.228071620e-14
3.075000000e-01	2.088610375e+00	-1.418084386e-01	6.220677643e-14
3.076000000e-01	2.088646915e+00	-1.417779335e-01	5.181095652e-14
3.077000000e-01	2.088683440e+00	-1.417474748e-01	2.877840977e-14
3.078000000e-01	2.088719950e+00	-1.417170625e-01	4.905117009e-14
3.079000000e-01	2.088756444e+00	-1.416866964e-01	7.812808512e-14
3.080000000e-01	2.088792924e+00	-1.416563764e-01	8.516757681e-14
3.081000000e-01	2.088829388e+00	-1.416261024e-01	8.277314835e-14
3.082000000e-01	2.088865837e+00	-1.415958742e-01	5.356420935e-14
3.083000000e-01	2.088902271e+00	-1.415656918e-01	4.752364547e-14
3.084000000e-01	2.088938690e+00	-1.415355551e-01	5.851617282e-14
3.085000000e-01	2.088975094e+00	-1.415054638e-01	5.190425398e-14
3.086000000e-01	2.089011483e+00	-1.414754179e-01	4.527154555e-14
3.087000000e-01	2.089047857e+00	-1.414454174e-01	4.197760874e-14
3.088000000e-01	2.089084216e+00	-1.414154620e-01	6.900526920e-14
3.089000000e-01	2.089120560e+00	-1.413855517e-01	1.791969183e-14
3.090000000e-01	2.089156890e+00	-1.413556863e-01	3.879656911e-14
3.091000000e-01	2.089193204e+00	-1.413258658e-01	6.847957094e-14
3.092000000e-01	2.089229503e+00	-1.412960900e-01	5.785493947e-14
3.093000000e-01	2.089265788e+00	-1.412663588e-01	5.428786428e-14
3.094000000e-01	2.089302057e+00	-1.412366722e-01	1.403842505e-14
3.095000000e-01	2.089338312e+00	-1.412070299e-01	6.768050175e-14
3.096000000e-01	2.089374552e+00	-1.411774319e-01	2.794506833e-14
3.097000000e-01	2.089410777e+00	-1.411478781e-01	4.205841672e-14
3.098000000e-01	2.089446988e+00	-1.411183684e-01	5.341538094e-14
3.099000000e-01	2.089483183e+00	-1.410889026e-01	4.977654754e-14
3.100000000e-01	2.089519365e+00	-1.410594807e-01	4.716684549e-14
3.101000000e-01	2.089555531e+00	-1.410301025e-01	4.497205862e-14
3.102000000e-01	2.089591683e+00	-1.410007679e-01	4.748825689e-14
3.103000000e-01	2.089627820e+00	-1.409714769e-01	5.604451619e-14
3.104000000e-01	2.089663942e+00	-1.409422293e-01	3.069557109e-14
3.105000000e-01	2.089700050e+00	-1.409130250e-01	6.221319569e-14
3.106000000e-01	2.089736143e+00	-1.408838639e-01	5.526058127e-14
3.107000000e-01	2.089772222e+00	-1.408547459e-01	2.654502522e-14
3.108000000e-01	2.089808286e+00	-1.408256709e-01	8.625336629e-14
3.109000000e-01	2.089844336e+00	-1.407966388e-01	4.643190137e-14
3.110000000e-01	2.089880371e+00	-1.407676494e-01	5.724084021e-14
3.111000000e-01	2.089916392e+00	-1.407387028e-01	6.002199580e-14
3.112000000e-01	2.089952398e+00	-1.407097987e-01	4.488114460e-14
3.113000000e-01	2.089988390e+00	-1.406809370e-01	6.452289658e-14
3.114000000e-01	2.090024367e+00	-1.406521178e-01	6.487445900e-14
3.115000000e-01	2.090060330e+00	-1.406233408e-01	2.791265637e-14
3.116000000e-01	2.090096279e+00	-1.405946059e-01	5.287190964e-14
3.117000000e-01	2.090132213e+00	-1.405659131e-01	5.675646032e-14
3.118000000e-01	2.090168133e+00	-1.405372623e-01	3.236910802e-14
3.119000000e-01	2.090204039e+00	-1.405086533e-01	3.574082078e-14
3.120000000e-01	2.090239931e+00	-1.404800861e-01	3.473445059e-14
3.121000000e-01	2.090275808e+00	-1.404515605e-01	4.487867161e-14
3.122000000e-01	2.090311671e+00	-1.404230764e-01	7.187216973e-14
3.123000000e-01	2.090347520e+00	-1.403946338e-01	2.164381745e-14
3.124000000e-01	2.090383354e+00	-1.403662325e-01	6.824458994e-14
3.125000000e-01	2.090419175e+00	-1.403378725e-01	4.612238516e-14
3.126000000e-01	2.090454981e+00	-1.403095536e-01	4.766719733e-14
3.127000000e-01	2.090490773e+00	-1.402812757e-01	5.232029258e-14
3.128000000e-01	2.090526551e+00	-1.402530388e-01	4.789618501e-14
3.129000000e-01	2.090562315e+00	-1.402248428e-01	4.772308111e-14
3.130000000e-01	2.090598065e+00	-1.401966875e-01	6.109461678e-14
3.132000000e-01	2.090669523e+00	-1.401404987e-01	6.472322315e-14
3.133000000e-01	2.090705231e+00	-1.401124650e-01	7.502545669e-14
3.134000000e-01	2.090740925e+00	-1.400844717e-01	5.847662586e-14
3.135000000e-01	2.090776605e+00	-1.400565186e-01	7.985447480e-14
3.136000000e-01	2.090812271e+00	-1.400286057e-01	5.213495025e-14
3.137000000e-01	2.090847923e+00	-1.400007328e-01	4.925887317e-14
3.138000000e-01	2.090883561e+00	-1.399729000e-01	9.252050108e-14
3.139000000e-01	2.090919185e+00	-1.399451070e-01	3.864551302e-14
3.140000000e-01	2.090954795e+00	-1.399173537e-01	4.039003008e-14
3.141000000e-01	2.090990392e+00	-1.398896402e-01	7.202608113e-14
3.142000000e-01	2.091025975e+00	-1.398619662e-01	7.778238360e-14
3.143000000e-01	2.091061544e+00	-1.398343317e-01	5.162466195e-14
3.144000000e-01	2.091097099e+00	-1.398067366e-01	5.415115648e-14
3.145000000e-01	2.091132640e+00	-1.397791808e-01	2.106123393e-14
3.146000000e-01	2.091168168e+00	-1.397516642e-01	4.982012219e-14
3.147000000e-01	2.091203682e+00	-1.397241868e-01	9.366924200e-14
3.148000000e-01	2.091239182e+00	-1.396967483e-01	6.938029273e-14
3.149000000e-01	2.091274669e+00	-1.396693488e-01	7.313831996e-14
3.150000000e-01	2.091310142e+00	-1.396419881e-01	4.772485991e-14
3.151000000e-01	2.091345601e+00	-1.396146661e-01	4.192768176e-14
3.152000000e-01	2.091381047e+00	-1.395873828e-01	6.751928294e-14
3.153000000e-01	2.091416479e+00	-1.395601381e-01	3.067953687e-14
3.154000000e-01	2.091451898e+00	-1.395329318e-01	3.783914189e-14
3.155000000e-01	2.091487303e+00	-1.395057639e-01	5.831138548e-14
3.156000000e-01	2.091522694e+00	-1.394786343e-01	5.039137884e-14
3.157000000e-01	2.091558072e+00	-1.394515428e-01	4.939591881e-14
3.158000000e-01	2.091593437e+00	-1.394244895e-01	6.001463187e-14
3.159000000e-01	2.091628788e+00	-1.393974742e-01	4.901504806e-14
3.160000000e-01	2.091664125e+00	-1.393704968e-01	7.957646508e-14
3.161000000e-01	2.091699449e+00	-1.393435572e-01	4.814254447e-14
3.162000000e-01	2.091734760e+00	-1.393166554e-01	3.137448636e-14
3.164000000e-01	2.091805341e+00	-1.392629647e-01	6.248295159e-14
3.165000000e-01	2.091840612e+00	-1.392361755e-01	3.470244573e-14
3.166000000e-01	2.091875869e+00	-1.392094238e-01	5.350636161e-14
3.167000000e-01	2.091911113e+00	-1.391827094e-01	1.888499524e-14
3.168000000e-01	2.091946343e+00	-1.391560322e-01	4.253534959e-14
3.169000000e-01	2.091981561e+00	-1.391293921e-01	5.303651309e-14
3.170000000e-01	2.092016765e+00	-1.391027890e-01	8.205825973e-14
3.171000000e-01	2.092051955e+00	-1.390762229e-01	4.741719842e-14
3.172000000e-01	2.092087133e+00	-1.390496937e-01	1.886164476e-14
3.173000000e-01	2.092122297e+00	-1.390232012e-01	4.134473204e-14
3.174000000e-01	2.092157448e+00	-1.389967455e-01	5.054530422e-14
3.175000000e-01	2.092192586e+00	-1.389703263e-01	2.812111125e-14
3.176000000e-01	2.092227711e+00	-1.389439437e-01	5.567821435e-14
3.177000000e-01	2.092262823e+00	-1.389175975e-01	6.451405514e-14
3.178000000e-01	2.092297922e+00	-1.388912877e-01	6.980576136e-14
3.180000000e-01	2.092368080e+00	-1.388387767e-01	7.806896962e-14
3.181000000e-01	2.092403139e+00	-1.388125754e-01	6.372157456e-14
3.182000000e-01	2.092438186e+00	-1.387864101e-01	3.762275457e-14
3.183000000e-01	2.092473219e+00	-1.387602808e-01	6.823418009e-14
3.184000000e-01	2.092508239e+00	-1.387341873e-01	5.018596654e-14
3.185000000e-01	2.092543247e+00	-1.387081295e-01	3.740138802e-14
3.186000000e-01	2.092578241e+00	-1.386821075e-01	4.742321946e-14
3.187000000e-01	2.092613223e+00	-1.386561210e-01	3.690654637e-14
3.188000000e-01	2.092648191e+00	-1.386301701e-01	5.868222041e-14
3.189000000e-01	2.092683147e+00	-1.386042546e-01	4.814334856e-14
3.191000000e-01	2.092753020e+00	-1.385525295e-01	7.007457959e-14
3.192000000e-01	2.092787937e+00	-1.385267199e-01	3.189645542e-14
3.193000000e-01	2.092822841e+00	-1.385009453e-01	6.029691600e-14
3.194000000e-01	2.092857733e+00	-1.384752057e-01	7.393598845e-14
3.195000000e-01	2.092892611e+00	-1.384495011e-01	7.044781339e-14
3.196000000e-01	2.092927477e+00	-1.384238313e-01	3.719988847e-14
3.197000000e-01	2.092962330e+00	-1.383981964e-01	9.796480539e-14
3.199000000e-01	2.093031998e+00	-1.383470305e-01	2.125678929e-14
3.200000000e-01	2.093066813e+00	-1.383214994e-01	3.812029005e-14
3.201000000e-01	2.093101616e+00	-1.382960028e-01	5.502700203e-14
3.202000000e-01	2.093136405e+00	-1.382705406e-01	7.117700235e-14
3.203000000e-01	2.093171182e+00	-1.382451127e-01	2.823637831e-14
3.204000000e-01	2.093205947e+00	-1.382197190e-01	3.489359667e-14
3.205000000e-01	2.093240699e+00	-1.381943595e-01	7.638904548e-14
3.206000000e-01	2.093275438e+00	-1.381690340e-01	6.381476009e-14
3.207000000e-01	2.093310164e+00	-1.381437425e-01	3.500029415e-14
3.208000000e-01	2.093344878e+00	-1.381184850e-01	4.785103510e-14
3.209000000e-01	2.093379580e+00	-1.380932613e-01	5.351661870e-14
3.210000000e-01	2.093414269e+00	-1.380680714e-01	3.024072998e-14
3.211000000e-01	2.093448945e+00	-1.380429151e-01	7.657823554e-14
3.212000000e-01	2.093483609e+00	-1.380177925e-01	4.594453767e-14
3.213000000e-01	2.093518261e+00	-1.379927034e-01	7.387909259e-14
3.214000000e-01	2.093552900e+00	-1.379676478e-01	3.240750803e-14
3.215000000e-01	2.093587527e+00	-1.379426255e-01	5.197663796e-14
3.216000000e-01	2.093622141e+00	-1.379176366e-01	5.192279724e-14
3.217000000e-01	2.093656743e+00	-1.378926809e-01	2.859948795e-14
3.218000000e-01	2.093691332e+00	-1.378677583e-01	5.181616328e-14
3.219000000e-01	2.093725910e+00	-1.378428688e-01	6.753830586e-14
3.220000000e-01	2.093760474e+00	-1.378180124e-01	5.745493989e-14
3.221000000e-01	2.093795027e+00	-1.377931888e-01	7.196052010e-14
3.222000000e-01	2.093829567e+00	-1.377683982e-01	8.410483177e-14
3.223000000e-01	2.093864095e+00	-1.377436403e-01	4.394061783e-14
3.224000000e-01	2.093898610e+00	-1.377189151e-01	2.141216767e-14
3.225000000e-01	2.093933114e+00	-1.376942225e-01	6.176695141e-14
3.226000000e-01	2.093967605e+00	-1.376695626e-01	3.370847597e-14
3.227000000e-01	2.094002084e+00	-1.376449351e-01	4.029101130e-14
3.228000000e-01	2.094036550e+00	-1.376203400e-01	5.581951658e-14
3.229000000e-01	2.094071005e+00	-1.375957773e-01	6.800429906e-14
3.230000000e-01	2.094105447e+00	-1.375712468e-01	4.782720800e-14
3.231000000e-01	2.094139877e+00	-1.375467485e-01	3.694191277e-14
3.232000000e-01	2.094174295e+00	-1.375222824e-01	5.235501177e-14
3.233000000e-01	2.094208701e+00	-1.374978483e-01	3.476092004e-14
3.234000000e-01	2.094243095e+00	-1.374734462e-01	5.038830829e-14
3.235000000e-01	2.094277477e+00	-1.374490760e-01	4.569505742e-14
3.236000000e-01	2.094311847e+00	-1.374247377e-01	4.584669192e-14
3.237000000e-01	2.094346204e+00	-1.374004311e-01	6.764249467e-14
3.238000000e-01	2.094380550e+00	-1.373761563e-01	4.146879513e-14
3.239000000e-01	2.094414883e+00	-1.373519130e-01	2.792932660e-14
3.240000000e-01	2.094449205e+00	-1.373277013e-01	2.967399542e-14
3.241000000e-01	2.094483515e+00	-1.373035211e-01	5.128956453e-14
3.242000000e-01	2.094517812e+00	-1.372793723e-01	4.597719387e-14
3.243000000e-01	2.094552098e+00	-1.372552549e-01	8.714385327e-14
3.244000000e-01	2.094586372e+00	-1.372311687e-01	2.993624622e-14
3.245000000e-01	2.094620634e+00	-1.372071138e-01	4.542546152e-14
3.246000000e-01	2.094654884e+00	-1.371830899e-01	5.875754660e-14
3.247000000e-01	2.094689122e+00	-1.371590972e-01	9.109669984e-14
3.248000000e-01	2.094723348e+00	-1.371351354e-01	3.037847929e-14
3.249000000e-01	2.094757562e+00	-1.371112046e-01	3.892965874e-14
3.250000000e-01	2.094791765e+00	-1.370873047e-01	5.639433399e-14
3.251000000e-01	2.094825955e+00	-1.370634355e-01	2.962242415e-14
3.252000000e-01	2.094860134e+00	-1.370395971e-01	5.535182459e-14
3.253000000e-01	2.094894301e+00	-1.370157893e-01	4.761605558e-14
3.254000000e-01	2.094928457e+00	-1.369920121e-01	3.781172586e-14
3.255000000e-01	2.094962600e+00	-1.369682655e-01	5.235485267e-14
3.256000000e-01	2.094996732e+00	-1.369445493e-01	2.818093179e-14
3.257000000e-01	2.095030852e+00	-1.369208635e-01	3.974322462e-14
3.258000000e-01	2.095064961e+00	-1.368972080e-01	5.483311360e-14
3.259000000e-01	2.095099058e+00	-1.368735828e-01	3.188769599e-14
3.260000000e-01	2.095133143e+00	-1.368499877e-01	1.758423054e-14
3.261000000e-01	2.095167216e+00	-1.368264228e-01	4.325723058e-14
3.262000000e-01	2.095201278e+00	-1.368028879e-01	5.581654710e-14
3.263000000e-01	2.095235328e+00	-1.367793831e-01	4.690864927e-14
3.264000000e-01	2.095269367e+00	-1.367559081e-01	5.172857784e-14
3.265000000e-01	2.095303394e+00	-1.367324631e-01	5.403553139e-14
3.266000000e-01	2.095337409e+00	-1.367090478e-01	2.712905753e-14
3.267000000e-01	2.095371413e+00	-1.366856622e-01	3.553354656e-14
3.268000000e-01	2.095405406e+00	-1.366623063e-01	3.409403913e-14
3.269000000e-01	2.095439387e+00	-1.366389800e-01	3.542541786e-14
3.270000000e-01	2.095473356e+00	-1.366156833e-01	4.307562629e-14
3.271000000e-01	2.095507314e+00	-1.365924160e-01	6.025758479e-14
3.272000000e-01	2.095541260e+00	-1.365691781e-01	4.198469846e-14
3.273000000e-01	2.095575195e+00	-1.365459696e-01	6.286164017e-14
3.274000000e-01	2.095609119e+00	-1.365227904e-01	6.225095092e-14
3.275000000e-01	2.095643031e+00	-1.364996403e-01	3.055997924e-14
3.276000000e-01	2.095676931e+00	-1.364765194e-01	2.574276895e-14
3.277000000e-01	2.095710820e+00	-1.364534276e-01	2.226909005e-14
3.278000000e-01	2.095744698e+00	-1.364303649e-01	3.287828063e-14
3.279000000e-01	2.095778565e+00	-1.364073311e-01	8.545495060e-14
3.280000000e-01	2.095812420e+00	-1.363843262e-01	3.975298313e-14
3.281000000e-01	2.095846264e+00	-1.363613501e-01	4.616098531e-14
3.282000000e-01	2.095880096e+00	-1.363384028e-01	5.057366779e-14
3.283000000e-01	2.095913917e+00	-1.363154842e-01	2.080180403e-14
3.284000000e-01	2.095947727e+00	-1.362925943e-01	5.825783347e-14
3.285000000e-01	2.095981526e+00	-1.362697330e-01	4.361727167e-14
3.286000000e-01	2.096015313e+00	-1.362469002e-01	4.646519428e-14
3.287000000e-01	2.096049090e+00	-1.362240958e-01	9.895073505e-14
3.288000000e-01	2.096082854e+00	-1.362013199e-01	5.500351220e-14
3.289000000e-01	2.096116608e+00	-1.361785723e-01	2.827609738e-14
3.290000000e-01	2.096150351e+00	-1.361558530e-01	3.606758975e-14
3.291000000e-01	2.096184082e+00	-1.361331619e-01	5.647009859e-14
3.292000000e-01	2.096217802e+00	-1.361104990e-01	4.034773490e-14
3.293000000e-01	2.096251511e+00	-1.360878641e-01	3.960620850e-14
3.294000000e-01	2.096285209e+00	-1.360652573e-01	2.678605770e-14
3.295000000e-01	2.096318896e+00	-1.360426785e-01	6.604741174e-14
3.296000000e-01	2.096352572e+00	-1.360201276e-01	2.247087699e-14
3.297000000e-01	2.096386236e+00	-1.359976046e-01	5.074130728e-14
3.298000000e-01	2.096419890e+00	-1.359751094e-01	4.716838573e-14
3.299000000e-01	2.096453532e+00	-1.359526419e-01	9.853015897e-14
3.300000000e-01	2.096487164e+00	-1.359302021e-01	8.307620393e-14
3.301000000e-01	2.096520784e+00	-1.359077899e-01	5.036389838e-14
3.302000000e-01	2.096554393e+00	-1.358854053e-01	4.506292719e-14
3.303000000e-01	2.096587992e+00	-1.358630482e-01	3.140321761e-14
3.305000000e-01	2.096655156e+00	-1.358184163e-01	3.988554441e-14
3.306000000e-01	2.096688721e+00	-1.357961414e-01	4.607445734e-14
3.307000000e-01	2.096722276e+00	-1.357738937e-01	5.106866403e-14
3.308000000e-01	2.096755819e+00	-1.357516733e-01	4.747177527e-14
3.309000000e-01	2.096789352e+00	-1.357294800e-01	7.319635438e-14
3.310000000e-01	2.096822874e+00	-1.357073138e-01	8.746056209e-14
3.311000000e-01	2.096856385e+00	-1.356851746e-01	4.723020411e-14
3.312000000e-01	2.096889885e+00	-1.356630624e-01	7.163012481e-14
3.313000000e-01	2.096923374e+00	-1.356409772e-01	4.900679972e-14
