# mu [eV]     Omega/c [1/micrones]    Im(epsi1)     Eq(det)R = 0.10 $\mu$m, $E_p$ = 0.300 eV, modo = 2, $\epsilon_\infty$ = 3.9, $\gamma_{DL}$ = 0.01 eV, solve_det_sinkz_vs_mu.py
3.000000000e-01	7.983273088e-01	-2.510404835e-01	7.719895407e-14
3.002000000e-01	7.984068438e-01	-2.509521369e-01	5.603086321e-14
3.003000000e-01	7.984466063e-01	-2.509079913e-01	7.809584984e-14
3.004000000e-01	7.984863655e-01	-2.508638641e-01	3.151851846e-14
3.005000000e-01	7.985261214e-01	-2.508197554e-01	5.570233548e-14
3.006000000e-01	7.985658740e-01	-2.507756651e-01	6.842830251e-14
3.007000000e-01	7.986056234e-01	-2.507315932e-01	4.216056405e-14
3.008000000e-01	7.986453694e-01	-2.506875398e-01	4.594177463e-14
3.009000000e-01	7.986851122e-01	-2.506435046e-01	7.702032204e-14
3.010000000e-01	7.987248517e-01	-2.505994879e-01	3.408818621e-14
3.011000000e-01	7.987645879e-01	-2.505554894e-01	6.409747422e-14
3.012000000e-01	7.988043208e-01	-2.505115093e-01	3.239003133e-14
3.013000000e-01	7.988440505e-01	-2.504675475e-01	7.069231776e-14
3.014000000e-01	7.988837768e-01	-2.504236040e-01	4.526342134e-14
3.015000000e-01	7.989234999e-01	-2.503796788e-01	7.379693971e-14
3.016000000e-01	7.989632197e-01	-2.503357719e-01	2.926717201e-14
3.017000000e-01	7.990029363e-01	-2.502918831e-01	5.341246654e-14
3.018000000e-01	7.990426495e-01	-2.502480126e-01	5.715778812e-14
3.019000000e-01	7.990823595e-01	-2.502041603e-01	4.607466517e-14
3.020000000e-01	7.991220663e-01	-2.501603263e-01	6.395501383e-14
3.021000000e-01	7.991617698e-01	-2.501165103e-01	3.692957303e-14
3.023000000e-01	7.992411669e-01	-2.500289330e-01	5.186039991e-14
3.024000000e-01	7.992808606e-01	-2.499851715e-01	3.671458401e-14
3.025000000e-01	7.993205510e-01	-2.499414282e-01	6.639830441e-14
3.026000000e-01	7.993602382e-01	-2.498977029e-01	9.088355458e-14
3.027000000e-01	7.993999221e-01	-2.498539958e-01	4.959755945e-14
3.029000000e-01	7.994792802e-01	-2.497666356e-01	2.535255719e-14
3.030000000e-01	7.995189544e-01	-2.497229826e-01	4.508230929e-14
3.031000000e-01	7.995586253e-01	-2.496793476e-01	3.878447186e-14
3.032000000e-01	7.995982930e-01	-2.496357306e-01	6.825535672e-14
3.033000000e-01	7.996379574e-01	-2.495921317e-01	2.960926769e-14
3.034000000e-01	7.996776186e-01	-2.495485506e-01	2.715312514e-14
3.035000000e-01	7.997172766e-01	-2.495049876e-01	8.349041389e-14
3.036000000e-01	7.997569313e-01	-2.494614425e-01	4.680272365e-14
3.037000000e-01	7.997965827e-01	-2.494179153e-01	5.090260576e-14
3.038000000e-01	7.998362310e-01	-2.493744060e-01	4.041673105e-14
3.039000000e-01	7.998758760e-01	-2.493309146e-01	3.111879089e-14
3.040000000e-01	7.999155178e-01	-2.492874411e-01	7.740623995e-14
3.041000000e-01	7.999551563e-01	-2.492439855e-01	4.454804473e-14
3.042000000e-01	7.999947916e-01	-2.492005477e-01	2.453975907e-14
3.043000000e-01	8.000344237e-01	-2.491571278e-01	5.435339017e-14
3.044000000e-01	8.000740526e-01	-2.491137257e-01	3.326911857e-14
3.045000000e-01	8.001136782e-01	-2.490703414e-01	5.140998725e-14
3.046000000e-01	8.001533006e-01	-2.490269748e-01	5.022704057e-14
3.047000000e-01	8.001929198e-01	-2.489836261e-01	6.684903161e-14
3.048000000e-01	8.002325358e-01	-2.489402951e-01	4.537811677e-14
3.049000000e-01	8.002721486e-01	-2.488969818e-01	2.222459151e-14
3.051000000e-01	8.003513644e-01	-2.488104085e-01	4.670940127e-14
3.052000000e-01	8.003909676e-01	-2.487671484e-01	4.687371109e-14
3.053000000e-01	8.004305675e-01	-2.487239059e-01	4.657306191e-14
3.054000000e-01	8.004701642e-01	-2.486806812e-01	5.830587021e-14
3.055000000e-01	8.005097577e-01	-2.486374741e-01	4.746407941e-14
3.056000000e-01	8.005493480e-01	-2.485942846e-01	4.987071438e-14
3.057000000e-01	8.005889351e-01	-2.485511127e-01	8.941095847e-14
3.058000000e-01	8.006285190e-01	-2.485079585e-01	4.157529527e-14
3.059000000e-01	8.006680996e-01	-2.484648218e-01	7.828395523e-14
3.060000000e-01	8.007076771e-01	-2.484217027e-01	5.064080644e-14
3.061000000e-01	8.007472514e-01	-2.483786012e-01	7.411739174e-14
3.062000000e-01	8.007868225e-01	-2.483355172e-01	4.052276969e-14
3.063000000e-01	8.008263904e-01	-2.482924508e-01	9.049497611e-14
3.064000000e-01	8.008659552e-01	-2.482494019e-01	5.200160238e-14
3.065000000e-01	8.009055167e-01	-2.482063704e-01	9.415974202e-14
3.066000000e-01	8.009450750e-01	-2.481633565e-01	1.908875462e-14
3.067000000e-01	8.009846302e-01	-2.481203600e-01	5.835403005e-14
3.069000000e-01	8.010637309e-01	-2.480344195e-01	4.631460886e-14
3.071000000e-01	8.011428190e-01	-2.479485486e-01	3.110051571e-14
3.072000000e-01	8.011823582e-01	-2.479056393e-01	3.322945225e-14
3.073000000e-01	8.012218943e-01	-2.478627473e-01	5.140603109e-14
3.074000000e-01	8.012614272e-01	-2.478198727e-01	5.544538707e-14
3.075000000e-01	8.013009569e-01	-2.477770155e-01	6.868168081e-14
3.076000000e-01	8.013404834e-01	-2.477341756e-01	6.608933608e-14
3.077000000e-01	8.013800068e-01	-2.476913530e-01	6.856272717e-14
3.078000000e-01	8.014195270e-01	-2.476485478e-01	4.825615539e-14
3.079000000e-01	8.014590441e-01	-2.476057598e-01	7.892248999e-14
3.080000000e-01	8.014985580e-01	-2.475629891e-01	4.213783627e-14
3.081000000e-01	8.015380687e-01	-2.475202357e-01	6.821947842e-14
3.082000000e-01	8.015775762e-01	-2.474774996e-01	5.118528507e-14
3.083000000e-01	8.016170806e-01	-2.474347806e-01	4.862979624e-14
3.084000000e-01	8.016565819e-01	-2.473920789e-01	6.076321207e-14
3.086000000e-01	8.017355749e-01	-2.473067271e-01	5.870514210e-14
3.087000000e-01	8.017750667e-01	-2.472640770e-01	3.356125426e-14
3.088000000e-01	8.018145553e-01	-2.472214440e-01	2.038892166e-14
3.089000000e-01	8.018540408e-01	-2.471788282e-01	5.209348892e-14
3.090000000e-01	8.018935231e-01	-2.471362295e-01	3.262941503e-14
3.091000000e-01	8.019330023e-01	-2.470936480e-01	5.811813406e-14
3.092000000e-01	8.019724783e-01	-2.470510835e-01	5.187061895e-14
3.093000000e-01	8.020119512e-01	-2.470085361e-01	4.300857873e-14
3.094000000e-01	8.020514209e-01	-2.469660059e-01	8.042876204e-14
3.095000000e-01	8.020908875e-01	-2.469234926e-01	4.826075286e-14
3.096000000e-01	8.021303510e-01	-2.468809965e-01	4.215063186e-14
3.097000000e-01	8.021698113e-01	-2.468385173e-01	2.325978510e-14
3.098000000e-01	8.022092685e-01	-2.467960552e-01	7.786515466e-14
3.099000000e-01	8.022487226e-01	-2.467536101e-01	3.370209269e-14
3.100000000e-01	8.022881735e-01	-2.467111820e-01	5.936896863e-14
3.101000000e-01	8.023276213e-01	-2.466687708e-01	6.178391132e-14
3.102000000e-01	8.023670659e-01	-2.466263766e-01	5.631446925e-14
3.103000000e-01	8.024065075e-01	-2.465839994e-01	5.448702273e-14
3.104000000e-01	8.024459459e-01	-2.465416391e-01	4.887145291e-14
3.105000000e-01	8.024853812e-01	-2.464992957e-01	7.442842748e-14
3.106000000e-01	8.025248133e-01	-2.464569692e-01	5.312554209e-14
3.107000000e-01	8.025642424e-01	-2.464146597e-01	5.605474712e-14
3.108000000e-01	8.026036683e-01	-2.463723670e-01	5.673816057e-14
3.109000000e-01	8.026430911e-01	-2.463300911e-01	6.748978672e-14
3.111000000e-01	8.027219274e-01	-2.462455900e-01	9.794018847e-14
3.112000000e-01	8.027613408e-01	-2.462033647e-01	7.567291864e-14
3.113000000e-01	8.028007512e-01	-2.461611561e-01	7.017320936e-14
3.114000000e-01	8.028401584e-01	-2.461189644e-01	6.049284884e-14
3.115000000e-01	8.028795625e-01	-2.460767895e-01	4.032128617e-14
3.116000000e-01	8.029189636e-01	-2.460346313e-01	2.745699889e-14
3.117000000e-01	8.029583615e-01	-2.459924899e-01	5.906168016e-14
3.118000000e-01	8.029977563e-01	-2.459503652e-01	5.197581895e-14
3.119000000e-01	8.030371480e-01	-2.459082572e-01	8.002729071e-14
3.120000000e-01	8.030765366e-01	-2.458661660e-01	7.220603794e-14
3.121000000e-01	8.031159221e-01	-2.458240914e-01	6.967080728e-14
3.122000000e-01	8.031553045e-01	-2.457820336e-01	7.849748360e-14
3.123000000e-01	8.031946838e-01	-2.457399924e-01	7.619384262e-14
3.124000000e-01	8.032340601e-01	-2.456979678e-01	4.865989382e-14
3.125000000e-01	8.032734332e-01	-2.456559599e-01	5.022664946e-14
3.127000000e-01	8.033521702e-01	-2.455719940e-01	4.248021451e-14
3.128000000e-01	8.033915340e-01	-2.455300359e-01	5.000159821e-14
3.129000000e-01	8.034308948e-01	-2.454880945e-01	6.874168561e-14
3.130000000e-01	8.034702525e-01	-2.454461696e-01	7.433376883e-14
3.131000000e-01	8.035096071e-01	-2.454042613e-01	5.300044719e-14
3.132000000e-01	8.035489586e-01	-2.453623695e-01	7.729437462e-14
3.133000000e-01	8.035883070e-01	-2.453204942e-01	4.687765534e-14
3.134000000e-01	8.036276524e-01	-2.452786355e-01	3.699668309e-14
3.135000000e-01	8.036669947e-01	-2.452367933e-01	5.261520888e-14
3.136000000e-01	8.037063339e-01	-2.451949675e-01	6.674726589e-14
3.137000000e-01	8.037456700e-01	-2.451531583e-01	6.442070894e-14
3.138000000e-01	8.037850031e-01	-2.451113655e-01	5.810711125e-14
3.139000000e-01	8.038243331e-01	-2.450695891e-01	2.572485214e-14
3.140000000e-01	8.038636600e-01	-2.450278292e-01	7.044505071e-14
3.141000000e-01	8.039029838e-01	-2.449860858e-01	6.468243213e-14
3.142000000e-01	8.039423046e-01	-2.449443587e-01	5.741018573e-14
3.143000000e-01	8.039816223e-01	-2.449026480e-01	2.327129157e-14
3.144000000e-01	8.040209370e-01	-2.448609538e-01	5.299179077e-14
3.145000000e-01	8.040602486e-01	-2.448192758e-01	4.642744584e-14
3.146000000e-01	8.040995571e-01	-2.447776143e-01	4.854748511e-14
3.147000000e-01	8.041388626e-01	-2.447359691e-01	5.704604746e-14
3.149000000e-01	8.042174643e-01	-2.446527277e-01	3.816972956e-14
3.150000000e-01	8.042567606e-01	-2.446111314e-01	1.371305217e-14
3.151000000e-01	8.042960539e-01	-2.445695515e-01	4.892444381e-14
3.152000000e-01	8.043353441e-01	-2.445279878e-01	6.688520736e-14
3.153000000e-01	8.043746312e-01	-2.444864404e-01	2.236047121e-14
3.154000000e-01	8.044139153e-01	-2.444449092e-01	3.557282821e-14
3.155000000e-01	8.044531964e-01	-2.444033943e-01	5.536184749e-14
3.156000000e-01	8.044924744e-01	-2.443618956e-01	8.732008635e-14
3.157000000e-01	8.045317493e-01	-2.443204131e-01	8.815198781e-14
3.158000000e-01	8.045710213e-01	-2.442789468e-01	7.278409534e-14
3.159000000e-01	8.046102901e-01	-2.442374967e-01	7.044499056e-14
3.160000000e-01	8.046495560e-01	-2.441960628e-01	6.205262836e-14
3.161000000e-01	8.046888188e-01	-2.441546450e-01	7.972068119e-14
3.162000000e-01	8.047280785e-01	-2.441132434e-01	6.096894261e-14
3.163000000e-01	8.047673353e-01	-2.440718579e-01	4.064932685e-14
3.164000000e-01	8.048065889e-01	-2.440304885e-01	2.993776909e-14
3.165000000e-01	8.048458396e-01	-2.439891353e-01	7.186488839e-14
3.166000000e-01	8.048850872e-01	-2.439477981e-01	8.643954790e-14
3.167000000e-01	8.049243318e-01	-2.439064770e-01	2.970837326e-14
3.169000000e-01	8.050028120e-01	-2.438238831e-01	2.966198513e-14
3.170000000e-01	8.050420475e-01	-2.437826101e-01	2.457785606e-14
3.172000000e-01	8.051205095e-01	-2.437001124e-01	5.080274293e-14
3.173000000e-01	8.051597359e-01	-2.436588875e-01	3.624159775e-14
3.174000000e-01	8.051989593e-01	-2.436176787e-01	2.930727251e-14
3.176000000e-01	8.052773972e-01	-2.435353089e-01	5.246094556e-14
3.177000000e-01	8.053166116e-01	-2.434941479e-01	7.721822619e-14
3.178000000e-01	8.053558229e-01	-2.434530028e-01	3.669853921e-14
3.179000000e-01	8.053950313e-01	-2.434118737e-01	6.802891583e-14
3.180000000e-01	8.054342367e-01	-2.433707606e-01	5.498667446e-14
3.181000000e-01	8.054734390e-01	-2.433296633e-01	6.375126438e-14
3.182000000e-01	8.055126383e-01	-2.432885819e-01	5.158106956e-14
3.183000000e-01	8.055518347e-01	-2.432475164e-01	6.155549061e-14
3.184000000e-01	8.055910280e-01	-2.432064667e-01	3.435889152e-14
3.185000000e-01	8.056302183e-01	-2.431654329e-01	4.590423151e-14
3.186000000e-01	8.056694057e-01	-2.431244149e-01	5.519227442e-14
3.187000000e-01	8.057085900e-01	-2.430834128e-01	6.944234797e-14
3.188000000e-01	8.057477713e-01	-2.430424265e-01	6.669119620e-14
3.190000000e-01	8.058261250e-01	-2.429605012e-01	5.327937768e-14
3.191000000e-01	8.058652973e-01	-2.429195622e-01	5.811564864e-14
3.192000000e-01	8.059044667e-01	-2.428786390e-01	3.529116801e-14
3.193000000e-01	8.059436330e-01	-2.428377316e-01	4.477214384e-14
3.194000000e-01	8.059827964e-01	-2.427968399e-01	8.727369912e-14
3.195000000e-01	8.060219568e-01	-2.427559639e-01	3.540011226e-14
3.196000000e-01	8.060611141e-01	-2.427151036e-01	3.274692160e-14
3.197000000e-01	8.061002685e-01	-2.426742590e-01	7.485180629e-14
3.198000000e-01	8.061394200e-01	-2.426334302e-01	4.427803404e-14
3.199000000e-01	8.061785684e-01	-2.425926170e-01	5.315406509e-14
3.200000000e-01	8.062177139e-01	-2.425518194e-01	4.519316888e-14
3.201000000e-01	8.062568563e-01	-2.425110375e-01	4.949858884e-14
3.202000000e-01	8.062959958e-01	-2.424702713e-01	6.698981681e-14
3.203000000e-01	8.063351324e-01	-2.424295206e-01	6.492684130e-14
3.204000000e-01	8.063742659e-01	-2.423887856e-01	5.180451603e-14
3.205000000e-01	8.064133965e-01	-2.423480662e-01	3.756740486e-14
3.207000000e-01	8.064916487e-01	-2.422666741e-01	4.533385383e-14
3.208000000e-01	8.065307704e-01	-2.422260015e-01	5.780201080e-14
3.209000000e-01	8.065698891e-01	-2.421853443e-01	6.397424162e-14
3.210000000e-01	8.066090048e-01	-2.421447027e-01	8.425262012e-14
3.211000000e-01	8.066481175e-01	-2.421040767e-01	5.750122004e-14
3.212000000e-01	8.066872273e-01	-2.420634661e-01	6.988318759e-14
3.213000000e-01	8.067263342e-01	-2.420228711e-01	5.007758916e-14
3.214000000e-01	8.067654380e-01	-2.419822915e-01	3.214134006e-14
3.215000000e-01	8.068045389e-01	-2.419417275e-01	8.350488068e-14
3.216000000e-01	8.068436369e-01	-2.419011789e-01	4.238763500e-14
3.217000000e-01	8.068827319e-01	-2.418606457e-01	2.927002782e-14
3.218000000e-01	8.069218239e-01	-2.418201280e-01	5.608017316e-14
3.219000000e-01	8.069609130e-01	-2.417796257e-01	6.819341588e-14
3.220000000e-01	8.069999992e-01	-2.417391389e-01	8.919812924e-14
3.221000000e-01	8.070390823e-01	-2.416986674e-01	8.451477977e-14
3.222000000e-01	8.070781626e-01	-2.416582114e-01	7.776282647e-14
3.223000000e-01	8.071172398e-01	-2.416177707e-01	4.977762653e-14
3.224000000e-01	8.071563142e-01	-2.415773454e-01	6.294108450e-14
3.225000000e-01	8.071953856e-01	-2.415369354e-01	5.318351434e-14
3.226000000e-01	8.072344540e-01	-2.414965408e-01	6.524494606e-14
3.227000000e-01	8.072735195e-01	-2.414561616e-01	4.624715266e-14
3.228000000e-01	8.073125821e-01	-2.414157976e-01	4.989455943e-14
3.229000000e-01	8.073516417e-01	-2.413754490e-01	6.923872425e-14
3.230000000e-01	8.073906984e-01	-2.413351157e-01	8.099691882e-14
3.231000000e-01	8.074297521e-01	-2.412947976e-01	2.967853746e-14
3.232000000e-01	8.074688029e-01	-2.412544948e-01	3.848428416e-14
3.233000000e-01	8.075078508e-01	-2.412142073e-01	8.598808577e-14
3.235000000e-01	8.075859377e-01	-2.411336781e-01	3.683290378e-14
3.236000000e-01	8.076249768e-01	-2.410934363e-01	7.139970640e-14
3.237000000e-01	8.076640130e-01	-2.410532097e-01	3.707613021e-14
3.238000000e-01	8.077030462e-01	-2.410129983e-01	4.999900208e-14
3.239000000e-01	8.077420765e-01	-2.409728021e-01	6.136054738e-14
3.240000000e-01	8.077811038e-01	-2.409326211e-01	7.474110127e-14
3.241000000e-01	8.078201283e-01	-2.408924553e-01	7.710147207e-14
3.242000000e-01	8.078591498e-01	-2.408523046e-01	6.451771462e-14
3.243000000e-01	8.078981684e-01	-2.408121691e-01	4.352300827e-14
3.244000000e-01	8.079371841e-01	-2.407720487e-01	9.036560720e-14
3.245000000e-01	8.079761968e-01	-2.407319434e-01	5.772749385e-14
3.247000000e-01	8.080542136e-01	-2.406517781e-01	7.850336685e-14
3.248000000e-01	8.080932176e-01	-2.406117182e-01	5.849287210e-14
3.249000000e-01	8.081322187e-01	-2.405716732e-01	5.856868423e-14
3.251000000e-01	8.082102122e-01	-2.404916286e-01	3.534072877e-14
3.252000000e-01	8.082492046e-01	-2.404516288e-01	3.761453999e-14
3.254000000e-01	8.083271806e-01	-2.403716744e-01	7.967629455e-14
3.255000000e-01	8.083661643e-01	-2.403317197e-01	8.483224593e-14
3.256000000e-01	8.084051450e-01	-2.402917800e-01	5.063301705e-14
3.257000000e-01	8.084441229e-01	-2.402518552e-01	4.408767658e-14
3.258000000e-01	8.084830978e-01	-2.402119455e-01	8.742913359e-14
3.259000000e-01	8.085220698e-01	-2.401720507e-01	5.915488732e-14
3.261000000e-01	8.086000053e-01	-2.400923059e-01	6.141867387e-14
3.262000000e-01	8.086389686e-01	-2.400524559e-01	5.772689999e-14
3.263000000e-01	8.086779291e-01	-2.400126208e-01	5.323239380e-14
3.264000000e-01	8.087168866e-01	-2.399728007e-01	5.265700875e-14
3.265000000e-01	8.087558413e-01	-2.399329954e-01	4.788344412e-14
3.266000000e-01	8.087947931e-01	-2.398932050e-01	6.526015809e-14
3.267000000e-01	8.088337420e-01	-2.398534294e-01	3.414887932e-14
3.268000000e-01	8.088726880e-01	-2.398136687e-01	2.271810395e-14
3.269000000e-01	8.089116312e-01	-2.397739229e-01	5.990052561e-14
3.270000000e-01	8.089505714e-01	-2.397341919e-01	6.295348808e-14
3.271000000e-01	8.089895088e-01	-2.396944757e-01	7.177598831e-14
3.272000000e-01	8.090284432e-01	-2.396547743e-01	4.113950293e-14
3.273000000e-01	8.090673748e-01	-2.396150877e-01	4.087645330e-14
3.274000000e-01	8.091063036e-01	-2.395754160e-01	2.844338521e-14
3.275000000e-01	8.091452294e-01	-2.395357589e-01	5.013935455e-14
3.276000000e-01	8.091841524e-01	-2.394961167e-01	4.367236411e-14
3.277000000e-01	8.092230724e-01	-2.394564892e-01	6.144666338e-14
3.278000000e-01	8.092619897e-01	-2.394168765e-01	5.984568110e-14
3.279000000e-01	8.093009040e-01	-2.393772784e-01	6.103765986e-14
3.280000000e-01	8.093398155e-01	-2.393376952e-01	3.353994599e-14
3.281000000e-01	8.093787241e-01	-2.392981266e-01	8.720446735e-14
3.282000000e-01	8.094176298e-01	-2.392585727e-01	7.649630000e-14
3.284000000e-01	8.094954327e-01	-2.391795090e-01	6.131251886e-14
3.285000000e-01	8.095343298e-01	-2.391399991e-01	5.271426869e-14
3.286000000e-01	8.095732241e-01	-2.391005039e-01	4.162151936e-14
3.287000000e-01	8.096121155e-01	-2.390610234e-01	9.089713711e-14
3.288000000e-01	8.096510040e-01	-2.390215574e-01	4.707672919e-14
3.289000000e-01	8.096898897e-01	-2.389821061e-01	8.099691882e-14
3.291000000e-01	8.097676525e-01	-2.389032473e-01	7.404815132e-14
3.292000000e-01	8.098065296e-01	-2.388638398e-01	7.663667773e-14
3.293000000e-01	8.098454039e-01	-2.388244469e-01	5.944319687e-14
3.295000000e-01	8.099231438e-01	-2.387457047e-01	7.267959518e-14
3.296000000e-01	8.099620095e-01	-2.387063554e-01	5.014240434e-14
3.297000000e-01	8.100008724e-01	-2.386670207e-01	6.550739222e-14
3.298000000e-01	8.100397324e-01	-2.386277005e-01	4.665930206e-14
3.299000000e-01	8.100785895e-01	-2.385883948e-01	4.835229196e-14
3.300000000e-01	8.101174439e-01	-2.385491036e-01	3.726088596e-14
3.301000000e-01	8.101562953e-01	-2.385098269e-01	4.916935277e-14
3.303000000e-01	8.102339897e-01	-2.384313169e-01	3.050427415e-14
3.304000000e-01	8.102728327e-01	-2.383920836e-01	8.785727037e-14
3.305000000e-01	8.103116728e-01	-2.383528647e-01	3.290477045e-14
3.306000000e-01	8.103505101e-01	-2.383136603e-01	8.651952075e-14
3.307000000e-01	8.103893445e-01	-2.382744703e-01	6.520348897e-14
3.308000000e-01	8.104281761e-01	-2.382352947e-01	6.142800513e-14
3.309000000e-01	8.104670049e-01	-2.381961335e-01	5.303755709e-14
3.310000000e-01	8.105058308e-01	-2.381569867e-01	9.126931813e-14
3.311000000e-01	8.105446539e-01	-2.381178543e-01	4.985284628e-14
3.312000000e-01	8.105834741e-01	-2.380787363e-01	6.895339163e-14
3.313000000e-01	8.106222916e-01	-2.380396326e-01	9.900724677e-14
3.314000000e-01	8.106611062e-01	-2.380005432e-01	3.497043921e-14
3.315000000e-01	8.106999180e-01	-2.379614682e-01	5.335826598e-14
3.316000000e-01	8.107387269e-01	-2.379224076e-01	4.160774640e-14
3.317000000e-01	8.107775331e-01	-2.378833612e-01	5.864500918e-14
3.318000000e-01	8.108163364e-01	-2.378443292e-01	5.071483708e-14
3.319000000e-01	8.108551369e-01	-2.378053114e-01	7.397251969e-14
3.320000000e-01	8.108939346e-01	-2.377663079e-01	6.227552093e-14
3.321000000e-01	8.109327294e-01	-2.377273188e-01	4.869743228e-14
3.322000000e-01	8.109715215e-01	-2.376883438e-01	3.353319248e-14
3.323000000e-01	8.110103107e-01	-2.376493832e-01	4.315330643e-14
3.324000000e-01	8.110490971e-01	-2.376104367e-01	5.449940677e-14
3.325000000e-01	8.110878807e-01	-2.375715045e-01	7.376145398e-14
3.326000000e-01	8.111266615e-01	-2.375325865e-01	4.023920035e-14
3.327000000e-01	8.111654394e-01	-2.374936828e-01	2.347184842e-14
