# mu [eV]     Omega/c [1/micrones]    Im(epsi1)     Eq(det)R = 0.10 $\mu$m, $E_p$ = 0.300 eV, modo = 3, $\epsilon_\infty$ = 3.9, $\gamma_{DL}$ = 0.01 eV, solve_det_sinkz_vs_mu.py
3.001000000e-01	8.481848234e-01	-2.227601469e-01	4.578011070e-14
3.002000000e-01	8.482409053e-01	-2.227071851e-01	7.484634621e-14
3.003000000e-01	8.482969817e-01	-2.226542505e-01	9.787514868e-14
3.004000000e-01	8.483530525e-01	-2.226013431e-01	4.482748017e-14
3.005000000e-01	8.484091178e-01	-2.225484629e-01	7.890134457e-14
3.007000000e-01	8.485212319e-01	-2.224427837e-01	9.997693954e-14
3.008000000e-01	8.485772808e-01	-2.223899848e-01	7.271850636e-14
3.009000000e-01	8.486333241e-01	-2.223372129e-01	4.441755907e-14
3.010000000e-01	8.486893619e-01	-2.222844680e-01	5.228620058e-14
3.011000000e-01	8.487453942e-01	-2.222317501e-01	7.334743679e-14
3.012000000e-01	8.488014210e-01	-2.221790591e-01	9.184980495e-14
3.014000000e-01	8.489134582e-01	-2.220737581e-01	9.070829558e-14
3.015000000e-01	8.489694686e-01	-2.220211479e-01	7.272706572e-14
3.016000000e-01	8.490254735e-01	-2.219685646e-01	9.959641144e-14
3.017000000e-01	8.490814729e-01	-2.219160081e-01	6.308980931e-14
3.018000000e-01	8.491374668e-01	-2.218634785e-01	7.091266577e-14
3.019000000e-01	8.491934553e-01	-2.218109757e-01	8.446345910e-14
3.020000000e-01	8.492494383e-01	-2.217584996e-01	8.293893593e-14
3.021000000e-01	8.493054158e-01	-2.217060502e-01	8.430862889e-14
3.022000000e-01	8.493613879e-01	-2.216536276e-01	4.163236421e-14
3.024000000e-01	8.494733157e-01	-2.215488624e-01	5.878942797e-14
3.025000000e-01	8.495292714e-01	-2.214965198e-01	7.796769931e-14
3.027000000e-01	8.496411664e-01	-2.213919144e-01	6.917074803e-14
3.028000000e-01	8.496971058e-01	-2.213396516e-01	9.732876383e-14
3.029000000e-01	8.497530397e-01	-2.212874153e-01	4.844034230e-14
3.031000000e-01	8.498648912e-01	-2.211830223e-01	9.711856369e-14
3.032000000e-01	8.499208088e-01	-2.211308655e-01	5.988706521e-14
3.033000000e-01	8.499767210e-01	-2.210787351e-01	6.303495933e-14
3.034000000e-01	8.500326277e-01	-2.210266312e-01	5.789022664e-14
3.035000000e-01	8.500885290e-01	-2.209745536e-01	8.068503343e-14
3.036000000e-01	8.501444249e-01	-2.209225025e-01	5.261203888e-14
3.038000000e-01	8.502562004e-01	-2.208184792e-01	9.738423324e-14
3.044000000e-01	8.505913971e-01	-2.205070396e-01	7.401518518e-14
3.045000000e-01	8.506472443e-01	-2.204552247e-01	8.201843509e-14
3.046000000e-01	8.507030861e-01	-2.204034359e-01	6.817393165e-14
3.047000000e-01	8.507589225e-01	-2.203516732e-01	6.538980351e-14
3.051000000e-01	8.509822142e-01	-2.201448830e-01	4.679823809e-14
3.052000000e-01	8.510380237e-01	-2.200932505e-01	3.732533649e-14
3.054000000e-01	8.511496265e-01	-2.199900633e-01	9.761381429e-14
3.055000000e-01	8.512054199e-01	-2.199385086e-01	6.174756651e-14
3.056000000e-01	8.512612079e-01	-2.198869798e-01	8.850798292e-14
3.057000000e-01	8.513169905e-01	-2.198354769e-01	7.583938682e-14
3.058000000e-01	8.513727677e-01	-2.197839998e-01	6.800460413e-14
3.059000000e-01	8.514285396e-01	-2.197325485e-01	7.271079359e-14
3.061000000e-01	8.515400674e-01	-2.196297232e-01	7.221059883e-14
3.062000000e-01	8.515958232e-01	-2.195783493e-01	5.421936432e-14
3.065000000e-01	8.517630586e-01	-2.194243816e-01	7.878018120e-14
3.067000000e-01	8.518745222e-01	-2.193218647e-01	8.219010370e-14
3.068000000e-01	8.519302459e-01	-2.192706448e-01	5.882592416e-14
3.070000000e-01	8.520416775e-01	-2.191682815e-01	7.184474856e-14
3.071000000e-01	8.520973852e-01	-2.191171382e-01	9.672992917e-14
3.073000000e-01	8.522087848e-01	-2.190149281e-01	8.502076035e-14
3.075000000e-01	8.523201631e-01	-2.189128198e-01	9.208997166e-14
3.077000000e-01	8.524315202e-01	-2.188108133e-01	6.590050454e-14
3.078000000e-01	8.524871907e-01	-2.187598481e-01	9.247964537e-14
3.079000000e-01	8.525428559e-01	-2.187089082e-01	9.140893358e-14
3.080000000e-01	8.525985159e-01	-2.186579937e-01	8.960731012e-14
3.081000000e-01	8.526541705e-01	-2.186071045e-01	7.862385941e-14
3.082000000e-01	8.527098199e-01	-2.185562405e-01	8.299011793e-14
3.083000000e-01	8.527654639e-01	-2.185054018e-01	7.907905924e-14
3.084000000e-01	8.528211026e-01	-2.184545884e-01	6.902159307e-14
3.086000000e-01	8.529323642e-01	-2.183530371e-01	9.365310327e-14
3.087000000e-01	8.529879871e-01	-2.183022993e-01	9.116175046e-14
3.088000000e-01	8.530436047e-01	-2.182515865e-01	7.401924431e-14
3.089000000e-01	8.530992170e-01	-2.182008989e-01	9.804620845e-14
3.090000000e-01	8.531548241e-01	-2.181502364e-01	8.413514815e-14
3.091000000e-01	8.532104258e-01	-2.180995990e-01	9.658940314e-14
3.092000000e-01	8.532660223e-01	-2.180489866e-01	9.443770058e-14
3.093000000e-01	8.533216135e-01	-2.179983993e-01	7.533223197e-14
3.096000000e-01	8.534883556e-01	-2.178467872e-01	8.682414323e-14
3.097000000e-01	8.535439257e-01	-2.177962998e-01	9.180846302e-14
3.098000000e-01	8.535994906e-01	-2.177458373e-01	6.045488048e-14
3.099000000e-01	8.536550503e-01	-2.176953996e-01	9.687115793e-14
3.101000000e-01	8.537661538e-01	-2.175945990e-01	4.443059974e-14
3.102000000e-01	8.538216977e-01	-2.175442359e-01	7.453367982e-14
3.103000000e-01	8.538772363e-01	-2.174938977e-01	7.895059701e-14
3.104000000e-01	8.539327697e-01	-2.174435842e-01	9.738385353e-14
3.105000000e-01	8.539882979e-01	-2.173932955e-01	3.164271960e-14
3.106000000e-01	8.540438208e-01	-2.173430315e-01	7.675945823e-14
3.107000000e-01	8.540993385e-01	-2.172927923e-01	4.415967033e-14
3.110000000e-01	8.542658602e-01	-2.171422226e-01	6.600798758e-14
3.111000000e-01	8.543213570e-01	-2.170920820e-01	9.285932191e-14
3.112000000e-01	8.543768486e-01	-2.170419660e-01	9.263440722e-14
3.114000000e-01	8.544878160e-01	-2.169418078e-01	8.096108724e-14
3.118000000e-01	8.547096884e-01	-2.167417856e-01	6.881128362e-14
3.121000000e-01	8.548760380e-01	-2.165920259e-01	9.810428763e-14
3.122000000e-01	8.549314775e-01	-2.165421548e-01	8.487771200e-14
3.123000000e-01	8.549869118e-01	-2.164923081e-01	8.315266583e-14
3.124000000e-01	8.550423409e-01	-2.164424857e-01	6.241981508e-14
3.125000000e-01	8.550977648e-01	-2.163926876e-01	6.645711934e-14
3.128000000e-01	8.552640054e-01	-2.162434391e-01	6.513830910e-14
3.129000000e-01	8.553194086e-01	-2.161937382e-01	7.675046528e-14
3.130000000e-01	8.553748066e-01	-2.161440614e-01	6.750302070e-14
3.132000000e-01	8.554855870e-01	-2.160447805e-01	8.414437726e-14
3.133000000e-01	8.555409695e-01	-2.159951762e-01	9.400599986e-14
3.134000000e-01	8.555963468e-01	-2.159455961e-01	9.059217494e-14
3.135000000e-01	8.556517190e-01	-2.158960401e-01	8.341432970e-14
3.138000000e-01	8.558178045e-01	-2.157475166e-01	9.145948612e-14
3.145000000e-01	8.562051570e-01	-2.154018016e-01	9.690332858e-14
3.146000000e-01	8.562604725e-01	-2.153525094e-01	6.193295828e-14
3.147000000e-01	8.563157829e-01	-2.153032411e-01	9.224251437e-14
3.148000000e-01	8.563710882e-01	-2.152539966e-01	8.069511538e-14
3.149000000e-01	8.564263883e-01	-2.152047760e-01	7.991261629e-14
3.150000000e-01	8.564816833e-01	-2.151555791e-01	6.184809237e-14
3.151000000e-01	8.565369731e-01	-2.151064060e-01	7.939647234e-14
3.152000000e-01	8.565922579e-01	-2.150572567e-01	9.515025864e-14
3.155000000e-01	8.567580814e-01	-2.149099510e-01	7.680504910e-14
3.162000000e-01	8.571448241e-01	-2.145670651e-01	6.807984993e-14
3.163000000e-01	8.572000527e-01	-2.145181757e-01	5.203029734e-14
3.165000000e-01	8.573104946e-01	-2.144204673e-01	6.845857445e-14
3.166000000e-01	8.573657078e-01	-2.143716483e-01	6.473514246e-14
3.168000000e-01	8.574761192e-01	-2.142740807e-01	8.478137639e-14
3.171000000e-01	8.576416981e-01	-2.141279047e-01	8.428464862e-14
3.172000000e-01	8.576968809e-01	-2.140792261e-01	9.644975865e-14
3.175000000e-01	8.578623989e-01	-2.139333301e-01	5.844625681e-14
3.176000000e-01	8.579175614e-01	-2.138847446e-01	6.366071488e-14
3.177000000e-01	8.579727189e-01	-2.138361824e-01	5.510834416e-14
3.178000000e-01	8.580278713e-01	-2.137876434e-01	7.595296912e-14
3.179000000e-01	8.580830187e-01	-2.137391277e-01	8.230282170e-14
3.180000000e-01	8.581381610e-01	-2.136906351e-01	6.972943061e-14
3.181000000e-01	8.581932983e-01	-2.136421656e-01	9.354643612e-14
3.182000000e-01	8.582484305e-01	-2.135937193e-01	8.818616867e-14
3.184000000e-01	8.583586797e-01	-2.134968961e-01	5.387270714e-14
3.185000000e-01	8.584137968e-01	-2.134485191e-01	8.659300118e-14
3.188000000e-01	8.585791178e-01	-2.133035263e-01	5.224024054e-14
3.190000000e-01	8.586893066e-01	-2.132069796e-01	9.470483856e-14
3.192000000e-01	8.587994753e-01	-2.131105247e-01	9.917742585e-14
3.193000000e-01	8.588545521e-01	-2.130623316e-01	7.581352029e-14
3.195000000e-01	8.589646907e-01	-2.129660142e-01	8.221201497e-14
3.196000000e-01	8.590197524e-01	-2.129178897e-01	8.549849065e-14
3.197000000e-01	8.590748092e-01	-2.128697882e-01	8.626098899e-14
3.198000000e-01	8.591298609e-01	-2.128217094e-01	9.974637179e-14
3.200000000e-01	8.592399493e-01	-2.127256203e-01	5.897554972e-14
3.201000000e-01	8.592949861e-01	-2.126776099e-01	7.617594461e-14
3.202000000e-01	8.593500178e-01	-2.126296223e-01	5.641549987e-14
3.204000000e-01	8.594600662e-01	-2.125337152e-01	8.468114679e-14
3.206000000e-01	8.595700946e-01	-2.124378988e-01	7.424869126e-14
3.207000000e-01	8.596251013e-01	-2.123900246e-01	5.147416485e-14
3.209000000e-01	8.597350998e-01	-2.122943441e-01	7.642079284e-14
3.210000000e-01	8.597900916e-01	-2.122465377e-01	8.526520057e-14
3.212000000e-01	8.599000601e-01	-2.121509927e-01	5.880936875e-14
3.213000000e-01	8.599550370e-01	-2.121032540e-01	6.663764006e-14
3.216000000e-01	8.601199376e-01	-2.119601729e-01	9.669143872e-14
3.219000000e-01	8.602847935e-01	-2.118172939e-01	8.183902676e-14
3.221000000e-01	8.603946726e-01	-2.117221533e-01	8.514391869e-14
3.223000000e-01	8.605045319e-01	-2.116271021e-01	8.207456526e-14
3.226000000e-01	8.606692838e-01	-2.114846927e-01	7.985220738e-14
3.227000000e-01	8.607241911e-01	-2.114372675e-01	5.873764468e-14
3.229000000e-01	8.608339911e-01	-2.113424838e-01	9.598858834e-14
3.231000000e-01	8.609437712e-01	-2.112477889e-01	5.373482306e-14
3.232000000e-01	8.609986539e-01	-2.112004747e-01	9.329522221e-14
3.233000000e-01	8.610535317e-01	-2.111531827e-01	7.599839506e-14
3.235000000e-01	8.611632724e-01	-2.110586650e-01	7.881621744e-14
3.237000000e-01	8.612729934e-01	-2.109642358e-01	9.163773044e-14
3.239000000e-01	8.613826947e-01	-2.108698948e-01	6.766044249e-14
3.240000000e-01	8.614375380e-01	-2.108227574e-01	6.113005326e-14
3.241000000e-01	8.614923764e-01	-2.107756419e-01	5.617509089e-14
3.242000000e-01	8.615472098e-01	-2.107285485e-01	5.370866683e-14
3.243000000e-01	8.616020384e-01	-2.106814770e-01	3.795615305e-14
3.245000000e-01	8.617116808e-01	-2.105873998e-01	7.137836144e-14
3.246000000e-01	8.617664946e-01	-2.105403942e-01	3.546115603e-14
3.248000000e-01	8.618761076e-01	-2.104464485e-01	9.753623629e-14
3.250000000e-01	8.619857010e-01	-2.103525902e-01	7.690857151e-14
3.251000000e-01	8.620404903e-01	-2.103056938e-01	5.838379888e-14
3.253000000e-01	8.621500544e-01	-2.102119664e-01	6.515949912e-14
3.255000000e-01	8.622595989e-01	-2.101183261e-01	5.774024356e-14
3.257000000e-01	8.623691239e-01	-2.100247728e-01	5.742120816e-14
3.259000000e-01	8.624786293e-01	-2.099313062e-01	6.944220930e-14
3.262000000e-01	8.626428510e-01	-2.097912687e-01	7.554094849e-14
3.263000000e-01	8.626975818e-01	-2.097446328e-01	6.981866359e-14
3.264000000e-01	8.627523078e-01	-2.096980185e-01	6.707954744e-14
3.266000000e-01	8.628617451e-01	-2.096048545e-01	7.617879644e-14
3.267000000e-01	8.629164565e-01	-2.095583048e-01	6.068689171e-14
3.268000000e-01	8.629711630e-01	-2.095117766e-01	6.466122278e-14
3.271000000e-01	8.631352535e-01	-2.093723211e-01	5.682023931e-14
3.272000000e-01	8.631899406e-01	-2.093258788e-01	9.915927904e-14
3.273000000e-01	8.632446229e-01	-2.092794580e-01	7.136033520e-14
3.274000000e-01	8.632993004e-01	-2.092330585e-01	2.671563186e-14
3.276000000e-01	8.634086407e-01	-2.091403238e-01	8.218727299e-14
3.278000000e-01	8.635179618e-01	-2.090476745e-01	5.680177024e-14
3.280000000e-01	8.636272635e-01	-2.089551105e-01	4.121159981e-14
3.283000000e-01	8.637911798e-01	-2.088164241e-01	6.698473369e-14
3.284000000e-01	8.638458090e-01	-2.087702378e-01	8.771199297e-14
3.289000000e-01	8.641188825e-01	-2.085396242e-01	9.893614990e-14
3.290000000e-01	8.641734827e-01	-2.084935649e-01	8.853936392e-14
3.293000000e-01	8.643372547e-01	-2.083555137e-01	8.311737894e-14
3.294000000e-01	8.643918358e-01	-2.083095388e-01	7.466101259e-14
3.297000000e-01	8.645555502e-01	-2.081717402e-01	5.497308292e-14
3.298000000e-01	8.646101121e-01	-2.081258493e-01	8.651524671e-14
3.300000000e-01	8.647192215e-01	-2.080341305e-01	8.397044710e-14
3.302000000e-01	8.648283118e-01	-2.079424954e-01	9.183202215e-14
3.303000000e-01	8.648828497e-01	-2.078967093e-01	9.267910466e-14
3.304000000e-01	8.649373829e-01	-2.078509440e-01	9.521338941e-14
3.306000000e-01	8.650464349e-01	-2.077594760e-01	9.238363187e-14
3.307000000e-01	8.651009538e-01	-2.077137733e-01	5.648845407e-14
3.308000000e-01	8.651554679e-01	-2.076680914e-01	3.266867801e-14
3.312000000e-01	8.653734766e-01	-2.074855717e-01	8.349770295e-14
3.313000000e-01	8.654279669e-01	-2.074399937e-01	5.468163984e-14
3.315000000e-01	8.655369332e-01	-2.073488998e-01	5.751983954e-14
3.319000000e-01	8.657548088e-01	-2.071669600e-01	7.388990899e-14
3.321000000e-01	8.658637181e-01	-2.070761138e-01	7.687621068e-14
3.322000000e-01	8.659181656e-01	-2.070307217e-01	7.310765930e-14
3.323000000e-01	8.659726084e-01	-2.069853501e-01	7.286311750e-14
3.324000000e-01	8.660270465e-01	-2.069399990e-01	5.654712022e-14
3.325000000e-01	8.660814798e-01	-2.068946685e-01	9.205779260e-14
3.326000000e-01	8.661359084e-01	-2.068493585e-01	9.758640929e-14
3.327000000e-01	8.661903323e-01	-2.068040690e-01	7.701275501e-14
3.329000000e-01	8.662991658e-01	-2.067135514e-01	9.498430020e-14
3.333000000e-01	8.665167762e-01	-2.065327616e-01	7.439065925e-14
3.334000000e-01	8.665711671e-01	-2.064876152e-01	8.647725192e-14
3.335000000e-01	8.666255532e-01	-2.064424891e-01	7.072678371e-14
3.340000000e-01	8.668974130e-01	-2.062171637e-01	6.908406818e-14
3.341000000e-01	8.669517709e-01	-2.061721595e-01	4.846272929e-14
3.342000000e-01	8.670061240e-01	-2.061271755e-01	6.836414072e-14
3.343000000e-01	8.670604725e-01	-2.060822118e-01	8.191610388e-14
3.344000000e-01	8.671148163e-01	-2.060372684e-01	7.074351219e-14
3.345000000e-01	8.671691553e-01	-2.059923451e-01	9.279717978e-14
3.348000000e-01	8.673321444e-01	-2.058576963e-01	5.531320637e-14
3.352000000e-01	8.675493976e-01	-2.056784466e-01	9.640322946e-14
3.353000000e-01	8.676036992e-01	-2.056336844e-01	6.468628492e-14
3.354000000e-01	8.676579961e-01	-2.055889423e-01	7.508656319e-14
3.355000000e-01	8.677122883e-01	-2.055442202e-01	8.212005717e-14
3.357000000e-01	8.678208588e-01	-2.054548361e-01	8.655931259e-14
3.358000000e-01	8.678751371e-01	-2.054101741e-01	9.470046213e-14
3.361000000e-01	8.680379438e-01	-2.052763078e-01	4.878972315e-14
3.365000000e-01	8.682549542e-01	-2.050980984e-01	3.785034268e-14
3.366000000e-01	8.683091952e-01	-2.050535957e-01	7.876678317e-14
3.368000000e-01	8.684176632e-01	-2.049646500e-01	8.777225859e-14
3.372000000e-01	8.686345434e-01	-2.047869964e-01	8.340368974e-14
3.373000000e-01	8.686887519e-01	-2.047426324e-01	7.458922488e-14
3.374000000e-01	8.687429557e-01	-2.046982882e-01	6.394944855e-14
3.376000000e-01	8.688513494e-01	-2.046096589e-01	9.190507741e-14
3.377000000e-01	8.689055394e-01	-2.045653739e-01	9.113680086e-14
3.378000000e-01	8.689597247e-01	-2.045211085e-01	8.277144515e-14
3.379000000e-01	8.690139053e-01	-2.044768627e-01	9.932873230e-14
3.380000000e-01	8.690680814e-01	-2.044326367e-01	8.005323919e-14
3.381000000e-01	8.691222528e-01	-2.043884302e-01	8.593907921e-14
3.384000000e-01	8.692847394e-01	-2.042559286e-01	8.337649256e-14
3.389000000e-01	8.695554581e-01	-2.040354838e-01	7.629066170e-14
3.390000000e-01	8.696095880e-01	-2.039914534e-01	8.764217569e-14
3.392000000e-01	8.697178340e-01	-2.039034511e-01	8.086404878e-14
3.393000000e-01	8.697719501e-01	-2.038594791e-01	6.494681335e-14
3.394000000e-01	8.698260616e-01	-2.038155265e-01	3.318508436e-14
3.395000000e-01	8.698801685e-01	-2.037715934e-01	7.527156543e-14
3.398000000e-01	8.700424618e-01	-2.036399104e-01	9.911406848e-14
3.400000000e-01	8.701506343e-01	-2.035522186e-01	9.161299455e-14
3.402000000e-01	8.702587885e-01	-2.034646040e-01	9.171732424e-14
3.406000000e-01	8.704750419e-01	-2.032896065e-01	8.062642628e-14
3.407000000e-01	8.705290938e-01	-2.032459052e-01	9.579663123e-14
3.408000000e-01	8.705831412e-01	-2.032022232e-01	8.313843426e-14
3.409000000e-01	8.706371840e-01	-2.031585604e-01	7.533141386e-14
3.411000000e-01	8.707452559e-01	-2.030712924e-01	7.014995378e-14
3.412000000e-01	8.707992850e-01	-2.030276871e-01	8.488424666e-14
3.413000000e-01	8.708533095e-01	-2.029841010e-01	6.272752720e-14
3.416000000e-01	8.710153557e-01	-2.028534574e-01	8.088468109e-14
3.417000000e-01	8.710693620e-01	-2.028099477e-01	6.268425774e-14
3.418000000e-01	8.711233638e-01	-2.027664571e-01	6.994087841e-14
3.419000000e-01	8.711773610e-01	-2.027229856e-01	4.704844340e-14
3.420000000e-01	8.712313537e-01	-2.026795331e-01	5.157487856e-14
3.421000000e-01	8.712853418e-01	-2.026360997e-01	8.423315572e-14
3.423000000e-01	8.713933044e-01	-2.025492898e-01	7.870314563e-14
3.424000000e-01	8.714472789e-01	-2.025059134e-01	5.603107632e-14
3.428000000e-01	8.716631314e-01	-2.023325972e-01	5.642948119e-14
3.429000000e-01	8.717170832e-01	-2.022893155e-01	9.374812889e-14
3.431000000e-01	8.718249733e-01	-2.022028088e-01	6.030302347e-14
3.434000000e-01	8.719867744e-01	-2.020731902e-01	9.636230612e-14
3.435000000e-01	8.720406991e-01	-2.020300217e-01	7.036195534e-14
3.443000000e-01	8.724719339e-01	-2.016853495e-01	6.583547647e-14
3.446000000e-01	8.726335726e-01	-2.015564063e-01	4.646850373e-14
3.454000000e-01	8.730644114e-01	-2.012133777e-01	5.092439439e-14
3.458000000e-01	8.732797232e-01	-2.010423088e-01	5.371930868e-14
3.460000000e-01	8.733873522e-01	-2.009568853e-01	6.887019116e-14
3.461000000e-01	8.734411600e-01	-2.009142012e-01	5.875797014e-14
3.462000000e-01	8.734949633e-01	-2.008715356e-01	8.264909509e-14
3.463000000e-01	8.735487622e-01	-2.008288884e-01	7.257029509e-14
3.468000000e-01	8.738176895e-01	-2.006159285e-01	9.171734104e-14
3.469000000e-01	8.738714616e-01	-2.005733916e-01	8.550924834e-14
3.471000000e-01	8.739789924e-01	-2.004883727e-01	6.774371293e-14
3.472000000e-01	8.740327511e-01	-2.004458908e-01	6.175395397e-14
3.478000000e-01	8.743552101e-01	-2.001913826e-01	8.218417972e-14
3.480000000e-01	8.744626608e-01	-2.001066923e-01	8.198739584e-14
3.485000000e-01	8.747312102e-01	-1.998952846e-01	5.008942542e-14
3.488000000e-01	8.748922866e-01	-1.997686573e-01	7.882632340e-14
3.491000000e-01	8.750533233e-01	-1.996421927e-01	7.701083438e-14
3.492000000e-01	8.751069933e-01	-1.996000739e-01	7.050571819e-14
3.493000000e-01	8.751606589e-01	-1.995579731e-01	8.250533349e-14
3.494000000e-01	8.752143202e-01	-1.995158903e-01	8.763776302e-14
3.497000000e-01	8.753752774e-01	-1.993897498e-01	7.936790201e-14
3.500000000e-01	8.755361949e-01	-1.992637709e-01	8.290355807e-14
3.501000000e-01	8.755898253e-01	-1.992218137e-01	8.212956900e-14
3.502000000e-01	8.756434513e-01	-1.991798744e-01	8.681262559e-14
3.503000000e-01	8.756970728e-01	-1.991379531e-01	8.243994691e-14
3.510000000e-01	8.760723009e-01	-1.988450029e-01	9.156425995e-14
3.513000000e-01	8.762330471e-01	-1.987197197e-01	9.804119540e-14
3.514000000e-01	8.762866205e-01	-1.986779941e-01	7.296085097e-14
3.515000000e-01	8.763401894e-01	-1.986362862e-01	8.445587027e-14
3.518000000e-01	8.765008700e-01	-1.985112688e-01	6.994308130e-14
3.519000000e-01	8.765544214e-01	-1.984696317e-01	8.599549907e-14
3.524000000e-01	8.768221132e-01	-1.982617106e-01	7.512469938e-14
3.528000000e-01	8.770361881e-01	-1.980956905e-01	8.668076485e-14
3.529000000e-01	8.770896960e-01	-1.980542293e-01	8.761877367e-14
3.530000000e-01	8.771431995e-01	-1.980127857e-01	6.610257074e-14
3.533000000e-01	8.773036839e-01	-1.978885598e-01	6.739376119e-14
3.534000000e-01	8.773571700e-01	-1.978471861e-01	8.422754007e-14
