# Re(epsi1)     Omega/c [1/micrones]    Im(epsi1)     Eq(det).Opt det SIN kz, mu = 0.3 eV, R = 0.5 micrones, solve_det_sinkz_vs_re_epsi1.py
1.000000000e+00	2.958765020e-01	-1.293792952e-02	1.021998151e-11
1.010000000e+00	2.951492193e-01	-1.298304130e-02	1.000318510e-11
1.020000000e+00	2.944272463e-01	-1.302818249e-02	9.182738903e-12
1.030000000e+00	2.937105192e-01	-1.307335297e-02	1.274465199e-11
1.040000000e+00	2.929989749e-01	-1.311855266e-02	8.602984876e-12
1.050000000e+00	2.922925516e-01	-1.316378146e-02	1.516404242e-11
1.060000000e+00	2.915911886e-01	-1.320903929e-02	1.212583640e-11
1.070000000e+00	2.908948259e-01	-1.325432606e-02	9.372679760e-12
1.080000000e+00	2.902034047e-01	-1.329964172e-02	6.665284745e-12
1.090000000e+00	2.895168672e-01	-1.334498615e-02	9.317167846e-12
1.100000000e+00	2.888351564e-01	-1.339035932e-02	1.117586354e-11
1.110000000e+00	2.881582163e-01	-1.343576114e-02	1.298096610e-11
1.120000000e+00	2.874859917e-01	-1.348119154e-02	8.713012841e-12
1.130000000e+00	2.868184284e-01	-1.352665046e-02	7.260107594e-12
1.140000000e+00	2.861554730e-01	-1.357213785e-02	1.405884527e-11
1.150000000e+00	2.854970730e-01	-1.361765363e-02	7.377571760e-12
1.160000000e+00	2.848431768e-01	-1.366319777e-02	8.188836024e-12
1.170000000e+00	2.841937334e-01	-1.370877020e-02	7.034212192e-12
1.180000000e+00	2.835486927e-01	-1.375437087e-02	9.255663711e-12
1.190000000e+00	2.829080054e-01	-1.379999974e-02	7.797693136e-12
1.200000000e+00	2.822716230e-01	-1.384565676e-02	8.029984596e-12
1.210000000e+00	2.816394978e-01	-1.389134188e-02	6.826586492e-12
1.220000000e+00	2.810115826e-01	-1.393705507e-02	9.761945287e-12
1.230000000e+00	2.803878311e-01	-1.398279627e-02	6.144243550e-12
1.240000000e+00	2.797681977e-01	-1.402856545e-02	8.304877022e-12
1.250000000e+00	2.791526376e-01	-1.407436259e-02	1.010452944e-11
1.260000000e+00	2.785411063e-01	-1.412018764e-02	1.277882217e-11
1.270000000e+00	2.779335604e-01	-1.416604055e-02	8.881676693e-12
1.280000000e+00	2.773299570e-01	-1.421192133e-02	9.558279037e-12
1.290000000e+00	2.767302536e-01	-1.425782992e-02	6.054437648e-12
1.300000000e+00	2.761344088e-01	-1.430376629e-02	1.396236995e-11
1.310000000e+00	2.755423815e-01	-1.434973043e-02	6.789669507e-12
1.320000000e+00	2.749541311e-01	-1.439572229e-02	1.136583151e-11
1.330000000e+00	2.743696179e-01	-1.444174188e-02	8.192398425e-12
1.340000000e+00	2.737888027e-01	-1.448778915e-02	1.171883231e-11
1.350000000e+00	2.732116467e-01	-1.453386409e-02	1.600298173e-11
1.360000000e+00	2.726381119e-01	-1.457996667e-02	8.707413989e-12
1.370000000e+00	2.720681607e-01	-1.462609688e-02	1.701285179e-11
1.380000000e+00	2.715017559e-01	-1.467225470e-02	1.066729678e-11
1.390000000e+00	2.709388613e-01	-1.471844011e-02	8.904685469e-12
1.400000000e+00	2.703794407e-01	-1.476465309e-02	1.297455656e-11
1.410000000e+00	2.698234587e-01	-1.481089363e-02	8.994414111e-12
1.420000000e+00	2.692708804e-01	-1.485716172e-02	1.477616151e-11
1.430000000e+00	2.687216713e-01	-1.490345735e-02	1.570615594e-11
1.440000000e+00	2.681757974e-01	-1.494978049e-02	1.876655794e-11
1.450000000e+00	2.676332252e-01	-1.499613114e-02	1.540296179e-11
1.460000000e+00	2.670939217e-01	-1.504250929e-02	1.708420742e-11
1.470000000e+00	2.665578544e-01	-1.508891492e-02	1.771361884e-11
1.480000000e+00	2.660249910e-01	-1.513534804e-02	7.112075062e-12
1.490000000e+00	2.654952998e-01	-1.518180863e-02	7.240830142e-12
1.500000000e+00	2.649687498e-01	-1.522829668e-02	1.310340760e-11
1.510000000e+00	2.644453100e-01	-1.527481218e-02	8.212379894e-12
1.520000000e+00	2.639249500e-01	-1.532135514e-02	6.557206500e-12
1.530000000e+00	2.634076398e-01	-1.536792554e-02	1.513992851e-11
1.540000000e+00	2.628933500e-01	-1.541452337e-02	1.027539905e-11
1.550000000e+00	2.623820512e-01	-1.546114864e-02	9.993712440e-12
1.560000000e+00	2.618737147e-01	-1.550780134e-02	1.392623441e-11
1.570000000e+00	2.613683121e-01	-1.555448147e-02	2.203894875e-11
1.580000000e+00	2.608658154e-01	-1.560118902e-02	1.068140925e-11
1.590000000e+00	2.603661969e-01	-1.564792399e-02	6.820461801e-12
1.600000000e+00	2.598694294e-01	-1.569468638e-02	1.106625465e-11
1.610000000e+00	2.593754858e-01	-1.574147619e-02	7.616267065e-12
1.620000000e+00	2.588843397e-01	-1.578829341e-02	1.184963655e-11
1.630000000e+00	2.583959647e-01	-1.583513805e-02	9.681787523e-12
1.640000000e+00	2.579103351e-01	-1.588201011e-02	1.190071716e-11
1.650000000e+00	2.574274253e-01	-1.592890958e-02	2.649550903e-11
1.660000000e+00	2.569472100e-01	-1.597583646e-02	2.279777476e-11
1.670000000e+00	2.564696644e-01	-1.602279076e-02	1.333835433e-11
1.680000000e+00	2.559947639e-01	-1.606977248e-02	1.224265097e-11
1.690000000e+00	2.555224842e-01	-1.611678163e-02	1.745170175e-11
1.700000000e+00	2.550528014e-01	-1.616381818e-02	1.892873411e-11
1.710000000e+00	2.545856918e-01	-1.621088216e-02	5.447733492e-12
1.720000000e+00	2.541211321e-01	-1.625797357e-02	9.974301355e-12
1.730000000e+00	2.536590993e-01	-1.630509240e-02	5.650319774e-12
1.740000000e+00	2.531995706e-01	-1.635223867e-02	9.572300390e-12
1.750000000e+00	2.527425234e-01	-1.639941236e-02	7.427051027e-12
1.760000000e+00	2.522879357e-01	-1.644661349e-02	1.112077207e-11
1.770000000e+00	2.518357855e-01	-1.649384207e-02	7.283029510e-12
1.780000000e+00	2.513860511e-01	-1.654109808e-02	9.619991802e-12
1.790000000e+00	2.509387112e-01	-1.658838155e-02	1.994439708e-11
1.800000000e+00	2.504937446e-01	-1.663569246e-02	2.051496768e-11
1.810000000e+00	2.500511305e-01	-1.668303083e-02	9.400599730e-12
1.820000000e+00	2.496108484e-01	-1.673039666e-02	1.058416219e-11
1.830000000e+00	2.491728778e-01	-1.677778995e-02	1.251969178e-11
1.840000000e+00	2.487371986e-01	-1.682521071e-02	1.000252075e-11
1.850000000e+00	2.483037910e-01	-1.687265895e-02	1.045711488e-11
1.860000000e+00	2.478726353e-01	-1.692013465e-02	2.236120470e-11
1.870000000e+00	2.474437123e-01	-1.696763785e-02	9.107818120e-12
1.880000000e+00	2.470170026e-01	-1.701516854e-02	8.547189316e-12
1.890000000e+00	2.465924875e-01	-1.706272671e-02	9.132195832e-12
1.900000000e+00	2.461701481e-01	-1.711031239e-02	1.297710598e-11
1.910000000e+00	2.457499661e-01	-1.715792557e-02	9.003906558e-12
1.920000000e+00	2.453319231e-01	-1.720556626e-02	1.474471865e-11
1.930000000e+00	2.449160011e-01	-1.725323446e-02	1.213654085e-11
1.940000000e+00	2.445021824e-01	-1.730093019e-02	1.996447170e-11
1.950000000e+00	2.440904492e-01	-1.734865344e-02	6.292494954e-12
1.960000000e+00	2.436807841e-01	-1.739640423e-02	2.012273993e-11
1.970000000e+00	2.432731700e-01	-1.744418255e-02	1.226838143e-11
1.980000000e+00	2.428675898e-01	-1.749198841e-02	1.213778513e-11
1.990000000e+00	2.424640266e-01	-1.753982183e-02	1.109177062e-11
2.000000000e+00	2.420624640e-01	-1.758768280e-02	1.777271853e-11
2.010000000e+00	2.416628854e-01	-1.763557133e-02	9.385945911e-12
2.020000000e+00	2.412652746e-01	-1.768348743e-02	5.142359030e-12
2.030000000e+00	2.408696154e-01	-1.773143110e-02	1.053576417e-11
2.040000000e+00	2.404758922e-01	-1.777940236e-02	1.089852885e-11
2.050000000e+00	2.400840891e-01	-1.782740119e-02	8.210698215e-12
2.060000000e+00	2.396941906e-01	-1.787542762e-02	1.334895844e-11
2.070000000e+00	2.393061814e-01	-1.792348165e-02	1.081278244e-11
2.080000000e+00	2.389200463e-01	-1.797156328e-02	1.886020107e-11
2.090000000e+00	2.385357703e-01	-1.801967252e-02	1.017406708e-11
2.100000000e+00	2.381533385e-01	-1.806780938e-02	8.263257094e-12
2.110000000e+00	2.377727364e-01	-1.811597385e-02	1.239095553e-11
2.120000000e+00	2.373939493e-01	-1.816416596e-02	1.135654795e-11
2.130000000e+00	2.370169629e-01	-1.821238569e-02	8.460978936e-12
2.140000000e+00	2.366417631e-01	-1.826063307e-02	8.954058820e-12
2.150000000e+00	2.362683358e-01	-1.830890809e-02	1.367959294e-11
2.160000000e+00	2.358966671e-01	-1.835721076e-02	1.397090884e-11
2.170000000e+00	2.355267432e-01	-1.840554110e-02	1.412834196e-11
2.180000000e+00	2.351585507e-01	-1.845389909e-02	1.918869928e-11
2.190000000e+00	2.347920760e-01	-1.850228475e-02	1.031189988e-11
2.200000000e+00	2.344273059e-01	-1.855069809e-02	9.992810094e-12
2.210000000e+00	2.340642273e-01	-1.859913910e-02	1.709291141e-11
2.220000000e+00	2.337028270e-01	-1.864760781e-02	1.107486592e-11
2.230000000e+00	2.333430924e-01	-1.869610420e-02	4.018515703e-11
2.240000000e+00	2.329850105e-01	-1.874462830e-02	1.733666594e-11
2.250000000e+00	2.326285689e-01	-1.879318009e-02	7.418613617e-12
2.260000000e+00	2.322737550e-01	-1.884175959e-02	1.471714820e-11
2.270000000e+00	2.319205566e-01	-1.889036681e-02	3.249531392e-11
2.280000000e+00	2.315689615e-01	-1.893900175e-02	1.307154147e-11
2.290000000e+00	2.312189575e-01	-1.898766441e-02	9.250072648e-12
2.300000000e+00	2.308705328e-01	-1.903635480e-02	6.908025440e-12
2.310000000e+00	2.305236755e-01	-1.908507293e-02	1.007995579e-11
2.320000000e+00	2.301783739e-01	-1.913381880e-02	1.167871307e-11
2.330000000e+00	2.298346165e-01	-1.918259241e-02	1.653155868e-11
2.340000000e+00	2.294923917e-01	-1.923139377e-02	2.462105740e-11
2.350000000e+00	2.291516884e-01	-1.928022290e-02	1.044829675e-11
2.360000000e+00	2.288124951e-01	-1.932907978e-02	1.627206881e-11
2.370000000e+00	2.284748010e-01	-1.937796443e-02	1.303200019e-11
2.380000000e+00	2.281385948e-01	-1.942687684e-02	1.782208440e-11
2.390000000e+00	2.278038659e-01	-1.947581704e-02	1.792189154e-11
2.400000000e+00	2.274706034e-01	-1.952478501e-02	1.189479645e-11
2.410000000e+00	2.271387966e-01	-1.957378077e-02	1.068487253e-11
2.420000000e+00	2.268084350e-01	-1.962280431e-02	1.304733181e-11
2.430000000e+00	2.264795082e-01	-1.967185565e-02	9.690228645e-12
2.440000000e+00	2.261520058e-01	-1.972093479e-02	2.033528775e-11
2.450000000e+00	2.258259176e-01	-1.977004174e-02	1.758594063e-11
2.460000000e+00	2.255012335e-01	-1.981917648e-02	1.000076406e-11
2.470000000e+00	2.251779434e-01	-1.986833904e-02	2.436475037e-11
2.480000000e+00	2.248560374e-01	-1.991752942e-02	2.581618626e-11
2.490000000e+00	2.245355057e-01	-1.996674762e-02	2.311141002e-11
2.500000000e+00	2.242163385e-01	-2.001599363e-02	1.263867968e-11
2.510000000e+00	2.238985262e-01	-2.006526748e-02	1.145047497e-11
2.520000000e+00	2.235820593e-01	-2.011456916e-02	2.311724552e-11
2.530000000e+00	2.232669283e-01	-2.016389867e-02	1.618882746e-11
2.540000000e+00	2.229531238e-01	-2.021325603e-02	1.056051671e-11
2.550000000e+00	2.226406366e-01	-2.026264122e-02	7.878889916e-12
2.560000000e+00	2.223294576e-01	-2.031205426e-02	5.748139848e-12
2.570000000e+00	2.220195775e-01	-2.036149515e-02	1.052610249e-11
2.580000000e+00	2.217109875e-01	-2.041096389e-02	1.517013991e-11
2.590000000e+00	2.214036786e-01	-2.046046049e-02	7.648778705e-12
2.600000000e+00	2.210976420e-01	-2.050998495e-02	1.002938029e-11
2.610000000e+00	2.207928689e-01	-2.055953727e-02	3.078677216e-11
2.620000000e+00	2.204893507e-01	-2.060911746e-02	1.237222147e-11
2.630000000e+00	2.201870788e-01	-2.065872551e-02	7.972956732e-12
2.640000000e+00	2.198860448e-01	-2.070836144e-02	1.515505327e-11
2.650000000e+00	2.195862401e-01	-2.075802524e-02	1.540082802e-11
2.660000000e+00	2.192876566e-01	-2.080771693e-02	2.809974174e-11
2.670000000e+00	2.189902858e-01	-2.085743649e-02	9.229187015e-12
2.680000000e+00	2.186941197e-01	-2.090718393e-02	1.947002920e-11
2.690000000e+00	2.183991502e-01	-2.095695926e-02	1.767042071e-11
2.700000000e+00	2.181053692e-01	-2.100676248e-02	2.025303686e-11
2.710000000e+00	2.178127687e-01	-2.105659358e-02	3.153853177e-11
2.720000000e+00	2.175213410e-01	-2.110645258e-02	9.378300070e-12
2.730000000e+00	2.172310782e-01	-2.115633948e-02	1.015933927e-11
2.740000000e+00	2.169419725e-01	-2.120625427e-02	1.351615991e-11
2.750000000e+00	2.166540164e-01	-2.125619696e-02	1.150819102e-11
2.760000000e+00	2.163672022e-01	-2.130616756e-02	2.760436684e-11
2.770000000e+00	2.160815224e-01	-2.135616605e-02	9.471219349e-12
2.780000000e+00	2.157969695e-01	-2.140619245e-02	2.476334520e-11
2.790000000e+00	2.155135363e-01	-2.145624676e-02	1.539904137e-11
2.800000000e+00	2.152312153e-01	-2.150632898e-02	1.064693532e-11
2.810000000e+00	2.149499994e-01	-2.155643911e-02	2.220133202e-11
2.820000000e+00	2.146698813e-01	-2.160657715e-02	1.606015512e-11
2.830000000e+00	2.143908540e-01	-2.165674310e-02	1.220137845e-11
2.840000000e+00	2.141129103e-01	-2.170693696e-02	1.017634839e-11
2.850000000e+00	2.138360433e-01	-2.175715875e-02	1.246703632e-11
2.860000000e+00	2.135602461e-01	-2.180740845e-02	1.102254116e-11
2.870000000e+00	2.132855119e-01	-2.185768607e-02	5.401089733e-12
2.880000000e+00	2.130118337e-01	-2.190799161e-02	7.946249592e-12
2.890000000e+00	2.127392049e-01	-2.195832507e-02	7.143949722e-12
2.900000000e+00	2.124676188e-01	-2.200868645e-02	8.561387285e-12
2.910000000e+00	2.121970688e-01	-2.205907575e-02	1.757184595e-11
2.920000000e+00	2.119275482e-01	-2.210949298e-02	2.007363703e-11
2.930000000e+00	2.116590507e-01	-2.215993813e-02	1.551157805e-11
2.940000000e+00	2.113915698e-01	-2.221041120e-02	7.069036122e-12
2.950000000e+00	2.111250990e-01	-2.226091220e-02	8.398224419e-12
2.960000000e+00	2.108596320e-01	-2.231144113e-02	1.416083402e-11
2.970000000e+00	2.105951626e-01	-2.236199799e-02	2.484110841e-11
2.980000000e+00	2.103316846e-01	-2.241258276e-02	1.582323422e-11
2.990000000e+00	2.100691917e-01	-2.246319547e-02	8.886503074e-12
3.000000000e+00	2.098076778e-01	-2.251383610e-02	2.125431017e-11
3.010000000e+00	2.095471370e-01	-2.256450467e-02	1.171915662e-11
3.020000000e+00	2.092875631e-01	-2.261520116e-02	1.408215384e-11
3.030000000e+00	2.090289502e-01	-2.266592557e-02	1.194246586e-11
3.040000000e+00	2.087712924e-01	-2.271667791e-02	9.649212210e-12
3.050000000e+00	2.085145839e-01	-2.276745818e-02	1.585662211e-11
3.060000000e+00	2.082588188e-01	-2.281826638e-02	1.716410832e-11
3.070000000e+00	2.080039914e-01	-2.286910250e-02	5.878357416e-12
3.080000000e+00	2.077500960e-01	-2.291996656e-02	1.701144654e-11
3.090000000e+00	2.074971269e-01	-2.297085853e-02	5.183811661e-12
3.100000000e+00	2.072450785e-01	-2.302177843e-02	4.434485928e-11
3.110000000e+00	2.069939452e-01	-2.307272626e-02	6.823839612e-12
3.120000000e+00	2.067437216e-01	-2.312370201e-02	1.240791346e-11
3.130000000e+00	2.064944021e-01	-2.317470568e-02	1.847122740e-11
3.140000000e+00	2.062459813e-01	-2.322573728e-02	9.674309563e-12
3.150000000e+00	2.059984539e-01	-2.327679680e-02	1.083136498e-11
3.160000000e+00	2.057518145e-01	-2.332788425e-02	9.991465152e-12
3.170000000e+00	2.055060578e-01	-2.337899961e-02	2.435507997e-11
3.180000000e+00	2.052611786e-01	-2.343014289e-02	1.145627025e-11
3.190000000e+00	2.050171716e-01	-2.348131409e-02	9.816709791e-12
3.200000000e+00	2.047740318e-01	-2.353251320e-02	1.327987317e-11
3.210000000e+00	2.045317540e-01	-2.358374023e-02	1.174304522e-11
3.220000000e+00	2.042903330e-01	-2.363499518e-02	1.351438323e-11
3.230000000e+00	2.040497640e-01	-2.368627804e-02	4.271927926e-11
3.240000000e+00	2.038100418e-01	-2.373758881e-02	1.364614693e-11
3.250000000e+00	2.035711616e-01	-2.378892749e-02	1.372427908e-11
3.260000000e+00	2.033331184e-01	-2.384029408e-02	1.931631838e-11
3.270000000e+00	2.030959074e-01	-2.389168858e-02	1.817831685e-11
3.280000000e+00	2.028595237e-01	-2.394311098e-02	9.688341298e-12
3.290000000e+00	2.026239625e-01	-2.399456129e-02	3.619133958e-11
3.300000000e+00	2.023892191e-01	-2.404603949e-02	5.247912091e-11
3.310000000e+00	2.021552888e-01	-2.409754561e-02	1.440344007e-11
3.320000000e+00	2.019221668e-01	-2.414907962e-02	2.121646950e-11
3.330000000e+00	2.016898486e-01	-2.420064152e-02	1.400800204e-11
3.340000000e+00	2.014583295e-01	-2.425223132e-02	7.453064944e-12
3.350000000e+00	2.012276051e-01	-2.430384901e-02	9.403733559e-12
3.360000000e+00	2.009976706e-01	-2.435549459e-02	1.233332585e-11
3.370000000e+00	2.007685217e-01	-2.440716806e-02	2.353611303e-11
3.380000000e+00	2.005401539e-01	-2.445886941e-02	1.522801586e-11
3.390000000e+00	2.003125628e-01	-2.451059865e-02	1.450398227e-11
3.400000000e+00	2.000857440e-01	-2.456235577e-02	7.035228003e-12
3.410000000e+00	1.998596931e-01	-2.461414077e-02	1.818765953e-11
3.420000000e+00	1.996344058e-01	-2.466595364e-02	6.282123007e-12
3.430000000e+00	1.994098778e-01	-2.471779439e-02	1.391215589e-11
3.440000000e+00	1.991861049e-01	-2.476966301e-02	8.355059014e-12
3.450000000e+00	1.989630829e-01	-2.482155950e-02	1.724969427e-11
3.460000000e+00	1.987408076e-01	-2.487348385e-02	2.861756209e-11
3.470000000e+00	1.985192747e-01	-2.492543606e-02	1.179682661e-11
3.480000000e+00	1.982984803e-01	-2.497741614e-02	1.824397910e-11
3.490000000e+00	1.980784201e-01	-2.502942408e-02	8.244666726e-12
3.500000000e+00	1.978590903e-01	-2.508145986e-02	1.122409687e-11
3.510000000e+00	1.976404866e-01	-2.513352350e-02	2.559878900e-11
3.520000000e+00	1.974226052e-01	-2.518561499e-02	1.202488526e-11
3.530000000e+00	1.972054421e-01	-2.523773432e-02	7.359535567e-12
3.540000000e+00	1.969889932e-01	-2.528988150e-02	2.922527276e-11
3.550000000e+00	1.967732549e-01	-2.534205652e-02	2.242200953e-11
3.560000000e+00	1.965582230e-01	-2.539425936e-02	1.276691191e-11
3.570000000e+00	1.963438939e-01	-2.544649005e-02	1.315313785e-11
3.580000000e+00	1.961302637e-01	-2.549874856e-02	6.753143410e-12
3.590000000e+00	1.959173286e-01	-2.555103490e-02	1.030435635e-11
3.600000000e+00	1.957050848e-01	-2.560334906e-02	2.170378121e-11
3.610000000e+00	1.954935287e-01	-2.565569104e-02	6.224955062e-11
3.620000000e+00	1.952826565e-01	-2.570806083e-02	5.817142945e-12
3.630000000e+00	1.950724645e-01	-2.576045844e-02	3.003660264e-11
3.640000000e+00	1.948629492e-01	-2.581288386e-02	1.290029378e-11
3.650000000e+00	1.946541068e-01	-2.586533708e-02	1.001090479e-11
3.660000000e+00	1.944459338e-01	-2.591781810e-02	8.086457297e-12
3.670000000e+00	1.942384267e-01	-2.597032691e-02	1.377628561e-11
3.680000000e+00	1.940315818e-01	-2.602286353e-02	1.827977556e-11
3.690000000e+00	1.938253957e-01	-2.607542793e-02	1.126545108e-11
3.700000000e+00	1.936198649e-01	-2.612802011e-02	7.674352547e-12
3.710000000e+00	1.934149860e-01	-2.618064008e-02	1.075652264e-11
3.720000000e+00	1.932107554e-01	-2.623328783e-02	3.546216041e-11
3.730000000e+00	1.930071698e-01	-2.628596335e-02	2.792570089e-11
3.740000000e+00	1.928042258e-01	-2.633866664e-02	8.628933528e-12
3.750000000e+00	1.926019201e-01	-2.639139769e-02	1.998908524e-11
3.760000000e+00	1.924002492e-01	-2.644415651e-02	2.327959756e-11
3.770000000e+00	1.921992100e-01	-2.649694309e-02	3.382242995e-11
3.780000000e+00	1.919987990e-01	-2.654975741e-02	9.290493560e-12
3.790000000e+00	1.917990131e-01	-2.660259948e-02	4.907561947e-11
3.800000000e+00	1.915998491e-01	-2.665546930e-02	7.267348809e-12
3.810000000e+00	1.914013036e-01	-2.670836686e-02	4.273036597e-11
3.820000000e+00	1.912033735e-01	-2.676129215e-02	1.180395937e-11
3.830000000e+00	1.910060556e-01	-2.681424518e-02	8.964578961e-12
3.840000000e+00	1.908093468e-01	-2.686722594e-02	6.464165585e-11
3.850000000e+00	1.906132440e-01	-2.692023441e-02	1.554428285e-11
3.860000000e+00	1.904177440e-01	-2.697327060e-02	1.302713024e-11
3.870000000e+00	1.902228438e-01	-2.702633450e-02	1.482948019e-11
3.880000000e+00	1.900285403e-01	-2.707942611e-02	1.160920128e-11
3.890000000e+00	1.898348304e-01	-2.713254543e-02	1.628705810e-11
3.900000000e+00	1.896417113e-01	-2.718569244e-02	3.624465649e-11
3.910000000e+00	1.894491798e-01	-2.723886715e-02	1.363030175e-11
3.920000000e+00	1.892572330e-01	-2.729206954e-02	2.099734890e-11
3.930000000e+00	1.890658680e-01	-2.734529962e-02	1.485263457e-11
3.940000000e+00	1.888750818e-01	-2.739855739e-02	9.115437194e-12
3.950000000e+00	1.886848715e-01	-2.745184282e-02	1.714384147e-11
3.960000000e+00	1.884952342e-01	-2.750515592e-02	1.241852821e-11
3.970000000e+00	1.883061671e-01	-2.755849669e-02	8.877969409e-12
3.980000000e+00	1.881176673e-01	-2.761186512e-02	1.248808775e-11
3.990000000e+00	1.879297319e-01	-2.766526120e-02	1.220743002e-11
4.000000000e+00	1.877423582e-01	-2.771868493e-02	1.885545440e-11
4.010000000e+00	1.875555434e-01	-2.777213631e-02	1.239022252e-11
4.020000000e+00	1.873692847e-01	-2.782561532e-02	2.273159075e-11
4.030000000e+00	1.871835794e-01	-2.787912197e-02	8.292328271e-12
4.040000000e+00	1.869984246e-01	-2.793265625e-02	5.503262718e-12
