# Ep [eV]     Re(omega/c) [1/micrones]    Im(omega/c) [1/micrones]     Eq(det)R = 0.5 $\mu$m, $\mu_c$ = 0.3 eV, modo = 2, $\epsilon_{ci}$ = 0, $\epsilon_\infty$ = 3.9, $\gamma_{DL}$ = 0.01 eV, solve_det_sinkz_vs_Ep.py
0.000000000e+00	1.896423264e-01	-5.242039287e-04	1.398098790e-13
1.000000000e-03	1.896551782e-01	-5.276028526e-04	4.050183078e-13
2.000000000e-03	1.896937309e-01	-5.377948146e-04	2.749304133e-13
3.000000000e-03	1.897579757e-01	-5.547653973e-04	1.415079310e-13
4.000000000e-03	1.898478983e-01	-5.784906154e-04	8.993164574e-14
5.000000000e-03	1.899634785e-01	-6.089369802e-04	1.067591292e-13
6.000000000e-03	1.901046902e-01	-6.460615903e-04	1.071074824e-13
7.000000000e-03	1.902715017e-01	-6.898122475e-04	1.530787810e-13
8.000000000e-03	1.904638750e-01	-7.401275983e-04	6.190705527e-14
9.000000000e-03	1.906817664e-01	-7.969373001e-04	2.069742784e-13
1.000000000e-02	1.909251259e-01	-8.601622123e-04	1.417709593e-13
1.100000000e-02	1.911938976e-01	-9.297146111e-04	2.135086753e-13
1.200000000e-02	1.914880193e-01	-1.005498428e-03	4.806842614e-14
1.300000000e-02	1.918074224e-01	-1.087409511e-03	1.729795880e-13
1.400000000e-02	1.921520322e-01	-1.175335907e-03	1.829410394e-13
1.500000000e-02	1.925217671e-01	-1.269158169e-03	1.281441712e-13
1.600000000e-02	1.929165395e-01	-1.368749680e-03	7.562015170e-13
1.700000000e-02	1.933362549e-01	-1.473976995e-03	1.686885885e-13
1.800000000e-02	1.937808120e-01	-1.584700206e-03	1.725240856e-13
1.900000000e-02	1.942501031e-01	-1.700773320e-03	1.025846075e-13
2.000000000e-02	1.947440136e-01	-1.822044654e-03	9.319103876e-14
2.100000000e-02	1.952624218e-01	-1.948357241e-03	9.075514702e-14
2.200000000e-02	1.958051995e-01	-2.079549257e-03	5.685035733e-14
2.300000000e-02	1.963722115e-01	-2.215454443e-03	5.105258905e-13
2.400000000e-02	1.969633156e-01	-2.355902554e-03	1.982548728e-13
2.500000000e-02	1.975783629e-01	-2.500719800e-03	2.253808524e-13
2.600000000e-02	1.982171975e-01	-2.649729301e-03	1.630678405e-13
2.700000000e-02	1.988796569e-01	-2.802751544e-03	2.899385637e-13
2.800000000e-02	1.995655715e-01	-2.959604834e-03	7.184836418e-13
2.900000000e-02	2.002747655e-01	-3.120105756e-03	1.642049504e-13
3.000000000e-02	2.010070563e-01	-3.284069622e-03	3.696532534e-13
3.100000000e-02	2.017622548e-01	-3.451310924e-03	1.075842201e-13
3.200000000e-02	2.025401659e-01	-3.621643769e-03	6.109040705e-13
3.300000000e-02	2.033405880e-01	-3.794882316e-03	1.823363454e-13
3.400000000e-02	2.041633138e-01	-3.970841197e-03	1.989598960e-13
3.500000000e-02	2.050081302e-01	-4.149335923e-03	8.286281023e-14
3.600000000e-02	2.058748184e-01	-4.330183281e-03	7.936658194e-14
3.700000000e-02	2.067631545e-01	-4.513201716e-03	7.671311722e-14
3.800000000e-02	2.076729094e-01	-4.698211688e-03	5.343852989e-14
3.900000000e-02	2.086038491e-01	-4.885036023e-03	1.060806335e-13
4.000000000e-02	2.095557351e-01	-5.073500234e-03	4.093028374e-13
4.100000000e-02	2.105283248e-01	-5.263432826e-03	7.996072559e-14
4.200000000e-02	2.115213713e-01	-5.454665583e-03	2.172699368e-13
4.300000000e-02	2.125346243e-01	-5.647033831e-03	7.114303598e-14
4.400000000e-02	2.135678300e-01	-5.840376672e-03	8.567584679e-14
4.500000000e-02	2.146207313e-01	-6.034537210e-03	1.590806646e-13
4.600000000e-02	2.156930688e-01	-6.229362743e-03	1.285897097e-13
4.700000000e-02	2.167845803e-01	-6.424704937e-03	5.606791157e-14
4.800000000e-02	2.178950016e-01	-6.620419978e-03	2.046456366e-13
4.900000000e-02	2.190240667e-01	-6.816368700e-03	1.111075349e-13
5.000000000e-02	2.201715080e-01	-7.012416692e-03	1.053343659e-13
5.100000000e-02	2.213370568e-01	-7.208434391e-03	2.291586385e-13
5.200000000e-02	2.225204437e-01	-7.404297139e-03	1.932579094e-13
5.300000000e-02	2.237213983e-01	-7.599885241e-03	4.846069454e-13
5.400000000e-02	2.249396502e-01	-7.795083984e-03	1.204390897e-13
5.500000000e-02	2.261749289e-01	-7.989783658e-03	2.032822906e-13
5.600000000e-02	2.274269643e-01	-8.183879542e-03	1.030195465e-12
5.700000000e-02	2.286954867e-01	-8.377271888e-03	1.052107229e-13
5.800000000e-02	2.299802272e-01	-8.569865883e-03	1.078762072e-13
5.900000000e-02	2.312809180e-01	-8.761571601e-03	1.971436001e-13
6.000000000e-02	2.325972925e-01	-8.952303941e-03	2.338744291e-13
6.100000000e-02	2.339290856e-01	-9.141982553e-03	9.044168688e-14
6.200000000e-02	2.352760340e-01	-9.330531757e-03	1.018117493e-13
6.300000000e-02	2.366378762e-01	-9.517880449e-03	1.133115179e-13
6.400000000e-02	2.380143529e-01	-9.703961997e-03	1.027565240e-13
6.500000000e-02	2.394052068e-01	-9.888714141e-03	5.955433343e-14
6.600000000e-02	2.408101833e-01	-1.007207887e-02	2.673730543e-13
6.700000000e-02	2.422290303e-01	-1.025400231e-02	1.186782196e-13
6.800000000e-02	2.436614983e-01	-1.043443460e-02	3.058536886e-13
6.900000000e-02	2.451073407e-01	-1.061332974e-02	1.873745998e-13
7.000000000e-02	2.465663139e-01	-1.079064552e-02	1.500679883e-13
7.100000000e-02	2.480381773e-01	-1.096634331e-02	1.839730337e-13
7.200000000e-02	2.495226934e-01	-1.114038800e-02	1.878093120e-13
7.300000000e-02	2.510196279e-01	-1.131274782e-02	9.883255002e-14
7.400000000e-02	2.525287500e-01	-1.148339420e-02	1.026845269e-13
7.500000000e-02	2.540498320e-01	-1.165230167e-02	1.956982791e-13
7.600000000e-02	2.555826498e-01	-1.181944772e-02	1.978072246e-13
7.700000000e-02	2.571269826e-01	-1.198481264e-02	1.514760889e-13
7.800000000e-02	2.586826132e-01	-1.214837942e-02	3.158370453e-13
7.900000000e-02	2.602493279e-01	-1.231013360e-02	2.147868120e-13
8.000000000e-02	2.618269165e-01	-1.247006316e-02	3.137146889e-13
8.100000000e-02	2.634151723e-01	-1.262815840e-02	1.016877020e-13
8.200000000e-02	2.650138923e-01	-1.278441180e-02	5.376964960e-14
8.300000000e-02	2.666228770e-01	-1.293881792e-02	3.038037622e-13
8.400000000e-02	2.682419304e-01	-1.309137328e-02	1.578960419e-13
8.500000000e-02	2.698708601e-01	-1.324207624e-02	1.624304472e-13
8.600000000e-02	2.715094772e-01	-1.339092691e-02	1.871639778e-13
8.700000000e-02	2.731575964e-01	-1.353792705e-02	2.407373159e-13
8.800000000e-02	2.748150358e-01	-1.368307994e-02	1.120232087e-13
8.900000000e-02	2.764816170e-01	-1.382639031e-02	2.836631777e-13
9.000000000e-02	2.781571649e-01	-1.396786425e-02	8.106300846e-14
9.100000000e-02	2.798415080e-01	-1.410750910e-02	6.961620699e-14
9.200000000e-02	2.815344782e-01	-1.424533337e-02	2.759063932e-13
9.300000000e-02	2.832359103e-01	-1.438134667e-02	1.213404185e-13
9.400000000e-02	2.849456429e-01	-1.451555964e-02	6.150435152e-14
9.500000000e-02	2.866635176e-01	-1.464798383e-02	4.672886902e-13
9.600000000e-02	2.883893792e-01	-1.477863167e-02	9.895145709e-14
9.700000000e-02	2.901230756e-01	-1.490751641e-02	8.802493412e-14
9.800000000e-02	2.918644580e-01	-1.503465201e-02	7.263031170e-14
9.900000000e-02	2.936133803e-01	-1.516005310e-02	2.123982870e-13
1.000000000e-01	2.953696999e-01	-1.528373495e-02	1.639314882e-13
1.010000000e-01	2.971332766e-01	-1.540571337e-02	7.342227781e-13
1.020000000e-01	2.989039735e-01	-1.552600468e-02	1.164631891e-13
1.030000000e-01	3.006816565e-01	-1.564462566e-02	1.064184531e-13
1.040000000e-01	3.024661941e-01	-1.576159348e-02	9.400462310e-14
1.050000000e-01	3.042574577e-01	-1.587692571e-02	1.232707577e-13
1.060000000e-01	3.060553215e-01	-1.599064021e-02	1.033383282e-13
1.070000000e-01	3.078596620e-01	-1.610275512e-02	1.289863207e-13
1.080000000e-01	3.096703586e-01	-1.621328886e-02	1.140421177e-13
1.090000000e-01	3.114872931e-01	-1.632226001e-02	1.425554032e-13
1.100000000e-01	3.133103500e-01	-1.642968737e-02	1.658203480e-13
1.110000000e-01	3.151394158e-01	-1.653558986e-02	1.342121426e-13
1.120000000e-01	3.169743799e-01	-1.663998652e-02	3.521796134e-13
1.130000000e-01	3.188151337e-01	-1.674289647e-02	2.345212580e-13
1.140000000e-01	3.206615710e-01	-1.684433891e-02	1.929380122e-13
1.150000000e-01	3.225135878e-01	-1.694433308e-02	1.774868864e-13
1.160000000e-01	3.243710824e-01	-1.704289821e-02	2.004481460e-13
1.170000000e-01	3.262339551e-01	-1.714005354e-02	9.964336691e-14
1.180000000e-01	3.281021083e-01	-1.723581831e-02	8.841683453e-13
1.190000000e-01	3.299754467e-01	-1.733021167e-02	2.774413574e-13
1.200000000e-01	3.318538766e-01	-1.742325275e-02	1.141171563e-13
1.210000000e-01	3.337373067e-01	-1.751496059e-02	2.050383555e-13
1.220000000e-01	3.356256472e-01	-1.760535415e-02	7.479000904e-13
1.230000000e-01	3.375188105e-01	-1.769445229e-02	7.024589098e-14
1.240000000e-01	3.394167108e-01	-1.778227373e-02	9.850625448e-14
1.250000000e-01	3.413192638e-01	-1.786883710e-02	1.140585451e-13
1.260000000e-01	3.432263873e-01	-1.795416088e-02	1.263324531e-13
1.270000000e-01	3.451380005e-01	-1.803826340e-02	9.727175804e-14
1.280000000e-01	3.470540247e-01	-1.812116284e-02	1.286121378e-13
1.290000000e-01	3.489743823e-01	-1.820287724e-02	3.804609739e-13
1.300000000e-01	3.508989977e-01	-1.828342444e-02	1.513952240e-13
1.310000000e-01	3.528277968e-01	-1.836282213e-02	9.250165108e-14
1.320000000e-01	3.547607068e-01	-1.844108781e-02	3.393085687e-13
1.330000000e-01	3.566976566e-01	-1.851823879e-02	1.488332125e-13
1.340000000e-01	3.586385765e-01	-1.859429221e-02	8.539953570e-14
1.350000000e-01	3.605833982e-01	-1.866926500e-02	2.165069046e-13
1.360000000e-01	3.625320548e-01	-1.874317390e-02	2.047369561e-13
1.370000000e-01	3.644844807e-01	-1.881603545e-02	8.628004502e-14
1.380000000e-01	3.664406119e-01	-1.888786599e-02	3.081581754e-13
1.390000000e-01	3.684003852e-01	-1.895868165e-02	1.694871720e-13
1.400000000e-01	3.703637391e-01	-1.902849835e-02	7.348275933e-14
1.410000000e-01	3.723306131e-01	-1.909733183e-02	1.698371360e-13
1.420000000e-01	3.743009480e-01	-1.916519759e-02	8.286743998e-14
1.430000000e-01	3.762746858e-01	-1.923211093e-02	9.001937218e-14
1.440000000e-01	3.782517695e-01	-1.929808696e-02	1.089695069e-13
1.450000000e-01	3.802321435e-01	-1.936314055e-02	1.188167403e-13
1.460000000e-01	3.822157530e-01	-1.942728638e-02	1.227643888e-13
1.470000000e-01	3.842025445e-01	-1.949053892e-02	2.351797909e-13
1.480000000e-01	3.861924653e-01	-1.955291242e-02	1.226253895e-13
1.490000000e-01	3.881854640e-01	-1.961442093e-02	8.857550443e-14
1.500000000e-01	3.901814901e-01	-1.967507831e-02	5.926213189e-14
1.510000000e-01	3.921804940e-01	-1.973489817e-02	1.707270274e-13
1.520000000e-01	3.941824271e-01	-1.979389396e-02	1.124401115e-13
1.530000000e-01	3.961872418e-01	-1.985207890e-02	1.217650294e-13
1.540000000e-01	3.981948913e-01	-1.990946602e-02	3.283904034e-13
1.550000000e-01	4.002053299e-01	-1.996606815e-02	8.581994021e-14
1.560000000e-01	4.022185124e-01	-2.002189791e-02	1.856674601e-13
1.570000000e-01	4.042343948e-01	-2.007696773e-02	9.899513714e-14
1.580000000e-01	4.062529338e-01	-2.013128984e-02	1.015492574e-13
1.590000000e-01	4.082740869e-01	-2.018487630e-02	8.082122420e-14
1.600000000e-01	4.102978125e-01	-2.023773895e-02	9.684153728e-14
1.610000000e-01	4.123240696e-01	-2.028988945e-02	1.236318631e-13
1.620000000e-01	4.143528181e-01	-2.034133929e-02	6.810017593e-14
1.630000000e-01	4.163840186e-01	-2.039209974e-02	1.396999415e-13
1.640000000e-01	4.184176325e-01	-2.044218193e-02	8.628546013e-14
1.650000000e-01	4.204536216e-01	-2.049159678e-02	1.445391188e-13
1.660000000e-01	4.224919489e-01	-2.054035504e-02	1.466589724e-13
1.670000000e-01	4.245325777e-01	-2.058846728e-02	9.452097195e-14
1.680000000e-01	4.265754721e-01	-2.063594392e-02	7.838385372e-14
1.690000000e-01	4.286205968e-01	-2.068279519e-02	1.541982930e-13
1.700000000e-01	4.306679172e-01	-2.072903114e-02	9.161375556e-14
1.710000000e-01	4.327173992e-01	-2.077466169e-02	1.652422483e-13
1.720000000e-01	4.347690095e-01	-2.081969656e-02	7.862305228e-14
1.730000000e-01	4.368227153e-01	-2.086414533e-02	1.293285126e-13
1.740000000e-01	4.388784842e-01	-2.090801741e-02	1.093208418e-13
1.750000000e-01	4.409362847e-01	-2.095132208e-02	1.944254145e-13
1.760000000e-01	4.429960857e-01	-2.099406843e-02	1.361316460e-13
1.770000000e-01	4.450578566e-01	-2.103626541e-02	1.407731958e-13
1.780000000e-01	4.471215673e-01	-2.107792185e-02	1.206634985e-13
1.790000000e-01	4.491871884e-01	-2.111904639e-02	8.934621104e-14
1.800000000e-01	4.512546909e-01	-2.115964756e-02	6.817565631e-14
1.810000000e-01	4.533240462e-01	-2.119973373e-02	1.380650501e-13
1.820000000e-01	4.553952265e-01	-2.123931312e-02	1.200486145e-13
1.830000000e-01	4.574682041e-01	-2.127839385e-02	1.134201061e-13
1.840000000e-01	4.595429520e-01	-2.131698388e-02	2.698392901e-13
1.850000000e-01	4.616194436e-01	-2.135509103e-02	1.139499841e-13
1.860000000e-01	4.636976528e-01	-2.139272301e-02	1.897535338e-13
1.870000000e-01	4.657775538e-01	-2.142988738e-02	1.320917691e-13
1.880000000e-01	4.678591214e-01	-2.146659160e-02	1.287157480e-13
1.890000000e-01	4.699423308e-01	-2.150284298e-02	8.590036323e-14
1.900000000e-01	4.720271574e-01	-2.153864873e-02	1.958888487e-13
1.910000000e-01	4.741135772e-01	-2.157401594e-02	9.180331102e-14
1.920000000e-01	4.762015667e-01	-2.160895155e-02	1.061544239e-13
1.930000000e-01	4.782911026e-01	-2.164346243e-02	7.122097063e-14
1.940000000e-01	4.803821619e-01	-2.167755531e-02	1.594937776e-13
1.950000000e-01	4.824747222e-01	-2.171123682e-02	1.346756388e-13
1.960000000e-01	4.845687613e-01	-2.174451346e-02	1.888846535e-13
1.970000000e-01	4.866642575e-01	-2.177739166e-02	3.747288170e-13
1.980000000e-01	4.887611894e-01	-2.180987770e-02	7.296348828e-14
1.990000000e-01	4.908595358e-01	-2.184197779e-02	2.211349315e-13
2.000000000e-01	4.929592761e-01	-2.187369804e-02	1.180602471e-13
2.010000000e-01	4.950603897e-01	-2.190504443e-02	1.042189771e-13
2.020000000e-01	4.971628566e-01	-2.193602287e-02	1.719346464e-13
2.030000000e-01	4.992666570e-01	-2.196663916e-02	1.883192459e-13
2.040000000e-01	5.013717715e-01	-2.199689902e-02	1.577256479e-13
2.050000000e-01	5.034781809e-01	-2.202680805e-02	8.570173702e-14
2.060000000e-01	5.055858663e-01	-2.205637179e-02	2.630498996e-13
2.070000000e-01	5.076948091e-01	-2.208559568e-02	6.860911622e-14
2.080000000e-01	5.098049911e-01	-2.211448506e-02	3.035819002e-13
2.090000000e-01	5.119163942e-01	-2.214304520e-02	1.483994708e-13
2.100000000e-01	5.140290007e-01	-2.217128129e-02	2.221846388e-13
2.110000000e-01	5.161427931e-01	-2.219919840e-02	2.104080544e-13
2.120000000e-01	5.182577543e-01	-2.222680157e-02	1.902879513e-13
2.130000000e-01	5.203738673e-01	-2.225409573e-02	2.250222169e-13
2.140000000e-01	5.224911154e-01	-2.228108574e-02	2.112125013e-13
2.150000000e-01	5.246094822e-01	-2.230777637e-02	8.074296245e-14
2.160000000e-01	5.267289515e-01	-2.233417234e-02	9.675053049e-14
2.170000000e-01	5.288495073e-01	-2.236027827e-02	3.079112223e-13
2.180000000e-01	5.309711340e-01	-2.238609873e-02	1.179810004e-13
2.190000000e-01	5.330938160e-01	-2.241163821e-02	9.303442794e-14
2.200000000e-01	5.352175381e-01	-2.243690112e-02	2.311503503e-13
2.210000000e-01	5.373422852e-01	-2.246189181e-02	3.158055124e-13
2.220000000e-01	5.394680426e-01	-2.248661457e-02	1.534687237e-13
2.230000000e-01	5.415947957e-01	-2.251107362e-02	8.744868505e-14
2.240000000e-01	5.437225299e-01	-2.253527310e-02	9.662315083e-14
2.250000000e-01	5.458512313e-01	-2.255921711e-02	7.690261258e-14
2.260000000e-01	5.479808857e-01	-2.258290968e-02	1.370576247e-13
2.270000000e-01	5.501114794e-01	-2.260635476e-02	5.022440015e-13
2.280000000e-01	5.522429988e-01	-2.262955627e-02	7.080560799e-14
2.290000000e-01	5.543754306e-01	-2.265251806e-02	1.656552277e-13
2.300000000e-01	5.565087614e-01	-2.267524391e-02	8.390914376e-14
2.310000000e-01	5.586429783e-01	-2.269773756e-02	2.134907292e-13
2.320000000e-01	5.607780684e-01	-2.272000268e-02	1.121714804e-13
2.330000000e-01	5.629140192e-01	-2.274204289e-02	1.725414249e-13
2.340000000e-01	5.650508179e-01	-2.276386178e-02	9.917822688e-14
2.350000000e-01	5.671884525e-01	-2.278546285e-02	7.434457510e-14
2.360000000e-01	5.693269106e-01	-2.280684958e-02	4.998337566e-13
2.370000000e-01	5.714661804e-01	-2.282802537e-02	6.096428794e-14
2.380000000e-01	5.736062500e-01	-2.284899359e-02	2.096514882e-13
2.390000000e-01	5.757471077e-01	-2.286975757e-02	1.144023559e-13
2.400000000e-01	5.778887420e-01	-2.289032057e-02	1.217274999e-13
2.410000000e-01	5.800311416e-01	-2.291068581e-02	1.313354539e-13
2.420000000e-01	5.821742953e-01	-2.293085648e-02	8.142202184e-14
2.430000000e-01	5.843181920e-01	-2.295083570e-02	7.292343593e-14
2.440000000e-01	5.864628208e-01	-2.297062657e-02	8.158418959e-14
2.450000000e-01	5.886081709e-01	-2.299023213e-02	1.131310138e-13
2.460000000e-01	5.907542318e-01	-2.300965538e-02	1.083598683e-13
2.470000000e-01	5.929009929e-01	-2.302889929e-02	1.249604026e-13
2.480000000e-01	5.950484439e-01	-2.304796678e-02	1.090493232e-13
2.490000000e-01	5.971965745e-01	-2.306686072e-02	2.547048586e-14
2.500000000e-01	5.993453748e-01	-2.308558397e-02	8.847756843e-14
2.510000000e-01	6.014948347e-01	-2.310413931e-02	1.026001195e-13
2.520000000e-01	6.036449444e-01	-2.312252952e-02	1.362963976e-13
2.530000000e-01	6.057956942e-01	-2.314075733e-02	1.096459942e-13
2.540000000e-01	6.079470745e-01	-2.315882543e-02	1.562445318e-13
2.550000000e-01	6.100990758e-01	-2.317673647e-02	5.226535157e-13
2.560000000e-01	6.122516889e-01	-2.319449307e-02	1.014024040e-13
2.570000000e-01	6.144049045e-01	-2.321209783e-02	9.431105269e-14
2.580000000e-01	6.165587134e-01	-2.322955329e-02	1.201116687e-13
2.590000000e-01	6.187131068e-01	-2.324686198e-02	7.571337986e-14
2.600000000e-01	6.208680756e-01	-2.326402638e-02	5.120340473e-14
2.610000000e-01	6.230236111e-01	-2.328104895e-02	1.091813024e-13
2.620000000e-01	6.251797047e-01	-2.329793212e-02	1.141375402e-13
2.630000000e-01	6.273363477e-01	-2.331467828e-02	1.065526390e-13
2.640000000e-01	6.294935317e-01	-2.333128978e-02	8.977592265e-14
2.650000000e-01	6.316512484e-01	-2.334776898e-02	7.859161796e-14
2.660000000e-01	6.338094895e-01	-2.336411817e-02	9.469996800e-14
2.670000000e-01	6.359682467e-01	-2.338033964e-02	1.076295481e-13
2.680000000e-01	6.381275122e-01	-2.339643563e-02	1.378253268e-13
2.690000000e-01	6.402872778e-01	-2.341240836e-02	1.801079810e-13
2.700000000e-01	6.424475357e-01	-2.342826003e-02	8.981986186e-14
2.710000000e-01	6.446082781e-01	-2.344399282e-02	9.318904656e-14
2.720000000e-01	6.467694973e-01	-2.345960886e-02	8.989809881e-14
2.730000000e-01	6.489311857e-01	-2.347511028e-02	7.316213895e-14
2.740000000e-01	6.510933358e-01	-2.349049916e-02	1.088205830e-13
2.750000000e-01	6.532559402e-01	-2.350577758e-02	2.477915144e-13
2.760000000e-01	6.554189915e-01	-2.352094759e-02	1.188083769e-13
2.770000000e-01	6.575824824e-01	-2.353601121e-02	8.553092580e-14
2.780000000e-01	6.597464057e-01	-2.355097044e-02	2.481347820e-13
2.790000000e-01	6.619107545e-01	-2.356582725e-02	1.195414010e-13
2.800000000e-01	6.640755216e-01	-2.358058361e-02	6.142308972e-14
2.810000000e-01	6.662407000e-01	-2.359524144e-02	1.311669971e-13
2.820000000e-01	6.684062830e-01	-2.360980265e-02	1.790662229e-13
2.830000000e-01	6.705722638e-01	-2.362426915e-02	1.267294152e-13
2.840000000e-01	6.727386355e-01	-2.363864280e-02	7.685579531e-14
2.850000000e-01	6.749053917e-01	-2.365292546e-02	2.391816437e-13
2.860000000e-01	6.770725256e-01	-2.366711895e-02	1.903052654e-13
2.870000000e-01	6.792400309e-01	-2.368122508e-02	1.253446877e-13
2.880000000e-01	6.814079010e-01	-2.369524566e-02	6.812357430e-14
2.890000000e-01	6.835761297e-01	-2.370918246e-02	7.472643815e-14
2.900000000e-01	6.857447106e-01	-2.372303724e-02	1.680323753e-13
2.910000000e-01	6.879136375e-01	-2.373681173e-02	2.292888596e-13
2.920000000e-01	6.900829043e-01	-2.375050766e-02	6.889941954e-14
2.930000000e-01	6.922525049e-01	-2.376412673e-02	1.460631110e-13
2.940000000e-01	6.944224331e-01	-2.377767063e-02	1.645148636e-13
2.950000000e-01	6.965926832e-01	-2.379114103e-02	1.455256778e-13
2.960000000e-01	6.987632491e-01	-2.380453959e-02	1.183666288e-13
2.970000000e-01	7.009341250e-01	-2.381786796e-02	1.073870681e-13
2.980000000e-01	7.031053052e-01	-2.383112774e-02	2.481111958e-13
2.990000000e-01	7.052767839e-01	-2.384432056e-02	2.598812210e-13
3.000000000e-01	7.074485554e-01	-2.385744800e-02	1.135170189e-13
3.010000000e-01	7.096206142e-01	-2.387051165e-02	7.780210036e-14
3.020000000e-01	7.117929546e-01	-2.388351307e-02	8.576066880e-14
3.030000000e-01	7.139655713e-01	-2.389645382e-02	1.097273371e-13
