# Re(D2)     Im(D2)     kz [eV]     Omega/c [1/micrones]    Im(epsi1).Opt det con kz, R=0.5 \mum, Re(epsi1)=3.90, $\mu_c$ = 0.300 eV, find_best_pol2.py
3.847722508e-10	-7.890054463e-06	0.000000000e+00	1.896417113e-01	-2.718569244e-02
3.846710177e-10	-7.889983963e-06	5.000000000e-04	1.896417121e-01	-2.718569251e-02
3.843673112e-10	-7.889772448e-06	1.000000000e-03	1.896417144e-01	-2.718569270e-02
3.838611680e-10	-7.889419956e-06	1.500000000e-03	1.896417184e-01	-2.718569303e-02
3.831526187e-10	-7.888926443e-06	2.000000000e-03	1.896417238e-01	-2.718569350e-02
3.822417357e-10	-7.888291968e-06	2.500000000e-03	1.896417309e-01	-2.718569409e-02
3.811285911e-10	-7.887516511e-06	3.000000000e-03	1.896417395e-01	-2.718569482e-02
3.798132719e-10	-7.886600103e-06	3.500000000e-03	1.896417497e-01	-2.718569567e-02
3.782958882e-10	-7.885542762e-06	4.000000000e-03	1.896417615e-01	-2.718569666e-02
3.765765746e-10	-7.884344491e-06	4.500000000e-03	1.896417748e-01	-2.718569778e-02
3.746554710e-10	-7.883005329e-06	5.000000000e-03	1.896417897e-01	-2.718569904e-02
3.725327394e-10	-7.881525304e-06	5.500000000e-03	1.896418062e-01	-2.718570042e-02
3.702085498e-10	-7.879904426e-06	6.000000000e-03	1.896418242e-01	-2.718570194e-02
3.676831018e-10	-7.878142743e-06	6.500000000e-03	1.896418438e-01	-2.718570358e-02
3.649566079e-10	-7.876240289e-06	7.000000000e-03	1.896418650e-01	-2.718570536e-02
3.620292941e-10	-7.874197085e-06	7.500000000e-03	1.896418877e-01	-2.718570726e-02
3.589014084e-10	-7.872013185e-06	8.000000000e-03	1.896419120e-01	-2.718570930e-02
3.555732041e-10	-7.869688631e-06	8.500000000e-03	1.896419379e-01	-2.718571146e-02
3.520449681e-10	-7.867223453e-06	9.000000000e-03	1.896419653e-01	-2.718571376e-02
3.483169905e-10	-7.864617713e-06	9.500000000e-03	1.896419943e-01	-2.718571618e-02
3.443895873e-10	-7.861871463e-06	1.000000000e-02	1.896420249e-01	-2.718571874e-02
3.402630907e-10	-7.858984754e-06	1.050000000e-02	1.896420571e-01	-2.718572142e-02
3.359378409e-10	-7.855957625e-06	1.100000000e-02	1.896420908e-01	-2.718572423e-02
3.314141987e-10	-7.852790135e-06	1.150000000e-02	1.896421260e-01	-2.718572717e-02
3.266925535e-10	-7.849482378e-06	1.200000000e-02	1.896421629e-01	-2.718573023e-02
3.217732959e-10	-7.846034383e-06	1.250000000e-02	1.896422013e-01	-2.718573342e-02
3.166568409e-10	-7.842446235e-06	1.300000000e-02	1.896422413e-01	-2.718573674e-02
3.113436121e-10	-7.838718002e-06	1.350000000e-02	1.896422829e-01	-2.718574019e-02
3.058340709e-10	-7.834849739e-06	1.400000000e-02	1.896423260e-01	-2.718574376e-02
3.001286763e-10	-7.830841537e-06	1.450000000e-02	1.896423707e-01	-2.718574745e-02
2.942278963e-10	-7.826693456e-06	1.500000000e-02	1.896424169e-01	-2.718575127e-02
2.881322471e-10	-7.822405610e-06	1.550000000e-02	1.896424648e-01	-2.718575521e-02
2.818422340e-10	-7.817978031e-06	1.600000000e-02	1.896425141e-01	-2.718575928e-02
2.753583879e-10	-7.813410854e-06	1.650000000e-02	1.896425651e-01	-2.718576347e-02
2.686812599e-10	-7.808704134e-06	1.700000000e-02	1.896426176e-01	-2.718576778e-02
2.618114152e-10	-7.803857978e-06	1.750000000e-02	1.896426717e-01	-2.718577221e-02
2.547494352e-10	-7.798872479e-06	1.800000000e-02	1.896427274e-01	-2.718577676e-02
2.474959233e-10	-7.793747717e-06	1.850000000e-02	1.896427846e-01	-2.718578144e-02
2.400514839e-10	-7.788483806e-06	1.900000000e-02	1.896428434e-01	-2.718578623e-02
2.324167623e-10	-7.783080849e-06	1.950000000e-02	1.896429038e-01	-2.718579114e-02
2.245924024e-10	-7.777538949e-06	2.000000000e-02	1.896429658e-01	-2.718579617e-02
2.165790715e-10	-7.771858197e-06	2.050000000e-02	1.896430293e-01	-2.718580132e-02
2.083774470e-10	-7.766038701e-06	2.100000000e-02	1.896430943e-01	-2.718580659e-02
1.999882339e-10	-7.760080607e-06	2.150000000e-02	1.896431610e-01	-2.718581197e-02
1.914121476e-10	-7.753983998e-06	2.200000000e-02	1.896432292e-01	-2.718581746e-02
1.826499256e-10	-7.747749006e-06	2.250000000e-02	1.896432990e-01	-2.718582307e-02
1.737023114e-10	-7.741375735e-06	2.300000000e-02	1.896433703e-01	-2.718582880e-02
1.645700767e-10	-7.734864342e-06	2.350000000e-02	1.896434433e-01	-2.718583464e-02
1.552540074e-10	-7.728214902e-06	2.400000000e-02	1.896435177e-01	-2.718584058e-02
1.457548939e-10	-7.721427594e-06	2.450000000e-02	1.896435938e-01	-2.718584664e-02
1.360735614e-10	-7.714502515e-06	2.500000000e-02	1.896436714e-01	-2.718585281e-02
1.262108478e-10	-7.707439814e-06	2.550000000e-02	1.896437506e-01	-2.718585909e-02
1.161675922e-10	-7.700239630e-06	2.600000000e-02	1.896438314e-01	-2.718586548e-02
1.059446754e-10	-7.692902083e-06	2.650000000e-02	1.896439137e-01	-2.718587198e-02
9.554296956e-11	-7.685427333e-06	2.700000000e-02	1.896439976e-01	-2.718587858e-02
8.496338630e-11	-7.677815523e-06	2.750000000e-02	1.896440831e-01	-2.718588528e-02
7.420683477e-11	-7.670066785e-06	2.800000000e-02	1.896441701e-01	-2.718589210e-02
6.327426169e-11	-7.662181283e-06	2.850000000e-02	1.896442587e-01	-2.718589901e-02
5.216660459e-11	-7.654159171e-06	2.900000000e-02	1.896443489e-01	-2.718590603e-02
4.088484109e-11	-7.646000588e-06	2.950000000e-02	1.896444406e-01	-2.718591315e-02
2.942994816e-11	-7.637705707e-06	3.000000000e-02	1.896445339e-01	-2.718592037e-02
1.780293399e-11	-7.629274689e-06	3.050000000e-02	1.896446288e-01	-2.718592768e-02
6.004812046e-12	-7.620707696e-06	3.100000000e-02	1.896447253e-01	-2.718593510e-02
-5.963371823e-12	-7.612004879e-06	3.150000000e-02	1.896448233e-01	-2.718594261e-02
-1.810058263e-11	-7.603166422e-06	3.200000000e-02	1.896449229e-01	-2.718595022e-02
-3.040573115e-11	-7.594192480e-06	3.250000000e-02	1.896450240e-01	-2.718595793e-02
-4.287775429e-11	-7.585083242e-06	3.300000000e-02	1.896451267e-01	-2.718596573e-02
-5.551553807e-11	-7.575838886e-06	3.350000000e-02	1.896452310e-01	-2.718597362e-02
-8.128390545e-11	-7.556945521e-06	3.450000000e-02	1.896454443e-01	-2.718598967e-02
-9.441219979e-11	-7.547296877e-06	3.500000000e-02	1.896455533e-01	-2.718599783e-02
-1.077016841e-10	-7.537513848e-06	3.550000000e-02	1.896456639e-01	-2.718600607e-02
-1.211511699e-10	-7.527596605e-06	3.600000000e-02	1.896457760e-01	-2.718601441e-02
-1.347594588e-10	-7.517545359e-06	3.650000000e-02	1.896458897e-01	-2.718602283e-02
-1.485253335e-10	-7.507360303e-06	3.700000000e-02	1.896460050e-01	-2.718603133e-02
-1.624475543e-10	-7.497041619e-06	3.750000000e-02	1.896461218e-01	-2.718603991e-02
-1.907560257e-10	-7.476004222e-06	3.850000000e-02	1.896463602e-01	-2.718605732e-02
-2.051397152e-10	-7.465285917e-06	3.900000000e-02	1.896464818e-01	-2.718606614e-02
-2.196746487e-10	-7.454434802e-06	3.950000000e-02	1.896466049e-01	-2.718607504e-02
-2.343595110e-10	-7.443451103e-06	4.000000000e-02	1.896467296e-01	-2.718608401e-02
-2.491929578e-10	-7.432335020e-06	4.050000000e-02	1.896468558e-01	-2.718609306e-02
-2.641736452e-10	-7.421086798e-06	4.100000000e-02	1.896469837e-01	-2.718610218e-02
-2.793002035e-10	-7.409706627e-06	4.150000000e-02	1.896471131e-01	-2.718611137e-02
-2.945712432e-10	-7.398194727e-06	4.200000000e-02	1.896472440e-01	-2.718612062e-02
-3.099853812e-10	-7.386551354e-06	4.250000000e-02	1.896473766e-01	-2.718612995e-02
-3.255411738e-10	-7.374776703e-06	4.300000000e-02	1.896475107e-01	-2.718613934e-02
-3.412372018e-10	-7.362871005e-06	4.350000000e-02	1.896476463e-01	-2.718614880e-02
-3.570720212e-10	-7.350834522e-06	4.400000000e-02	1.896477836e-01	-2.718615832e-02
-3.730441499e-10	-7.338667458e-06	4.450000000e-02	1.896479224e-01	-2.718616790e-02
-3.891521147e-10	-7.326370066e-06	4.500000000e-02	1.896480628e-01	-2.718617754e-02
-4.053944090e-10	-7.313942570e-06	4.550000000e-02	1.896482047e-01	-2.718618724e-02
-4.217695222e-10	-7.301385229e-06	4.600000000e-02	1.896483482e-01	-2.718619700e-02
-4.382759188e-10	-7.288698287e-06	4.650000000e-02	1.896484933e-01	-2.718620681e-02
-4.549120519e-10	-7.275881993e-06	4.700000000e-02	1.896486400e-01	-2.718621667e-02
-4.716763514e-10	-7.262936582e-06	4.750000000e-02	1.896487882e-01	-2.718622659e-02
-4.885672311e-10	-7.249862323e-06	4.800000000e-02	1.896489380e-01	-2.718623655e-02
-5.055831028e-10	-7.236659471e-06	4.850000000e-02	1.896490894e-01	-2.718624657e-02
-5.227223391e-10	-7.223328269e-06	4.900000000e-02	1.896492423e-01	-2.718625663e-02
-5.399833219e-10	-7.209868993e-06	4.950000000e-02	1.896493968e-01	-2.718626673e-02
-5.573643940e-10	-7.196281908e-06	5.000000000e-02	1.896495529e-01	-2.718627688e-02
-5.748638892e-10	-7.182567263e-06	5.050000000e-02	1.896497105e-01	-2.718628706e-02
-5.924801355e-10	-7.168725345e-06	5.100000000e-02	1.896498697e-01	-2.718629729e-02
-6.102114230e-10	-7.154756422e-06	5.150000000e-02	1.896500305e-01	-2.718630755e-02
-6.280560505e-10	-7.140660771e-06	5.200000000e-02	1.896501929e-01	-2.718631785e-02
-6.460122824e-10	-7.126438652e-06	5.250000000e-02	1.896503568e-01	-2.718632818e-02
-6.640783713e-10	-7.112090360e-06	5.300000000e-02	1.896505223e-01	-2.718633854e-02
-6.822525554e-10	-7.097616177e-06	5.350000000e-02	1.896506894e-01	-2.718634894e-02
-7.005330495e-10	-7.083016371e-06	5.400000000e-02	1.896508580e-01	-2.718635935e-02
-7.189180723e-10	-7.068291246e-06	5.450000000e-02	1.896510282e-01	-2.718636980e-02
-7.374058002e-10	-7.053441091e-06	5.500000000e-02	1.896512000e-01	-2.718638027e-02
-7.559944056e-10	-7.038466184e-06	5.550000000e-02	1.896513733e-01	-2.718639076e-02
-7.746820491e-10	-7.023366833e-06	5.600000000e-02	1.896515482e-01	-2.718640127e-02
-7.934668661e-10	-7.008143337e-06	5.650000000e-02	1.896517247e-01	-2.718641180e-02
-8.123469824e-10	-6.992795996e-06	5.700000000e-02	1.896519028e-01	-2.718642234e-02
-8.313205073e-10	-6.977325097e-06	5.750000000e-02	1.896520824e-01	-2.718643290e-02
-8.503855220e-10	-6.961730960e-06	5.800000000e-02	1.896522636e-01	-2.718644346e-02
-8.695401107e-10	-6.946013894e-06	5.850000000e-02	1.896524464e-01	-2.718645404e-02
-8.887823218e-10	-6.930174194e-06	5.900000000e-02	1.896526307e-01	-2.718646462e-02
-9.081102032e-10	-6.914212188e-06	5.950000000e-02	1.896528166e-01	-2.718647521e-02
-9.275217782e-10	-6.898128191e-06	6.000000000e-02	1.896530041e-01	-2.718648580e-02
-9.470150610e-10	-6.881922506e-06	6.050000000e-02	1.896531931e-01	-2.718649639e-02
-9.665880405e-10	-6.865595470e-06	6.100000000e-02	1.896533837e-01	-2.718650698e-02
-9.862386941e-10	-6.849147405e-06	6.150000000e-02	1.896535759e-01	-2.718651757e-02
-1.005964978e-09	-6.832578638e-06	6.200000000e-02	1.896537697e-01	-2.718652815e-02
-1.025764846e-09	-6.815889481e-06	6.250000000e-02	1.896539650e-01	-2.718653872e-02
-1.045636225e-09	-6.799080281e-06	6.300000000e-02	1.896541619e-01	-2.718654928e-02
-1.065577021e-09	-6.782151371e-06	6.350000000e-02	1.896543604e-01	-2.718655983e-02
-1.085585133e-09	-6.765103073e-06	6.400000000e-02	1.896545604e-01	-2.718657036e-02
-1.105658447e-09	-6.747935754e-06	6.450000000e-02	1.896547621e-01	-2.718658088e-02
-1.125794818e-09	-6.730649712e-06	6.500000000e-02	1.896549652e-01	-2.718659137e-02
-1.145992097e-09	-6.713245335e-06	6.550000000e-02	1.896551700e-01	-2.718660185e-02
-1.166248121e-09	-6.695722939e-06	6.600000000e-02	1.896553763e-01	-2.718661230e-02
-1.186560697e-09	-6.678082888e-06	6.650000000e-02	1.896555842e-01	-2.718662272e-02
-1.206927634e-09	-6.660325534e-06	6.700000000e-02	1.896557937e-01	-2.718663311e-02
-1.227346712e-09	-6.642451215e-06	6.750000000e-02	1.896560047e-01	-2.718664347e-02
-1.247815698e-09	-6.624460304e-06	6.800000000e-02	1.896562173e-01	-2.718665379e-02
-1.268332345e-09	-6.606353158e-06	6.850000000e-02	1.896564315e-01	-2.718666408e-02
-1.288894391e-09	-6.588130139e-06	6.900000000e-02	1.896566473e-01	-2.718667433e-02
-1.309499547e-09	-6.569791598e-06	6.950000000e-02	1.896568646e-01	-2.718668453e-02
-1.330145526e-09	-6.551337915e-06	7.000000000e-02	1.896570835e-01	-2.718669470e-02
-1.350830017e-09	-6.532769458e-06	7.050000000e-02	1.896573040e-01	-2.718670481e-02
-1.371550678e-09	-6.514086587e-06	7.100000000e-02	1.896575260e-01	-2.718671488e-02
-1.392305185e-09	-6.495289688e-06	7.150000000e-02	1.896577496e-01	-2.718672489e-02
-1.413091160e-09	-6.476379140e-06	7.200000000e-02	1.896579748e-01	-2.718673485e-02
-1.433906247e-09	-6.457355320e-06	7.250000000e-02	1.896582016e-01	-2.718674475e-02
-1.454748035e-09	-6.438218597e-06	7.300000000e-02	1.896584299e-01	-2.718675459e-02
-1.496502095e-09	-6.399608023e-06	7.400000000e-02	1.896588913e-01	-2.718677408e-02
-1.517409502e-09	-6.380134933e-06	7.450000000e-02	1.896591243e-01	-2.718678372e-02
-1.538333892e-09	-6.360550507e-06	7.500000000e-02	1.896593589e-01	-2.718679329e-02
-1.559272802e-09	-6.340855137e-06	7.550000000e-02	1.896595951e-01	-2.718680279e-02
-1.580223735e-09	-6.321049222e-06	7.600000000e-02	1.896598329e-01	-2.718681222e-02
-1.601184192e-09	-6.301133146e-06	7.650000000e-02	1.896600722e-01	-2.718682156e-02
-1.622151653e-09	-6.281107324e-06	7.700000000e-02	1.896603131e-01	-2.718683082e-02
-1.643123588e-09	-6.260972162e-06	7.750000000e-02	1.896605556e-01	-2.718684000e-02
-1.664097444e-09	-6.240728052e-06	7.800000000e-02	1.896607996e-01	-2.718684909e-02
-1.685070663e-09	-6.220375431e-06	7.850000000e-02	1.896610453e-01	-2.718685809e-02
-1.706040657e-09	-6.199914683e-06	7.900000000e-02	1.896612925e-01	-2.718686699e-02
-1.727004824e-09	-6.179346222e-06	7.950000000e-02	1.896615412e-01	-2.718687580e-02
-1.747960574e-09	-6.158670493e-06	8.000000000e-02	1.896617916e-01	-2.718688451e-02
-1.789836218e-09	-6.116998839e-06	8.100000000e-02	1.896622970e-01	-2.718690163e-02
-1.810750831e-09	-6.096003761e-06	8.150000000e-02	1.896625520e-01	-2.718691002e-02
-1.852520243e-09	-6.053697260e-06	8.250000000e-02	1.896630668e-01	-2.718692648e-02
-1.873369656e-09	-6.032386699e-06	8.300000000e-02	1.896633266e-01	-2.718693453e-02
-1.894191908e-09	-6.010971841e-06	8.350000000e-02	1.896635880e-01	-2.718694246e-02
-1.914984263e-09	-5.989453110e-06	8.400000000e-02	1.896638509e-01	-2.718695027e-02
-1.935743971e-09	-5.967830958e-06	8.450000000e-02	1.896641154e-01	-2.718695796e-02
-1.956468267e-09	-5.946105826e-06	8.500000000e-02	1.896643815e-01	-2.718696551e-02
-1.977154359e-09	-5.924278144e-06	8.550000000e-02	1.896646491e-01	-2.718697294e-02
-1.997799452e-09	-5.902348373e-06	8.600000000e-02	1.896649183e-01	-2.718698022e-02
-2.018400736e-09	-5.880316960e-06	8.650000000e-02	1.896651891e-01	-2.718698737e-02
-2.038955375e-09	-5.858184357e-06	8.700000000e-02	1.896654615e-01	-2.718699438e-02
-2.059460529e-09	-5.835951005e-06	8.750000000e-02	1.896657354e-01	-2.718700124e-02
-2.079913332e-09	-5.813617371e-06	8.800000000e-02	1.896660109e-01	-2.718700796e-02
-2.120650359e-09	-5.768651097e-06	8.900000000e-02	1.896665667e-01	-2.718702093e-02
-2.140928781e-09	-5.746019368e-06	8.950000000e-02	1.896668469e-01	-2.718702718e-02
-2.161143269e-09	-5.723289206e-06	9.000000000e-02	1.896671287e-01	-2.718703327e-02
-2.181290865e-09	-5.700461079e-06	9.050000000e-02	1.896674121e-01	-2.718703919e-02
-2.201368623e-09	-5.677535458e-06	9.100000000e-02	1.896676971e-01	-2.718704495e-02
-2.221373568e-09	-5.654512803e-06	9.150000000e-02	1.896679836e-01	-2.718705054e-02
-2.241302725e-09	-5.631393601e-06	9.200000000e-02	1.896682717e-01	-2.718705595e-02
-2.261153090e-09	-5.608178331e-06	9.250000000e-02	1.896685614e-01	-2.718706118e-02
-2.280921655e-09	-5.584867459e-06	9.300000000e-02	1.896688526e-01	-2.718706623e-02
-2.300605379e-09	-5.561461495e-06	9.350000000e-02	1.896691455e-01	-2.718707110e-02
-2.320201230e-09	-5.537960896e-06	9.400000000e-02	1.896694399e-01	-2.718707578e-02
-2.339706134e-09	-5.514366151e-06	9.450000000e-02	1.896697358e-01	-2.718708027e-02
-2.359117024e-09	-5.490677774e-06	9.500000000e-02	1.896700334e-01	-2.718708456e-02
-2.397644389e-09	-5.443022033e-06	9.600000000e-02	1.896706332e-01	-2.718709255e-02
-2.416754643e-09	-5.419055673e-06	9.650000000e-02	1.896709355e-01	-2.718709624e-02
-2.435758422e-09	-5.394997651e-06	9.700000000e-02	1.896712394e-01	-2.718709972e-02
-2.454652585e-09	-5.370848456e-06	9.750000000e-02	1.896715448e-01	-2.718710298e-02
-2.473433971e-09	-5.346608604e-06	9.800000000e-02	1.896718518e-01	-2.718710603e-02
-2.492099388e-09	-5.322278603e-06	9.850000000e-02	1.896721604e-01	-2.718710886e-02
-2.510645642e-09	-5.297858947e-06	9.900000000e-02	1.896724705e-01	-2.718711147e-02
-2.547367821e-09	-5.248752770e-06	1.000000000e-01	1.896730956e-01	-2.718711600e-02
-2.565537269e-09	-5.224067253e-06	1.005000000e-01	1.896734104e-01	-2.718711792e-02
-2.583574631e-09	-5.199294165e-06	1.010000000e-01	1.896737269e-01	-2.718711959e-02
-2.601476622e-09	-5.174434001e-06	1.015000000e-01	1.896740449e-01	-2.718712103e-02
-2.619239974e-09	-5.149487309e-06	1.020000000e-01	1.896743646e-01	-2.718712222e-02
-2.636861364e-09	-5.124454578e-06	1.025000000e-01	1.896746857e-01	-2.718712316e-02
-2.654337492e-09	-5.099336371e-06	1.030000000e-01	1.896750085e-01	-2.718712385e-02
-2.705860921e-09	-5.023474106e-06	1.045000000e-01	1.896759863e-01	-2.718712436e-02
-2.722722526e-09	-4.998019244e-06	1.050000000e-01	1.896763153e-01	-2.718712400e-02
-2.739422079e-09	-4.972481577e-06	1.055000000e-01	1.896766460e-01	-2.718712337e-02
-2.755956162e-09	-4.946861624e-06	1.060000000e-01	1.896769782e-01	-2.718712246e-02
-2.772321355e-09	-4.921159940e-06	1.065000000e-01	1.896773120e-01	-2.718712127e-02
-2.788514226e-09	-4.895377070e-06	1.070000000e-01	1.896776474e-01	-2.718711980e-02
-2.804531319e-09	-4.869513552e-06	1.075000000e-01	1.896779843e-01	-2.718711804e-02
-2.820369192e-09	-4.843569960e-06	1.080000000e-01	1.896783229e-01	-2.718711599e-02
-2.836024343e-09	-4.817546822e-06	1.085000000e-01	1.896786630e-01	-2.718711364e-02
-2.881858539e-09	-4.739005759e-06	1.100000000e-01	1.896796928e-01	-2.718710479e-02
-2.896747770e-09	-4.712670050e-06	1.105000000e-01	1.896800392e-01	-2.718710122e-02
-2.925921724e-09	-4.659768994e-06	1.115000000e-01	1.896807368e-01	-2.718709313e-02
-2.954265793e-09	-4.606565531e-06	1.125000000e-01	1.896814407e-01	-2.718708375e-02
-2.968117634e-09	-4.579851824e-06	1.130000000e-01	1.896817950e-01	-2.718707856e-02
-2.981751184e-09	-4.553064238e-06	1.135000000e-01	1.896821509e-01	-2.718707303e-02
-3.008348840e-09	-4.499269729e-06	1.145000000e-01	1.896828674e-01	-2.718706096e-02
-3.021305635e-09	-4.472263981e-06	1.150000000e-01	1.896832281e-01	-2.718705440e-02
-3.034029496e-09	-4.445186667e-06	1.155000000e-01	1.896835903e-01	-2.718704749e-02
-3.046516740e-09	-4.418038385e-06	1.160000000e-01	1.896839541e-01	-2.718704022e-02
-3.058763641e-09	-4.390819713e-06	1.165000000e-01	1.896843194e-01	-2.718703259e-02
-3.070766497e-09	-4.363531266e-06	1.170000000e-01	1.896846864e-01	-2.718702460e-02
-3.082521550e-09	-4.336173614e-06	1.175000000e-01	1.896850549e-01	-2.718701623e-02
-3.105273260e-09	-4.281253114e-06	1.185000000e-01	1.896857967e-01	-2.718699837e-02
-3.116262363e-09	-4.253691464e-06	1.190000000e-01	1.896861700e-01	-2.718698887e-02
-3.126988574e-09	-4.226063007e-06	1.195000000e-01	1.896865448e-01	-2.718697898e-02
-3.137448096e-09	-4.198368368e-06	1.200000000e-01	1.896869213e-01	-2.718696870e-02
-3.157551729e-09	-4.142782920e-06	1.210000000e-01	1.896876789e-01	-2.718694694e-02
-3.167188160e-09	-4.114893342e-06	1.215000000e-01	1.896880601e-01	-2.718693546e-02
-3.176542506e-09	-4.086940003e-06	1.220000000e-01	1.896884428e-01	-2.718692357e-02
-3.194389456e-09	-4.030844543e-06	1.230000000e-01	1.896892131e-01	-2.718689853e-02
-3.202874252e-09	-4.002703650e-06	1.235000000e-01	1.896896006e-01	-2.718688538e-02
-3.211061360e-09	-3.974501471e-06	1.240000000e-01	1.896899896e-01	-2.718687180e-02
-3.218946867e-09	-3.946238651e-06	1.245000000e-01	1.896903803e-01	-2.718685779e-02
-3.226526802e-09	-3.917915795e-06	1.250000000e-01	1.896907725e-01	-2.718684335e-02
-3.233797224e-09	-3.889533554e-06	1.255000000e-01	1.896911664e-01	-2.718682846e-02
-3.240754136e-09	-3.861092537e-06	1.260000000e-01	1.896915618e-01	-2.718681312e-02
-3.247393553e-09	-3.832593387e-06	1.265000000e-01	1.896919588e-01	-2.718679733e-02
-3.253711471e-09	-3.804036730e-06	1.270000000e-01	1.896923573e-01	-2.718678109e-02
-3.270695983e-09	-3.718028181e-06	1.285000000e-01	1.896935626e-01	-2.718672959e-02
-3.280337454e-09	-3.660413391e-06	1.295000000e-01	1.896943740e-01	-2.718669288e-02
