# Re(D2)     Im(D2)     kz [eV]     Omega/c [1/micrones]    Im(epsi1).Opt det con kz, R=0.5 \mum, Re(epsi1)=3.90, $\mu_c$ = 0.300 eV, find_best_pol2.py
-7.034246249e-11	-1.963205073e-08	0.000000000e+00	2.321350251e-01	-2.825804208e-02
-7.034209142e-11	-1.963187646e-08	5.000000000e-04	2.321350255e-01	-2.825804211e-02
-7.034097907e-11	-1.963135375e-08	1.000000000e-03	2.321350269e-01	-2.825804221e-02
-7.033912441e-11	-1.963048252e-08	1.500000000e-03	2.321350291e-01	-2.825804236e-02
-7.033652842e-11	-1.962926280e-08	2.000000000e-03	2.321350321e-01	-2.825804258e-02
-7.033319009e-11	-1.962769472e-08	2.500000000e-03	2.321350361e-01	-2.825804286e-02
-7.032911013e-11	-1.962577823e-08	3.000000000e-03	2.321350409e-01	-2.825804320e-02
-7.032428838e-11	-1.962351348e-08	3.500000000e-03	2.321350467e-01	-2.825804361e-02
-7.031872472e-11	-1.962090045e-08	4.000000000e-03	2.321350533e-01	-2.825804408e-02
-7.031241870e-11	-1.961793921e-08	4.500000000e-03	2.321350607e-01	-2.825804461e-02
-7.030537061e-11	-1.961462996e-08	5.000000000e-03	2.321350691e-01	-2.825804520e-02
-7.029758011e-11	-1.961097269e-08	5.500000000e-03	2.321350783e-01	-2.825804586e-02
-7.028904792e-11	-1.960696761e-08	6.000000000e-03	2.321350885e-01	-2.825804657e-02
-7.027977271e-11	-1.960261474e-08	6.500000000e-03	2.321350995e-01	-2.825804735e-02
-7.026975506e-11	-1.959791421e-08	7.000000000e-03	2.321351113e-01	-2.825804820e-02
-7.025899475e-11	-1.959286628e-08	7.500000000e-03	2.321351241e-01	-2.825804910e-02
-7.023524607e-11	-1.958172857e-08	8.500000000e-03	2.321351523e-01	-2.825805110e-02
-7.022225718e-11	-1.957563914e-08	9.000000000e-03	2.321351677e-01	-2.825805219e-02
-7.020852433e-11	-1.956920286e-08	9.500000000e-03	2.321351839e-01	-2.825805334e-02
-7.019404919e-11	-1.956242003e-08	1.000000000e-02	2.321352011e-01	-2.825805456e-02
-7.017882958e-11	-1.955529075e-08	1.050000000e-02	2.321352191e-01	-2.825805584e-02
-7.016286678e-11	-1.954781534e-08	1.100000000e-02	2.321352381e-01	-2.825805718e-02
-7.014615954e-11	-1.953999393e-08	1.150000000e-02	2.321352579e-01	-2.825805858e-02
-7.012870826e-11	-1.953182674e-08	1.200000000e-02	2.321352785e-01	-2.825806005e-02
-7.011051284e-11	-1.952331412e-08	1.250000000e-02	2.321353001e-01	-2.825806158e-02
-7.009157251e-11	-1.951445624e-08	1.300000000e-02	2.321353225e-01	-2.825806317e-02
-7.007188736e-11	-1.950525345e-08	1.350000000e-02	2.321353459e-01	-2.825806482e-02
-7.005145731e-11	-1.949570593e-08	1.400000000e-02	2.321353701e-01	-2.825806654e-02
-7.003028180e-11	-1.948581403e-08	1.450000000e-02	2.321353952e-01	-2.825806832e-02
-7.000836087e-11	-1.947557798e-08	1.500000000e-02	2.321354211e-01	-2.825807016e-02
-6.998569362e-11	-1.946499820e-08	1.550000000e-02	2.321354480e-01	-2.825807206e-02
-6.996228045e-11	-1.945407490e-08	1.600000000e-02	2.321354757e-01	-2.825807403e-02
-6.993812125e-11	-1.944280847e-08	1.650000000e-02	2.321355043e-01	-2.825807605e-02
-6.991321499e-11	-1.943119925e-08	1.700000000e-02	2.321355338e-01	-2.825807814e-02
-6.988756167e-11	-1.941924752e-08	1.750000000e-02	2.321355641e-01	-2.825808030e-02
-6.986116123e-11	-1.940695377e-08	1.800000000e-02	2.321355954e-01	-2.825808251e-02
-6.983401340e-11	-1.939431824e-08	1.850000000e-02	2.321356275e-01	-2.825808479e-02
-6.980611719e-11	-1.938134138e-08	1.900000000e-02	2.321356605e-01	-2.825808713e-02
-6.977747305e-11	-1.936802358e-08	1.950000000e-02	2.321356944e-01	-2.825808953e-02
-6.974807997e-11	-1.935436518e-08	2.000000000e-02	2.321357291e-01	-2.825809199e-02
-6.971793819e-11	-1.934036671e-08	2.050000000e-02	2.321357648e-01	-2.825809452e-02
-6.968704695e-11	-1.932602847e-08	2.100000000e-02	2.321358013e-01	-2.825809711e-02
-6.962301526e-11	-1.929633462e-08	2.200000000e-02	2.321358770e-01	-2.825810248e-02
-6.958987394e-11	-1.928097984e-08	2.250000000e-02	2.321359161e-01	-2.825810525e-02
-6.952133831e-11	-1.924925707e-08	2.350000000e-02	2.321359971e-01	-2.825811099e-02
-6.948594317e-11	-1.923288997e-08	2.400000000e-02	2.321360389e-01	-2.825811396e-02
-6.944979635e-11	-1.921618641e-08	2.450000000e-02	2.321360816e-01	-2.825811698e-02
-6.941289683e-11	-1.919914684e-08	2.500000000e-02	2.321361251e-01	-2.825812007e-02
-6.937524500e-11	-1.918177187e-08	2.550000000e-02	2.321361696e-01	-2.825812322e-02
-6.933683902e-11	-1.916406193e-08	2.600000000e-02	2.321362149e-01	-2.825812643e-02
-6.929767982e-11	-1.914601760e-08	2.650000000e-02	2.321362611e-01	-2.825812971e-02
-6.925776651e-11	-1.912763942e-08	2.700000000e-02	2.321363082e-01	-2.825813305e-02
-6.921709824e-11	-1.910892796e-08	2.750000000e-02	2.321363562e-01	-2.825813645e-02
-6.917567543e-11	-1.908988373e-08	2.800000000e-02	2.321364050e-01	-2.825813991e-02
-6.913349664e-11	-1.907050736e-08	2.850000000e-02	2.321364547e-01	-2.825814343e-02
-6.909056194e-11	-1.905079942e-08	2.900000000e-02	2.321365053e-01	-2.825814702e-02
-6.904687058e-11	-1.903076052e-08	2.950000000e-02	2.321365568e-01	-2.825815067e-02
-6.900242246e-11	-1.901039126e-08	3.000000000e-02	2.321366092e-01	-2.825815438e-02
-6.895721707e-11	-1.898969220e-08	3.050000000e-02	2.321366624e-01	-2.825815816e-02
-6.886453123e-11	-1.894730739e-08	3.150000000e-02	2.321367715e-01	-2.825816589e-02
-6.881705028e-11	-1.892562291e-08	3.200000000e-02	2.321368274e-01	-2.825816985e-02
-6.876880995e-11	-1.890361125e-08	3.250000000e-02	2.321368842e-01	-2.825817388e-02
-6.871980924e-11	-1.888127303e-08	3.300000000e-02	2.321369418e-01	-2.825817796e-02
-6.861952613e-11	-1.883561978e-08	3.400000000e-02	2.321370597e-01	-2.825818632e-02
-6.856824232e-11	-1.881230613e-08	3.450000000e-02	2.321371200e-01	-2.825819059e-02
-6.846338765e-11	-1.876470826e-08	3.550000000e-02	2.321372432e-01	-2.825819933e-02
-6.840981622e-11	-1.874042554e-08	3.600000000e-02	2.321373062e-01	-2.825820379e-02
-6.824451561e-11	-1.866565078e-08	3.750000000e-02	2.321375002e-01	-2.825821754e-02
-6.818788502e-11	-1.864008622e-08	3.800000000e-02	2.321375666e-01	-2.825822225e-02
-6.813048826e-11	-1.861420319e-08	3.850000000e-02	2.321376340e-01	-2.825822702e-02
-6.807232504e-11	-1.858800238e-08	3.900000000e-02	2.321377022e-01	-2.825823186e-02
-6.801339465e-11	-1.856148462e-08	3.950000000e-02	2.321377713e-01	-2.825823676e-02
-6.795369632e-11	-1.853465069e-08	4.000000000e-02	2.321378412e-01	-2.825824171e-02
-6.789322926e-11	-1.850750149e-08	4.050000000e-02	2.321379121e-01	-2.825824674e-02
-6.783199327e-11	-1.848003775e-08	4.100000000e-02	2.321379838e-01	-2.825825182e-02
-6.776998770e-11	-1.845226036e-08	4.150000000e-02	2.321380564e-01	-2.825825697e-02
-6.770721212e-11	-1.842417015e-08	4.200000000e-02	2.321381299e-01	-2.825826217e-02
-6.764366532e-11	-1.839576794e-08	4.250000000e-02	2.321382042e-01	-2.825826745e-02
-6.757934738e-11	-1.836705468e-08	4.300000000e-02	2.321382795e-01	-2.825827278e-02
-6.751425698e-11	-1.833803116e-08	4.350000000e-02	2.321383556e-01	-2.825827817e-02
-6.744839364e-11	-1.830869831e-08	4.400000000e-02	2.321384326e-01	-2.825828363e-02
-6.738175726e-11	-1.827905701e-08	4.450000000e-02	2.321385105e-01	-2.825828915e-02
-6.731434720e-11	-1.824910813e-08	4.500000000e-02	2.321385892e-01	-2.825829473e-02
-6.724616236e-11	-1.821885267e-08	4.550000000e-02	2.321386689e-01	-2.825830038e-02
-6.717720201e-11	-1.818829147e-08	4.600000000e-02	2.321387494e-01	-2.825830609e-02
-6.710746616e-11	-1.815742549e-08	4.650000000e-02	2.321388308e-01	-2.825831186e-02
-6.703695354e-11	-1.812625568e-08	4.700000000e-02	2.321389131e-01	-2.825831769e-02
-6.696566365e-11	-1.809478296e-08	4.750000000e-02	2.321389962e-01	-2.825832358e-02
-6.689359637e-11	-1.806300836e-08	4.800000000e-02	2.321390803e-01	-2.825832954e-02
-6.682075058e-11	-1.803093277e-08	4.850000000e-02	2.321391652e-01	-2.825833556e-02
-6.674712557e-11	-1.799855721e-08	4.900000000e-02	2.321392510e-01	-2.825834164e-02
-6.667272105e-11	-1.796588268e-08	4.950000000e-02	2.321393377e-01	-2.825834778e-02
-6.659753604e-11	-1.793291016e-08	5.000000000e-02	2.321394253e-01	-2.825835399e-02
-6.652156989e-11	-1.789964064e-08	5.050000000e-02	2.321395137e-01	-2.825836025e-02
-6.644482228e-11	-1.786607516e-08	5.100000000e-02	2.321396030e-01	-2.825836659e-02
-6.636729239e-11	-1.783221476e-08	5.150000000e-02	2.321396932e-01	-2.825837298e-02
-6.628897936e-11	-1.779806047e-08	5.200000000e-02	2.321397843e-01	-2.825837943e-02
-6.620988311e-11	-1.776361334e-08	5.250000000e-02	2.321398763e-01	-2.825838595e-02
-6.613000221e-11	-1.772887437e-08	5.300000000e-02	2.321399691e-01	-2.825839253e-02
-6.596788560e-11	-1.765852535e-08	5.400000000e-02	2.321401574e-01	-2.825840588e-02
-6.588564838e-11	-1.762291745e-08	5.450000000e-02	2.321402529e-01	-2.825841264e-02
-6.580262419e-11	-1.758702208e-08	5.500000000e-02	2.321403493e-01	-2.825841947e-02
-6.571881248e-11	-1.755084030e-08	5.550000000e-02	2.321404465e-01	-2.825842636e-02
-6.563421257e-11	-1.751437325e-08	5.600000000e-02	2.321405446e-01	-2.825843332e-02
-6.554882399e-11	-1.747762207e-08	5.650000000e-02	2.321406436e-01	-2.825844033e-02
-6.546264599e-11	-1.744058788e-08	5.700000000e-02	2.321407435e-01	-2.825844741e-02
-6.537567798e-11	-1.740327182e-08	5.750000000e-02	2.321408443e-01	-2.825845455e-02
-6.528791909e-11	-1.736567499e-08	5.800000000e-02	2.321409459e-01	-2.825846175e-02
-6.519936883e-11	-1.732779859e-08	5.850000000e-02	2.321410484e-01	-2.825846902e-02
-6.511002669e-11	-1.728964379e-08	5.900000000e-02	2.321411518e-01	-2.825847635e-02
-6.501989190e-11	-1.725121177e-08	5.950000000e-02	2.321412561e-01	-2.825848373e-02
-6.492896401e-11	-1.721250371e-08	6.000000000e-02	2.321413613e-01	-2.825849119e-02
-6.483724179e-11	-1.717352075e-08	6.050000000e-02	2.321414673e-01	-2.825849870e-02
-6.474472555e-11	-1.713426419e-08	6.100000000e-02	2.321415743e-01	-2.825850628e-02
-6.465141375e-11	-1.709473516e-08	6.150000000e-02	2.321416821e-01	-2.825851392e-02
-6.455730636e-11	-1.705493486e-08	6.200000000e-02	2.321417907e-01	-2.825852162e-02
-6.446240255e-11	-1.701486462e-08	6.250000000e-02	2.321419003e-01	-2.825852938e-02
-6.436670172e-11	-1.697452559e-08	6.300000000e-02	2.321420107e-01	-2.825853721e-02
-6.427020328e-11	-1.693391910e-08	6.350000000e-02	2.321421221e-01	-2.825854509e-02
-6.417290667e-11	-1.689304632e-08	6.400000000e-02	2.321422343e-01	-2.825855304e-02
-6.407481103e-11	-1.685190852e-08	6.450000000e-02	2.321423473e-01	-2.825856106e-02
-6.397591605e-11	-1.681050705e-08	6.500000000e-02	2.321424613e-01	-2.825856913e-02
-6.387622113e-11	-1.676884311e-08	6.550000000e-02	2.321425761e-01	-2.825857727e-02
-6.377572572e-11	-1.672691808e-08	6.600000000e-02	2.321426919e-01	-2.825858547e-02
-6.367442878e-11	-1.668473317e-08	6.650000000e-02	2.321428085e-01	-2.825859373e-02
-6.357233002e-11	-1.664228969e-08	6.700000000e-02	2.321429259e-01	-2.825860205e-02
-6.346942918e-11	-1.659958904e-08	6.750000000e-02	2.321430443e-01	-2.825861044e-02
-6.336572525e-11	-1.655663246e-08	6.800000000e-02	2.321431635e-01	-2.825861889e-02
-6.304979065e-11	-1.642624079e-08	6.950000000e-02	2.321435265e-01	-2.825864461e-02
-6.294286945e-11	-1.638227409e-08	7.000000000e-02	2.321436493e-01	-2.825865330e-02
-6.283514273e-11	-1.633805822e-08	7.050000000e-02	2.321437729e-01	-2.825866206e-02
-6.272660989e-11	-1.629359464e-08	7.100000000e-02	2.321438975e-01	-2.825867088e-02
-6.261727027e-11	-1.624888464e-08	7.150000000e-02	2.321440229e-01	-2.825867977e-02
-6.250712319e-11	-1.620392963e-08	7.200000000e-02	2.321441491e-01	-2.825868872e-02
-6.239616870e-11	-1.615873109e-08	7.250000000e-02	2.321442763e-01	-2.825869772e-02
-6.228440584e-11	-1.611329035e-08	7.300000000e-02	2.321444043e-01	-2.825870680e-02
-6.217183416e-11	-1.606760886e-08	7.350000000e-02	2.321445332e-01	-2.825871593e-02
-6.205845330e-11	-1.602168806e-08	7.400000000e-02	2.321446630e-01	-2.825872512e-02
-6.194426312e-11	-1.597552937e-08	7.450000000e-02	2.321447937e-01	-2.825873438e-02
-6.182926252e-11	-1.592913425e-08	7.500000000e-02	2.321449253e-01	-2.825874370e-02
-6.171345139e-11	-1.588250410e-08	7.550000000e-02	2.321450577e-01	-2.825875308e-02
-6.159682928e-11	-1.583564043e-08	7.600000000e-02	2.321451910e-01	-2.825876253e-02
-6.147939577e-11	-1.578854470e-08	7.650000000e-02	2.321453252e-01	-2.825877203e-02
-6.136115037e-11	-1.574121838e-08	7.700000000e-02	2.321454603e-01	-2.825878160e-02
-6.124209257e-11	-1.569366298e-08	7.750000000e-02	2.321455963e-01	-2.825879123e-02
-6.112222229e-11	-1.564587992e-08	7.800000000e-02	2.321457331e-01	-2.825880093e-02
-6.088004170e-11	-1.554963702e-08	7.900000000e-02	2.321460094e-01	-2.825882050e-02
-6.075773115e-11	-1.550118019e-08	7.950000000e-02	2.321461489e-01	-2.825883038e-02
-6.063460637e-11	-1.545250181e-08	8.000000000e-02	2.321462893e-01	-2.825884032e-02
-6.038591259e-11	-1.535448645e-08	8.100000000e-02	2.321465726e-01	-2.825886040e-02
-6.026034318e-11	-1.530515259e-08	8.150000000e-02	2.321467156e-01	-2.825887052e-02
-6.013395853e-11	-1.525560337e-08	8.200000000e-02	2.321468595e-01	-2.825888072e-02
-6.000675784e-11	-1.520584029e-08	8.250000000e-02	2.321470042e-01	-2.825889097e-02
-5.987874122e-11	-1.515586501e-08	8.300000000e-02	2.321471499e-01	-2.825890129e-02
-5.974990838e-11	-1.510567903e-08	8.350000000e-02	2.321472964e-01	-2.825891166e-02
-5.962025887e-11	-1.505528398e-08	8.400000000e-02	2.321474438e-01	-2.825892210e-02
-5.935850964e-11	-1.495387302e-08	8.500000000e-02	2.321477412e-01	-2.825894317e-02
-5.922640946e-11	-1.490286035e-08	8.550000000e-02	2.321478913e-01	-2.825895380e-02
-5.909349177e-11	-1.485164500e-08	8.600000000e-02	2.321480422e-01	-2.825896449e-02
-5.895975658e-11	-1.480022863e-08	8.650000000e-02	2.321481940e-01	-2.825897524e-02
-5.882520349e-11	-1.474861283e-08	8.700000000e-02	2.321483466e-01	-2.825898605e-02
-5.868983284e-11	-1.469679933e-08	8.750000000e-02	2.321485002e-01	-2.825899693e-02
-5.855364398e-11	-1.464478969e-08	8.800000000e-02	2.321486546e-01	-2.825900786e-02
-5.827881238e-11	-1.454018874e-08	8.900000000e-02	2.321489661e-01	-2.825902993e-02
-5.814016917e-11	-1.448760076e-08	8.950000000e-02	2.321491232e-01	-2.825904105e-02
-5.786042816e-11	-1.438185816e-08	9.050000000e-02	2.321494400e-01	-2.825906349e-02
-5.771933020e-11	-1.432870691e-08	9.100000000e-02	2.321495997e-01	-2.825907480e-02
-5.757741374e-11	-1.427537131e-08	9.150000000e-02	2.321497603e-01	-2.825908617e-02
-5.729112620e-11	-1.416815383e-08	9.250000000e-02	2.321500841e-01	-2.825910910e-02
-5.714675527e-11	-1.411427543e-08	9.300000000e-02	2.321502474e-01	-2.825912066e-02
-5.700156603e-11	-1.406021950e-08	9.350000000e-02	2.321504115e-01	-2.825913229e-02
-5.685555889e-11	-1.400598783e-08	9.400000000e-02	2.321505765e-01	-2.825914397e-02
-5.670873377e-11	-1.395158211e-08	9.450000000e-02	2.321507423e-01	-2.825915572e-02
-5.656109111e-11	-1.389700417e-08	9.500000000e-02	2.321509091e-01	-2.825916752e-02
-5.641263064e-11	-1.384225569e-08	9.550000000e-02	2.321510767e-01	-2.825917940e-02
-5.626335296e-11	-1.378733847e-08	9.600000000e-02	2.321512452e-01	-2.825919133e-02
-5.611325821e-11	-1.373225429e-08	9.650000000e-02	2.321514146e-01	-2.825920332e-02
-5.596234655e-11	-1.367700491e-08	9.700000000e-02	2.321515849e-01	-2.825921538e-02
-5.581061780e-11	-1.362159209e-08	9.750000000e-02	2.321517560e-01	-2.825922750e-02
-5.565807323e-11	-1.356601769e-08	9.800000000e-02	2.321519281e-01	-2.825923968e-02
-5.519554365e-11	-1.339834265e-08	9.950000000e-02	2.321524494e-01	-2.825927660e-02
-5.503973692e-11	-1.334213979e-08	1.000000000e-01	2.321526250e-01	-2.825928903e-02
-5.488311525e-11	-1.328578434e-08	1.005000000e-01	2.321528014e-01	-2.825930152e-02
-5.472567962e-11	-1.322927816e-08	1.010000000e-01	2.321529787e-01	-2.825931408e-02
-5.456743015e-11	-1.317262308e-08	1.015000000e-01	2.321531569e-01	-2.825932669e-02
-5.440836758e-11	-1.311582096e-08	1.020000000e-01	2.321533360e-01	-2.825933937e-02
-5.424849235e-11	-1.305887360e-08	1.025000000e-01	2.321535159e-01	-2.825935212e-02
-5.408780490e-11	-1.300178291e-08	1.030000000e-01	2.321536967e-01	-2.825936492e-02
-5.392630586e-11	-1.294455074e-08	1.035000000e-01	2.321538784e-01	-2.825937778e-02
-5.360087534e-11	-1.282966946e-08	1.045000000e-01	2.321542445e-01	-2.825940370e-02
-5.343694537e-11	-1.277202408e-08	1.050000000e-01	2.321544288e-01	-2.825941675e-02
-5.327220635e-11	-1.271424477e-08	1.055000000e-01	2.321546141e-01	-2.825942987e-02
-5.310665876e-11	-1.265633337e-08	1.060000000e-01	2.321548002e-01	-2.825944304e-02
-5.277314186e-11	-1.254012196e-08	1.070000000e-01	2.321551750e-01	-2.825946958e-02
-5.226682406e-11	-1.236486212e-08	1.085000000e-01	2.321557439e-01	-2.825950986e-02
-5.209644347e-11	-1.230619847e-08	1.090000000e-01	2.321559353e-01	-2.825952341e-02
-5.192526045e-11	-1.224741617e-08	1.095000000e-01	2.321561275e-01	-2.825953702e-02
-5.175327595e-11	-1.218851723e-08	1.100000000e-01	2.321563207e-01	-2.825955069e-02
-5.140690661e-11	-1.207037707e-08	1.110000000e-01	2.321567096e-01	-2.825957823e-02
-5.123252401e-11	-1.201113980e-08	1.115000000e-01	2.321569054e-01	-2.825959209e-02
-5.105734407e-11	-1.195179369e-08	1.120000000e-01	2.321571021e-01	-2.825960601e-02
-5.070459705e-11	-1.183278280e-08	1.130000000e-01	2.321574980e-01	-2.825963404e-02
-5.052703226e-11	-1.177312202e-08	1.135000000e-01	2.321576973e-01	-2.825964815e-02
-5.034867506e-11	-1.171336034e-08	1.140000000e-01	2.321578975e-01	-2.825966232e-02
-5.016952687e-11	-1.165349975e-08	1.145000000e-01	2.321580986e-01	-2.825967655e-02
-4.980886209e-11	-1.153348980e-08	1.155000000e-01	2.321585033e-01	-2.825970520e-02
-4.944504931e-11	-1.141310832e-08	1.165000000e-01	2.321589116e-01	-2.825973411e-02
-4.926196583e-11	-1.135278329e-08	1.170000000e-01	2.321591170e-01	-2.825974865e-02
-4.907809989e-11	-1.129237148e-08	1.175000000e-01	2.321593234e-01	-2.825976325e-02
-4.889345290e-11	-1.123187487e-08	1.180000000e-01	2.321595306e-01	-2.825977792e-02
-4.870802650e-11	-1.117129553e-08	1.185000000e-01	2.321597387e-01	-2.825979265e-02
-4.833484204e-11	-1.104989684e-08	1.195000000e-01	2.321601575e-01	-2.825982230e-02
-4.795856041e-11	-1.092819187e-08	1.205000000e-01	2.321605799e-01	-2.825985219e-02
-4.757919574e-11	-1.080619710e-08	1.215000000e-01	2.321610057e-01	-2.825988234e-02
-4.738836223e-11	-1.074509627e-08	1.220000000e-01	2.321612200e-01	-2.825989750e-02
-4.719676363e-11	-1.068392920e-08	1.225000000e-01	2.321614351e-01	-2.825991273e-02
-4.700440202e-11	-1.062269802e-08	1.230000000e-01	2.321616511e-01	-2.825992802e-02
-4.681127957e-11	-1.056140482e-08	1.235000000e-01	2.321618680e-01	-2.825994337e-02
-4.642276044e-11	-1.043864079e-08	1.245000000e-01	2.321623045e-01	-2.825997426e-02
-4.603122357e-11	-1.031565389e-08	1.255000000e-01	2.321627444e-01	-2.826000540e-02
-4.583432909e-11	-1.025408218e-08	1.260000000e-01	2.321629657e-01	-2.826002106e-02
-4.563668718e-11	-1.019246113e-08	1.265000000e-01	2.321631879e-01	-2.826003678e-02
-4.543829997e-11	-1.013079284e-08	1.270000000e-01	2.321634109e-01	-2.826005257e-02
-4.523917020e-11	-1.006907946e-08	1.275000000e-01	2.321636348e-01	-2.826006842e-02
-4.483869261e-11	-9.945526047e-09	1.285000000e-01	2.321640853e-01	-2.826010030e-02
-4.443527519e-11	-9.821818052e-09	1.295000000e-01	2.321645394e-01	-2.826013243e-02
-4.423247064e-11	-9.759911445e-09	1.300000000e-01	2.321647677e-01	-2.826014859e-02
-4.402893921e-11	-9.697972669e-09	1.305000000e-01	2.321649969e-01	-2.826016481e-02
-4.382468374e-11	-9.636003892e-09	1.310000000e-01	2.321652270e-01	-2.826018110e-02
-4.361970726e-11	-9.574007256e-09	1.315000000e-01	2.321654579e-01	-2.826019744e-02
-4.341401263e-11	-9.511984998e-09	1.320000000e-01	2.321656898e-01	-2.826021385e-02
-4.320760272e-11	-9.449939241e-09	1.325000000e-01	2.321659225e-01	-2.826023032e-02
-4.279265017e-11	-9.325786068e-09	1.335000000e-01	2.321663906e-01	-2.826026345e-02
-4.258411335e-11	-9.263683040e-09	1.340000000e-01	2.321666260e-01	-2.826028010e-02
-4.237487429e-11	-9.201565286e-09	1.345000000e-01	2.321668622e-01	-2.826029682e-02
-4.216493596e-11	-9.139435041e-09	1.350000000e-01	2.321670993e-01	-2.826031360e-02
-4.195430183e-11	-9.077294514e-09	1.355000000e-01	2.321673373e-01	-2.826033044e-02
-4.110487629e-11	-8.828673864e-09	1.375000000e-01	2.321682981e-01	-2.826039843e-02
-4.067608100e-11	-8.704359579e-09	1.385000000e-01	2.321687838e-01	-2.826043280e-02
