# Im(epsi1)     Re(omega/c)      Im(omega/c)      Eq(det).Opt det CON kz, R=0.5 \mum, mu_c=0.3, Re(epsi1)=3.90solve_det_conkz_vs_kz.py
0.000000000e+00	2.321383784e-01	-6.658066666e-04	7.203600759e-12
-1.000000000e-04	2.321383871e-01	-6.634505201e-04	1.313549038e-11
-2.000000000e-04	2.321383957e-01	-6.610943733e-04	4.461277092e-11
-3.000000000e-04	2.321384042e-01	-6.587382261e-04	1.683388577e-11
-4.000000000e-04	2.321384127e-01	-6.563820786e-04	7.403361385e-12
-5.000000000e-04	2.321384211e-01	-6.540259307e-04	1.913927887e-11
-6.000000000e-04	2.321384295e-01	-6.516697825e-04	9.594671727e-12
-7.000000000e-04	2.321384377e-01	-6.493136339e-04	6.494816157e-12
-8.000000000e-04	2.321384459e-01	-6.469574850e-04	1.212781305e-11
-9.000000000e-04	2.321384541e-01	-6.446013358e-04	8.775906312e-12
-1.000000000e-03	2.321384621e-01	-6.422451862e-04	1.733134059e-11
-1.100000000e-03	2.321384701e-01	-6.398890363e-04	1.436616954e-11
-1.200000000e-03	2.321384780e-01	-6.375328861e-04	2.504179880e-11
-1.300000000e-03	2.321384859e-01	-6.351767355e-04	1.862760031e-11
-1.400000000e-03	2.321384936e-01	-6.328205846e-04	5.753683612e-12
-1.500000000e-03	2.321385013e-01	-6.304644335e-04	1.469695042e-11
-1.600000000e-03	2.321385089e-01	-6.281082820e-04	8.535966747e-12
-1.700000000e-03	2.321385165e-01	-6.257521302e-04	1.267164117e-11
-1.800000000e-03	2.321385240e-01	-6.233959781e-04	1.973815419e-11
-1.900000000e-03	2.321385314e-01	-6.210398256e-04	1.144550743e-11
-2.000000000e-03	2.321385387e-01	-6.186836729e-04	6.296320235e-12
-2.100000000e-03	2.321385460e-01	-6.163275199e-04	1.619214294e-11
-2.200000000e-03	2.321385532e-01	-6.139713667e-04	6.826120439e-12
-2.300000000e-03	2.321385603e-01	-6.116152131e-04	1.554049625e-11
-2.400000000e-03	2.321385674e-01	-6.092590592e-04	2.653829498e-11
-2.500000000e-03	2.321385743e-01	-6.069029051e-04	1.022731130e-11
-2.600000000e-03	2.321385812e-01	-6.045467507e-04	1.372614894e-11
-2.700000000e-03	2.321385881e-01	-6.021905960e-04	1.401376678e-11
-2.800000000e-03	2.321385948e-01	-5.998344411e-04	1.087744835e-11
-2.900000000e-03	2.321386015e-01	-5.974782859e-04	1.601019531e-11
-3.000000000e-03	2.321386081e-01	-5.951221304e-04	8.756212836e-12
-3.100000000e-03	2.321386147e-01	-5.927659747e-04	1.344324462e-11
-3.200000000e-03	2.321386212e-01	-5.904098187e-04	8.165562667e-12
-3.300000000e-03	2.321386276e-01	-5.880536625e-04	4.123019140e-12
-3.400000000e-03	2.321386339e-01	-5.856975060e-04	1.446346146e-11
-3.500000000e-03	2.321386402e-01	-5.833413493e-04	6.553152974e-12
-3.600000000e-03	2.321386464e-01	-5.809851923e-04	1.353404717e-11
-3.700000000e-03	2.321386525e-01	-5.786290351e-04	1.632459711e-11
-3.800000000e-03	2.321386585e-01	-5.762728777e-04	2.923457734e-11
-3.900000000e-03	2.321386645e-01	-5.739167201e-04	2.781201356e-11
-4.000000000e-03	2.321386704e-01	-5.715605622e-04	9.391628000e-12
-4.100000000e-03	2.321386762e-01	-5.692044041e-04	9.623714954e-12
-4.200000000e-03	2.321386820e-01	-5.668482458e-04	9.147612732e-12
-4.300000000e-03	2.321386877e-01	-5.644920873e-04	9.738077349e-12
-4.400000000e-03	2.321386933e-01	-5.621359286e-04	1.192590866e-11
-4.500000000e-03	2.321386988e-01	-5.597797696e-04	1.164384569e-11
-4.600000000e-03	2.321387043e-01	-5.574236105e-04	1.247868125e-11
-4.700000000e-03	2.321387097e-01	-5.550674512e-04	1.164366672e-11
-4.800000000e-03	2.321387150e-01	-5.527112916e-04	9.046165904e-12
-4.900000000e-03	2.321387203e-01	-5.503551319e-04	1.070081319e-11
-5.000000000e-03	2.321387255e-01	-5.479989720e-04	1.196686909e-11
-5.100000000e-03	2.321387306e-01	-5.456428119e-04	5.796864991e-11
-5.200000000e-03	2.321387356e-01	-5.432866517e-04	1.390768462e-11
-5.300000000e-03	2.321387406e-01	-5.409304912e-04	1.123546049e-11
-5.400000000e-03	2.321387455e-01	-5.385743306e-04	6.024234565e-12
-5.500000000e-03	2.321387503e-01	-5.362181698e-04	5.598888277e-11
-5.600000000e-03	2.321387551e-01	-5.338620089e-04	8.878764464e-12
-5.700000000e-03	2.321387598e-01	-5.315058477e-04	2.414160582e-11
-5.800000000e-03	2.321387644e-01	-5.291496865e-04	2.449571993e-11
-5.900000000e-03	2.321387689e-01	-5.267935250e-04	1.586329190e-11
-6.000000000e-03	2.321387734e-01	-5.244373635e-04	1.207095166e-11
-6.100000000e-03	2.321387778e-01	-5.220812017e-04	8.012954714e-12
-6.200000000e-03	2.321387821e-01	-5.197250399e-04	2.159081022e-11
-6.300000000e-03	2.321387864e-01	-5.173688778e-04	1.283145078e-11
-6.400000000e-03	2.321387906e-01	-5.150127157e-04	1.637677870e-11
-6.500000000e-03	2.321387947e-01	-5.126565534e-04	1.267797527e-11
-6.600000000e-03	2.321387987e-01	-5.103003910e-04	8.012230772e-12
-6.700000000e-03	2.321388027e-01	-5.079442285e-04	8.791112803e-12
-6.800000000e-03	2.321388066e-01	-5.055880658e-04	6.662800761e-12
-6.900000000e-03	2.321388104e-01	-5.032319030e-04	3.534056372e-11
-7.000000000e-03	2.321388141e-01	-5.008757401e-04	1.837459492e-11
-7.100000000e-03	2.321388178e-01	-4.985195771e-04	2.200759342e-11
-7.200000000e-03	2.321388214e-01	-4.961634140e-04	1.084687384e-11
-7.300000000e-03	2.321388250e-01	-4.938072508e-04	1.185861151e-11
-7.400000000e-03	2.321388284e-01	-4.914510875e-04	7.498114505e-12
-7.500000000e-03	2.321388318e-01	-4.890949241e-04	1.152554253e-11
-7.600000000e-03	2.321388351e-01	-4.867387606e-04	1.122754582e-11
-7.700000000e-03	2.321388384e-01	-4.843825970e-04	1.043360480e-11
-7.800000000e-03	2.321388416e-01	-4.820264333e-04	4.896620658e-12
-7.900000000e-03	2.321388447e-01	-4.796702696e-04	1.615879012e-11
-8.000000000e-03	2.321388477e-01	-4.773141057e-04	1.297590135e-11
-8.100000000e-03	2.321388507e-01	-4.749579418e-04	1.805027755e-11
-8.200000000e-03	2.321388536e-01	-4.726017778e-04	2.002601418e-11
-8.300000000e-03	2.321388564e-01	-4.702456138e-04	2.149504221e-11
-8.400000000e-03	2.321388591e-01	-4.678894497e-04	1.516886464e-11
-8.500000000e-03	2.321388618e-01	-4.655332855e-04	2.283667501e-11
-8.600000000e-03	2.321388644e-01	-4.631771213e-04	1.446327495e-11
-8.700000000e-03	2.321388669e-01	-4.608209570e-04	1.535902102e-11
-8.800000000e-03	2.321388694e-01	-4.584647927e-04	1.536405492e-11
-8.900000000e-03	2.321388718e-01	-4.561086283e-04	1.161943598e-11
-9.000000000e-03	2.321388741e-01	-4.537524639e-04	1.622672521e-11
-9.100000000e-03	2.321388764e-01	-4.513962994e-04	2.606888907e-11
-9.200000000e-03	2.321388785e-01	-4.490401349e-04	1.020869279e-11
-9.300000000e-03	2.321388806e-01	-4.466839704e-04	1.863758145e-11
-9.400000000e-03	2.321388827e-01	-4.443278058e-04	1.438256759e-11
-9.500000000e-03	2.321388846e-01	-4.419716413e-04	1.075652409e-11
-9.600000000e-03	2.321388865e-01	-4.396154767e-04	4.189258318e-12
-9.700000000e-03	2.321388883e-01	-4.372593121e-04	2.790185771e-11
-9.800000000e-03	2.321388901e-01	-4.349031474e-04	6.314210795e-12
-9.900000000e-03	2.321388917e-01	-4.325469828e-04	6.705435712e-11
-1.000000000e-02	2.321388933e-01	-4.301908182e-04	2.407462806e-11
-1.010000000e-02	2.321388949e-01	-4.278346535e-04	6.191409518e-12
-1.020000000e-02	2.321388963e-01	-4.254784889e-04	1.112276172e-11
-1.030000000e-02	2.321388977e-01	-4.231223242e-04	1.074630823e-11
-1.040000000e-02	2.321388990e-01	-4.207661596e-04	2.417386988e-11
-1.050000000e-02	2.321389003e-01	-4.184099950e-04	7.762897857e-12
-1.060000000e-02	2.321389014e-01	-4.160538304e-04	6.566240460e-12
-1.070000000e-02	2.321389025e-01	-4.136976658e-04	7.208859929e-12
-1.080000000e-02	2.321389036e-01	-4.113415013e-04	6.614479475e-12
-1.090000000e-02	2.321389045e-01	-4.089853368e-04	1.370382492e-11
-1.100000000e-02	2.321389054e-01	-4.066291723e-04	1.913841168e-11
-1.110000000e-02	2.321389062e-01	-4.042730078e-04	6.694826153e-12
-1.120000000e-02	2.321389070e-01	-4.019168434e-04	1.290312557e-11
-1.130000000e-02	2.321389076e-01	-3.995606790e-04	1.085620829e-11
-1.140000000e-02	2.321389082e-01	-3.972045147e-04	1.568957801e-11
-1.150000000e-02	2.321389087e-01	-3.948483504e-04	9.598281597e-12
-1.160000000e-02	2.321389092e-01	-3.924921861e-04	2.199890610e-11
-1.170000000e-02	2.321389096e-01	-3.901360220e-04	3.027827679e-11
-1.180000000e-02	2.321389099e-01	-3.877798578e-04	6.568997049e-11
-1.190000000e-02	2.321389101e-01	-3.854236938e-04	5.549857814e-12
-1.200000000e-02	2.321389103e-01	-3.830675298e-04	1.993431299e-11
-1.210000000e-02	2.321389104e-01	-3.807113659e-04	8.040794787e-12
-1.220000000e-02	2.321389104e-01	-3.783552020e-04	1.517811511e-11
-1.230000000e-02	2.321389104e-01	-3.759990383e-04	1.843431264e-11
-1.240000000e-02	2.321389102e-01	-3.736428746e-04	1.775112458e-11
-1.250000000e-02	2.321389101e-01	-3.712867110e-04	6.408888842e-12
-1.260000000e-02	2.321389098e-01	-3.689305475e-04	6.722682486e-12
-1.270000000e-02	2.321389095e-01	-3.665743841e-04	1.286691364e-11
-1.280000000e-02	2.321389090e-01	-3.642182207e-04	1.231733875e-11
-1.290000000e-02	2.321389086e-01	-3.618620575e-04	1.462083285e-11
-1.300000000e-02	2.321389080e-01	-3.595058944e-04	1.395810479e-11
-1.310000000e-02	2.321389074e-01	-3.571497314e-04	8.633930146e-12
-1.320000000e-02	2.321389067e-01	-3.547935685e-04	1.447890209e-11
-1.330000000e-02	2.321389059e-01	-3.524374057e-04	1.447936466e-11
-1.340000000e-02	2.321389051e-01	-3.500812430e-04	1.514751990e-11
-1.350000000e-02	2.321389042e-01	-3.477250805e-04	1.130331312e-11
-1.360000000e-02	2.321389032e-01	-3.453689181e-04	2.059471460e-11
-1.370000000e-02	2.321389022e-01	-3.430127558e-04	3.029118753e-11
-1.380000000e-02	2.321389010e-01	-3.406565936e-04	9.067822235e-11
-1.390000000e-02	2.321388998e-01	-3.383004316e-04	7.517238025e-12
-1.400000000e-02	2.321388986e-01	-3.359442697e-04	8.377234993e-12
-1.410000000e-02	2.321388972e-01	-3.335881080e-04	1.059223753e-11
-1.420000000e-02	2.321388958e-01	-3.312319464e-04	1.470841151e-11
-1.430000000e-02	2.321388943e-01	-3.288757850e-04	1.320647619e-11
-1.440000000e-02	2.321388928e-01	-3.265196237e-04	1.022251944e-11
-1.450000000e-02	2.321388911e-01	-3.241634625e-04	1.284641026e-11
-1.460000000e-02	2.321388894e-01	-3.218073016e-04	1.327418032e-11
-1.470000000e-02	2.321388877e-01	-3.194511408e-04	1.319966356e-11
-1.480000000e-02	2.321388858e-01	-3.170949801e-04	8.076431890e-12
-1.490000000e-02	2.321388839e-01	-3.147388197e-04	6.320538476e-12
-1.500000000e-02	2.321388819e-01	-3.123826594e-04	1.115615817e-11
-1.510000000e-02	2.321388799e-01	-3.100264993e-04	2.312122140e-11
-1.520000000e-02	2.321388778e-01	-3.076703394e-04	1.295472559e-11
-1.530000000e-02	2.321388756e-01	-3.053141797e-04	7.843704808e-11
-1.540000000e-02	2.321388733e-01	-3.029580201e-04	5.119892845e-12
-1.550000000e-02	2.321388709e-01	-3.006018608e-04	6.946315488e-12
-1.560000000e-02	2.321388685e-01	-2.982457016e-04	1.189719161e-11
-1.570000000e-02	2.321388660e-01	-2.958895427e-04	7.335375170e-12
-1.580000000e-02	2.321388635e-01	-2.935333839e-04	3.183520168e-11
-1.590000000e-02	2.321388608e-01	-2.911772254e-04	1.213456312e-11
-1.600000000e-02	2.321388581e-01	-2.888210671e-04	1.184120038e-11
-1.610000000e-02	2.321388554e-01	-2.864649090e-04	2.003857050e-11
-1.620000000e-02	2.321388525e-01	-2.841087511e-04	2.778116753e-11
-1.630000000e-02	2.321388496e-01	-2.817525934e-04	1.152481610e-11
-1.640000000e-02	2.321388466e-01	-2.793964360e-04	7.510702798e-12
-1.650000000e-02	2.321388436e-01	-2.770402788e-04	9.964052657e-12
-1.660000000e-02	2.321388404e-01	-2.746841218e-04	2.274466828e-11
-1.670000000e-02	2.321388372e-01	-2.723279651e-04	1.722564157e-11
-1.680000000e-02	2.321388339e-01	-2.699718086e-04	1.121223795e-11
-1.690000000e-02	2.321388306e-01	-2.676156523e-04	5.680404038e-12
-1.700000000e-02	2.321388272e-01	-2.652594963e-04	8.390236403e-12
-1.710000000e-02	2.321388237e-01	-2.629033406e-04	1.646864283e-11
-1.720000000e-02	2.321388201e-01	-2.605471851e-04	1.725590189e-11
-1.730000000e-02	2.321388165e-01	-2.581910299e-04	9.043145651e-12
-1.740000000e-02	2.321388128e-01	-2.558348749e-04	9.765187867e-12
-1.750000000e-02	2.321388090e-01	-2.534787202e-04	9.067687239e-12
-1.760000000e-02	2.321388052e-01	-2.511225658e-04	1.888160722e-11
-1.770000000e-02	2.321388012e-01	-2.487664116e-04	2.844834607e-11
-1.780000000e-02	2.321387972e-01	-2.464102577e-04	1.684620177e-11
-1.790000000e-02	2.321387932e-01	-2.440541042e-04	5.935788670e-12
-1.800000000e-02	2.321387890e-01	-2.416979508e-04	9.234278796e-12
-1.810000000e-02	2.321387848e-01	-2.393417978e-04	1.562380818e-11
-1.820000000e-02	2.321387806e-01	-2.369856451e-04	2.375934515e-11
-1.830000000e-02	2.321387762e-01	-2.346294927e-04	1.795329773e-11
-1.840000000e-02	2.321387718e-01	-2.322733405e-04	2.193148283e-11
-1.850000000e-02	2.321387673e-01	-2.299171887e-04	1.532578823e-11
-1.860000000e-02	2.321387627e-01	-2.275610372e-04	3.482350565e-11
-1.870000000e-02	2.321387581e-01	-2.252048860e-04	1.810471684e-11
-1.880000000e-02	2.321387534e-01	-2.228487351e-04	1.292845353e-11
-1.890000000e-02	2.321387486e-01	-2.204925845e-04	8.115770309e-12
-1.900000000e-02	2.321387437e-01	-2.181364343e-04	5.360881294e-12
-1.910000000e-02	2.321387388e-01	-2.157802843e-04	1.933739207e-11
-1.920000000e-02	2.321387338e-01	-2.134241347e-04	1.450113775e-11
-1.930000000e-02	2.321387287e-01	-2.110679855e-04	1.285029419e-11
-1.940000000e-02	2.321387236e-01	-2.087118365e-04	1.122181607e-11
-1.950000000e-02	2.321387184e-01	-2.063556879e-04	7.944526620e-12
-1.960000000e-02	2.321387131e-01	-2.039995397e-04	1.563150052e-11
-1.970000000e-02	2.321387078e-01	-2.016433918e-04	2.310999851e-11
-1.980000000e-02	2.321387023e-01	-1.992872442e-04	5.444980084e-12
-1.990000000e-02	2.321386968e-01	-1.969310970e-04	8.185828546e-12
-2.000000000e-02	2.321386913e-01	-1.945749502e-04	9.802380041e-12
-2.010000000e-02	2.321386856e-01	-1.922188037e-04	7.236668859e-11
-2.020000000e-02	2.321386799e-01	-1.898626576e-04	1.086241381e-11
-2.030000000e-02	2.321386741e-01	-1.875065119e-04	4.516191593e-12
-2.040000000e-02	2.321386683e-01	-1.851503665e-04	3.528598999e-11
-2.050000000e-02	2.321386623e-01	-1.827942215e-04	1.942123948e-11
-2.060000000e-02	2.321386563e-01	-1.804380769e-04	1.415714571e-11
-2.070000000e-02	2.321386503e-01	-1.780819326e-04	1.300223378e-11
-2.080000000e-02	2.321386441e-01	-1.757257888e-04	1.746497272e-11
-2.090000000e-02	2.321386379e-01	-1.733696453e-04	1.911523878e-11
-2.100000000e-02	2.321386316e-01	-1.710135023e-04	6.508938071e-12
-2.110000000e-02	2.321386253e-01	-1.686573596e-04	1.560123258e-11
-2.120000000e-02	2.321386188e-01	-1.663012174e-04	1.012168817e-11
-2.130000000e-02	2.321386123e-01	-1.639450755e-04	9.550829879e-12
-2.140000000e-02	2.321386057e-01	-1.615889341e-04	8.493907305e-12
-2.150000000e-02	2.321385991e-01	-1.592327930e-04	8.526739606e-12
-2.160000000e-02	2.321385924e-01	-1.568766524e-04	1.095347803e-11
-2.170000000e-02	2.321385856e-01	-1.545205122e-04	8.876984694e-12
-2.180000000e-02	2.321385787e-01	-1.521643724e-04	7.481176827e-12
-2.190000000e-02	2.321385718e-01	-1.498082331e-04	1.767489686e-11
-2.200000000e-02	2.321385648e-01	-1.474520942e-04	6.592182699e-12
-2.210000000e-02	2.321385577e-01	-1.450959557e-04	8.919849004e-12
-2.220000000e-02	2.321385506e-01	-1.427398176e-04	1.936964632e-11
-2.230000000e-02	2.321385434e-01	-1.403836800e-04	3.687347208e-11
-2.240000000e-02	2.321385361e-01	-1.380275429e-04	7.848574056e-12
-2.250000000e-02	2.321385287e-01	-1.356714062e-04	1.217411610e-11
-2.260000000e-02	2.321385213e-01	-1.333152699e-04	4.135697360e-11
-2.270000000e-02	2.321385138e-01	-1.309591341e-04	2.445236886e-11
-2.280000000e-02	2.321385062e-01	-1.286029988e-04	4.300606441e-12
-2.290000000e-02	2.321384985e-01	-1.262468639e-04	2.591472833e-11
-2.300000000e-02	2.321384908e-01	-1.238907295e-04	1.519359768e-10
-2.310000000e-02	2.321384830e-01	-1.215345955e-04	3.504253059e-11
-2.320000000e-02	2.321384752e-01	-1.191784621e-04	1.444623336e-11
-2.330000000e-02	2.321384672e-01	-1.168223291e-04	1.883592075e-11
-2.340000000e-02	2.321384592e-01	-1.144661966e-04	1.201884061e-11
-2.350000000e-02	2.321384511e-01	-1.121100645e-04	1.506705845e-11
-2.360000000e-02	2.321384430e-01	-1.097539330e-04	1.962649042e-10
-2.370000000e-02	2.321384348e-01	-1.073978020e-04	9.834132196e-12
-2.380000000e-02	2.321384265e-01	-1.050416714e-04	2.221767544e-11
-2.390000000e-02	2.321384181e-01	-1.026855414e-04	9.686889585e-12
-2.400000000e-02	2.321384096e-01	-1.003294119e-04	1.417435240e-11
-2.410000000e-02	2.321384011e-01	-9.797328282e-05	1.145736629e-11
-2.420000000e-02	2.321383926e-01	-9.561715429e-05	1.244909645e-11
-2.430000000e-02	2.321383839e-01	-9.326102628e-05	7.769209821e-12
-2.440000000e-02	2.321383752e-01	-9.090489879e-05	1.006900003e-11
-2.450000000e-02	2.321383664e-01	-8.854877182e-05	6.513924283e-12
-2.460000000e-02	2.321383575e-01	-8.619264538e-05	2.490450393e-11
-2.470000000e-02	2.321383486e-01	-8.383651946e-05	2.066648623e-11
-2.480000000e-02	2.321383396e-01	-8.148039408e-05	1.158667838e-11
-2.490000000e-02	2.321383305e-01	-7.912426923e-05	1.846679606e-11
-2.500000000e-02	2.321383213e-01	-7.676814493e-05	6.833539060e-12
-2.510000000e-02	2.321383121e-01	-7.441202116e-05	1.196888453e-11
-2.520000000e-02	2.321383028e-01	-7.205589795e-05	1.246646786e-11
-2.530000000e-02	2.321382934e-01	-6.969977528e-05	1.616009861e-11
-2.540000000e-02	2.321382840e-01	-6.734365317e-05	3.776196252e-11
-2.550000000e-02	2.321382745e-01	-6.498753161e-05	5.201438070e-12
-2.560000000e-02	2.321382649e-01	-6.263141062e-05	1.307080273e-11
-2.570000000e-02	2.321382552e-01	-6.027529019e-05	8.984616650e-12
-2.580000000e-02	2.321382455e-01	-5.791917033e-05	6.207703245e-12
-2.590000000e-02	2.321382357e-01	-5.556305105e-05	1.062633886e-11
-2.600000000e-02	2.321382258e-01	-5.320693233e-05	3.688317662e-11
-2.610000000e-02	2.321382159e-01	-5.085081420e-05	1.654269343e-11
-2.620000000e-02	2.321382059e-01	-4.849469666e-05	2.104096780e-11
-2.630000000e-02	2.321381958e-01	-4.613857970e-05	1.551381640e-11
-2.640000000e-02	2.321381856e-01	-4.378246333e-05	7.789275225e-12
-2.650000000e-02	2.321381754e-01	-4.142634755e-05	1.009912332e-11
-2.660000000e-02	2.321381651e-01	-3.907023238e-05	9.118599623e-12
-2.670000000e-02	2.321381547e-01	-3.671411780e-05	1.411461908e-11
-2.680000000e-02	2.321381443e-01	-3.435800383e-05	1.683665157e-11
-2.690000000e-02	2.321381337e-01	-3.200189047e-05	8.914155860e-12
-2.700000000e-02	2.321381232e-01	-2.964577771e-05	5.025840418e-11
-2.710000000e-02	2.321381125e-01	-2.728966558e-05	1.403110435e-11
-2.720000000e-02	2.321381018e-01	-2.493355407e-05	2.466526141e-11
-2.730000000e-02	2.321380910e-01	-2.257744318e-05	4.322665261e-12
-2.740000000e-02	2.321380801e-01	-2.022133292e-05	3.121990247e-11
-2.750000000e-02	2.321380691e-01	-1.786522328e-05	6.129873553e-12
-2.760000000e-02	2.321380581e-01	-1.550911428e-05	1.319845385e-11
-2.770000000e-02	2.321380470e-01	-1.315300592e-05	1.548402995e-11
-2.780000000e-02	2.321380359e-01	-1.079689820e-05	1.118776301e-11
-2.790000000e-02	2.321380246e-01	-8.440791126e-06	1.663751900e-11
-2.800000000e-02	2.321380133e-01	-6.084684700e-06	1.420531012e-11
-2.810000000e-02	2.321380019e-01	-3.728578928e-06	8.214739194e-12
-2.820000000e-02	2.321379905e-01	-1.372473812e-06	2.355837922e-11
-2.830000000e-02	2.321379790e-01	9.836306470e-07	1.087457105e-11
-2.840000000e-02	2.321379674e-01	3.339734441e-06	5.744770880e-12
-2.850000000e-02	2.321379557e-01	5.695837573e-06	4.071695797e-11
-2.860000000e-02	2.321379440e-01	8.051940025e-06	1.398639605e-11
-2.870000000e-02	2.321379322e-01	1.040804181e-05	5.015991606e-11
-2.880000000e-02	2.321379203e-01	1.276414291e-05	2.154915257e-11
-2.890000000e-02	2.321379083e-01	1.512024334e-05	5.854376551e-12
-2.900000000e-02	2.321378963e-01	1.747634307e-05	1.000067309e-11
-2.910000000e-02	2.321378842e-01	1.983244212e-05	5.805406331e-11
-2.920000000e-02	2.321378720e-01	2.218854048e-05	1.125844027e-11
-2.930000000e-02	2.321378598e-01	2.454463814e-05	2.451103632e-11
-2.940000000e-02	2.321378475e-01	2.690073510e-05	9.262626532e-12
-2.950000000e-02	2.321378351e-01	2.925683136e-05	2.376317156e-11
-2.960000000e-02	2.321378227e-01	3.161292691e-05	1.022452566e-11
-2.970000000e-02	2.321378101e-01	3.396902175e-05	1.270903195e-11
-2.980000000e-02	2.321377975e-01	3.632511588e-05	1.414918937e-11
-2.990000000e-02	2.321377849e-01	3.868120929e-05	5.296340569e-12
-3.000000000e-02	2.321377721e-01	4.103730198e-05	2.123294240e-11
