# Im(epsi1)     Re(omega/c)      Im(omega/c)      Eq(det).Opt det CON kz, R=0.5 \mum, mu_c=0.3, Re(epsi1)=3.90solve_det_conkz_vs_kz.py
0.000000000e+00	2.321409392e-01	-6.658161568e-04	1.301771884e-11
-1.000000000e-04	2.321409479e-01	-6.634599919e-04	2.244352783e-11
-2.000000000e-04	2.321409565e-01	-6.611038267e-04	2.041538195e-11
-3.000000000e-04	2.321409651e-01	-6.587476611e-04	8.155520680e-12
-4.000000000e-04	2.321409736e-01	-6.563914951e-04	2.267433857e-11
-5.000000000e-04	2.321409820e-01	-6.540353288e-04	1.596347437e-11
-6.000000000e-04	2.321409903e-01	-6.516791621e-04	6.789862042e-12
-7.000000000e-04	2.321409986e-01	-6.493229951e-04	2.444614826e-11
-8.000000000e-04	2.321410068e-01	-6.469668277e-04	1.182220582e-11
-9.000000000e-04	2.321410149e-01	-6.446106600e-04	2.177481641e-11
-1.000000000e-03	2.321410230e-01	-6.422544920e-04	1.652940857e-11
-1.100000000e-03	2.321410310e-01	-6.398983236e-04	1.837694746e-11
-1.200000000e-03	2.321410389e-01	-6.375421550e-04	1.412376916e-11
-1.300000000e-03	2.321410467e-01	-6.351859859e-04	8.038132141e-12
-1.400000000e-03	2.321410545e-01	-6.328298166e-04	4.954898266e-11
-1.500000000e-03	2.321410622e-01	-6.304736470e-04	8.875234815e-12
-1.600000000e-03	2.321410698e-01	-6.281174770e-04	1.637463791e-11
-1.700000000e-03	2.321410773e-01	-6.257613068e-04	8.232308824e-12
-1.800000000e-03	2.321410848e-01	-6.234051362e-04	3.329717233e-11
-1.900000000e-03	2.321410922e-01	-6.210489654e-04	7.999812813e-12
-2.000000000e-03	2.321410996e-01	-6.186927942e-04	3.395135716e-11
-2.100000000e-03	2.321411068e-01	-6.163366228e-04	1.068138792e-11
-2.200000000e-03	2.321411140e-01	-6.139804510e-04	6.904868291e-12
-2.300000000e-03	2.321411212e-01	-6.116242790e-04	6.457999092e-12
-2.400000000e-03	2.321411282e-01	-6.092681067e-04	4.575893260e-11
-2.500000000e-03	2.321411352e-01	-6.069119341e-04	1.154696263e-11
-2.600000000e-03	2.321411421e-01	-6.045557613e-04	1.051860035e-11
-2.700000000e-03	2.321411489e-01	-6.021995881e-04	1.064740044e-11
-2.800000000e-03	2.321411557e-01	-5.998434147e-04	5.425048318e-12
-2.900000000e-03	2.321411624e-01	-5.974872411e-04	7.882345100e-12
-3.000000000e-03	2.321411690e-01	-5.951310672e-04	1.197916818e-11
-3.100000000e-03	2.321411755e-01	-5.927748930e-04	1.851381184e-11
-3.200000000e-03	2.321411820e-01	-5.904187186e-04	3.076747689e-11
-3.300000000e-03	2.321411884e-01	-5.880625439e-04	6.355081236e-11
-3.400000000e-03	2.321411948e-01	-5.857063690e-04	2.713958282e-11
-3.500000000e-03	2.321412010e-01	-5.833501938e-04	1.824727308e-11
-3.600000000e-03	2.321412072e-01	-5.809940184e-04	7.759745043e-12
-3.700000000e-03	2.321412133e-01	-5.786378428e-04	1.563862393e-11
-3.800000000e-03	2.321412194e-01	-5.762816669e-04	9.168923649e-12
-3.900000000e-03	2.321412254e-01	-5.739254908e-04	6.410021347e-12
-4.000000000e-03	2.321412313e-01	-5.715693145e-04	1.325439739e-11
-4.100000000e-03	2.321412371e-01	-5.692131379e-04	1.281152659e-11
-4.200000000e-03	2.321412428e-01	-5.668569612e-04	1.241555110e-11
-4.300000000e-03	2.321412485e-01	-5.645007842e-04	1.296628968e-11
-4.400000000e-03	2.321412542e-01	-5.621446070e-04	1.972821056e-11
-4.500000000e-03	2.321412597e-01	-5.597884296e-04	1.388650986e-11
-4.600000000e-03	2.321412652e-01	-5.574322521e-04	9.584575395e-12
-4.700000000e-03	2.321412706e-01	-5.550760743e-04	1.324983114e-11
-4.800000000e-03	2.321412759e-01	-5.527198963e-04	1.132365877e-11
-4.900000000e-03	2.321412812e-01	-5.503637181e-04	7.251914715e-12
-5.000000000e-03	2.321412863e-01	-5.480075398e-04	1.037121372e-11
-5.100000000e-03	2.321412915e-01	-5.456513612e-04	1.220865290e-11
-5.200000000e-03	2.321412965e-01	-5.432951825e-04	1.604365211e-11
-5.300000000e-03	2.321413015e-01	-5.409390036e-04	3.010081897e-11
-5.400000000e-03	2.321413064e-01	-5.385828245e-04	1.423328922e-11
-5.500000000e-03	2.321413112e-01	-5.362266453e-04	1.004371067e-11
-5.600000000e-03	2.321413160e-01	-5.338704659e-04	1.226851281e-11
-5.700000000e-03	2.321413206e-01	-5.315142863e-04	1.401024085e-11
-5.800000000e-03	2.321413252e-01	-5.291581066e-04	9.668544468e-12
-5.900000000e-03	2.321413298e-01	-5.268019267e-04	2.216724303e-11
-6.000000000e-03	2.321413343e-01	-5.244457467e-04	8.513289184e-12
-6.100000000e-03	2.321413387e-01	-5.220895665e-04	6.443648176e-12
-6.200000000e-03	2.321413430e-01	-5.197333862e-04	1.806196435e-10
-6.300000000e-03	2.321413472e-01	-5.173772057e-04	8.721662247e-12
-6.400000000e-03	2.321413514e-01	-5.150210251e-04	1.404026059e-11
-6.500000000e-03	2.321413555e-01	-5.126648444e-04	1.050872212e-11
-6.600000000e-03	2.321413596e-01	-5.103086635e-04	5.677464706e-12
-6.700000000e-03	2.321413635e-01	-5.079524826e-04	1.679802322e-11
-6.800000000e-03	2.321413674e-01	-5.055963015e-04	3.152283464e-11
-6.900000000e-03	2.321413712e-01	-5.032401202e-04	1.486650418e-11
-7.000000000e-03	2.321413750e-01	-5.008839389e-04	2.053076332e-11
-7.100000000e-03	2.321413787e-01	-4.985277574e-04	9.694000840e-12
-7.200000000e-03	2.321413823e-01	-4.961715759e-04	7.916255896e-12
-7.300000000e-03	2.321413858e-01	-4.938153942e-04	3.439184053e-11
-7.400000000e-03	2.321413893e-01	-4.914592124e-04	1.427310809e-11
-7.500000000e-03	2.321413927e-01	-4.891030306e-04	8.269241670e-12
-7.600000000e-03	2.321413960e-01	-4.867468486e-04	2.855528693e-11
-7.700000000e-03	2.321413993e-01	-4.843906666e-04	1.043228710e-11
-7.800000000e-03	2.321414024e-01	-4.820344845e-04	9.713898334e-12
-7.900000000e-03	2.321414055e-01	-4.796783023e-04	1.003584413e-11
-8.000000000e-03	2.321414086e-01	-4.773221200e-04	1.763486243e-11
-8.100000000e-03	2.321414115e-01	-4.749659376e-04	8.144843071e-12
-8.200000000e-03	2.321414144e-01	-4.726097552e-04	1.171866726e-11
-8.300000000e-03	2.321414172e-01	-4.702535727e-04	1.056665832e-11
-8.400000000e-03	2.321414200e-01	-4.678973901e-04	5.294901239e-12
-8.500000000e-03	2.321414227e-01	-4.655412075e-04	1.799798507e-11
-8.600000000e-03	2.321414253e-01	-4.631850248e-04	1.099623362e-11
-8.700000000e-03	2.321414278e-01	-4.608288421e-04	5.636091274e-11
-8.800000000e-03	2.321414303e-01	-4.584726593e-04	8.373991991e-12
-8.900000000e-03	2.321414327e-01	-4.561164765e-04	9.240563736e-12
-9.000000000e-03	2.321414350e-01	-4.537602936e-04	1.625338760e-11
-9.100000000e-03	2.321414372e-01	-4.514041107e-04	8.324045092e-11
-9.200000000e-03	2.321414394e-01	-4.490479277e-04	1.087012388e-11
-9.300000000e-03	2.321414415e-01	-4.466917448e-04	4.012693095e-11
-9.400000000e-03	2.321414435e-01	-4.443355617e-04	6.090985329e-12
-9.500000000e-03	2.321414455e-01	-4.419793787e-04	7.094632193e-12
-9.600000000e-03	2.321414474e-01	-4.396231957e-04	1.277604527e-11
-9.700000000e-03	2.321414492e-01	-4.372670126e-04	8.265594187e-12
-9.800000000e-03	2.321414509e-01	-4.349108295e-04	1.282527482e-11
-9.900000000e-03	2.321414526e-01	-4.325546465e-04	1.653751255e-11
-1.000000000e-02	2.321414542e-01	-4.301984634e-04	1.990236271e-11
-1.010000000e-02	2.321414557e-01	-4.278422803e-04	1.036873591e-11
-1.020000000e-02	2.321414572e-01	-4.254860972e-04	1.250869619e-11
-1.030000000e-02	2.321414586e-01	-4.231299141e-04	1.082607100e-11
-1.040000000e-02	2.321414599e-01	-4.207737310e-04	1.423462483e-11
-1.050000000e-02	2.321414611e-01	-4.184175480e-04	1.559978240e-11
-1.060000000e-02	2.321414623e-01	-4.160613649e-04	8.046636075e-12
-1.070000000e-02	2.321414634e-01	-4.137051819e-04	6.716454254e-12
-1.080000000e-02	2.321414644e-01	-4.113489989e-04	6.840818240e-12
-1.090000000e-02	2.321414654e-01	-4.089928159e-04	8.259499103e-12
-1.100000000e-02	2.321414663e-01	-4.066366330e-04	1.137260383e-11
-1.110000000e-02	2.321414671e-01	-4.042804500e-04	1.764685453e-11
-1.120000000e-02	2.321414678e-01	-4.019242672e-04	7.916920558e-12
-1.130000000e-02	2.321414685e-01	-3.995680843e-04	1.701916613e-11
-1.140000000e-02	2.321414691e-01	-3.972119015e-04	1.600727851e-11
-1.150000000e-02	2.321414696e-01	-3.948557188e-04	1.062878920e-11
-1.160000000e-02	2.321414701e-01	-3.924995361e-04	1.311250295e-11
-1.170000000e-02	2.321414704e-01	-3.901433535e-04	7.846011410e-11
-1.180000000e-02	2.321414708e-01	-3.877871709e-04	1.127425717e-11
-1.190000000e-02	2.321414710e-01	-3.854309884e-04	4.408502585e-11
-1.200000000e-02	2.321414712e-01	-3.830748060e-04	2.105980466e-10
-1.210000000e-02	2.321414713e-01	-3.807186236e-04	4.786772087e-11
-1.220000000e-02	2.321414713e-01	-3.783624413e-04	1.297969593e-11
-1.230000000e-02	2.321414712e-01	-3.760062591e-04	5.227175814e-11
-1.240000000e-02	2.321414711e-01	-3.736500770e-04	8.300966422e-12
-1.250000000e-02	2.321414709e-01	-3.712938949e-04	4.920063314e-11
-1.260000000e-02	2.321414707e-01	-3.689377130e-04	1.582535521e-11
-1.270000000e-02	2.321414703e-01	-3.665815311e-04	1.056358765e-11
-1.280000000e-02	2.321414699e-01	-3.642253493e-04	8.289290057e-12
-1.290000000e-02	2.321414694e-01	-3.618691676e-04	1.055251153e-11
-1.300000000e-02	2.321414689e-01	-3.595129861e-04	5.669138248e-12
-1.310000000e-02	2.321414683e-01	-3.571568046e-04	1.351212723e-11
-1.320000000e-02	2.321414676e-01	-3.548006233e-04	1.211293070e-11
-1.330000000e-02	2.321414668e-01	-3.524444420e-04	5.056744452e-11
-1.340000000e-02	2.321414660e-01	-3.500882609e-04	1.246888008e-11
-1.350000000e-02	2.321414651e-01	-3.477320799e-04	8.787095720e-12
-1.360000000e-02	2.321414641e-01	-3.453758990e-04	2.264962646e-11
-1.370000000e-02	2.321414630e-01	-3.430197183e-04	5.448646005e-11
-1.380000000e-02	2.321414619e-01	-3.406635377e-04	5.759251810e-12
-1.390000000e-02	2.321414607e-01	-3.383073572e-04	1.165718671e-11
-1.400000000e-02	2.321414594e-01	-3.359511769e-04	9.058921198e-12
-1.410000000e-02	2.321414581e-01	-3.335949967e-04	7.012651716e-12
-1.420000000e-02	2.321414567e-01	-3.312388167e-04	9.232747619e-12
-1.430000000e-02	2.321414552e-01	-3.288826368e-04	1.653007168e-11
-1.440000000e-02	2.321414536e-01	-3.265264570e-04	2.049069456e-11
-1.450000000e-02	2.321414520e-01	-3.241702774e-04	7.932255450e-12
-1.460000000e-02	2.321414503e-01	-3.218140980e-04	1.700926349e-11
-1.470000000e-02	2.321414485e-01	-3.194579188e-04	1.254113197e-11
-1.480000000e-02	2.321414467e-01	-3.171017397e-04	8.808583276e-12
-1.490000000e-02	2.321414448e-01	-3.147455608e-04	1.150909392e-11
-1.500000000e-02	2.321414428e-01	-3.123893820e-04	2.938268956e-11
-1.510000000e-02	2.321414408e-01	-3.100332035e-04	6.817753647e-12
-1.520000000e-02	2.321414386e-01	-3.076770251e-04	2.749809891e-11
-1.530000000e-02	2.321414364e-01	-3.053208469e-04	1.285291793e-11
-1.540000000e-02	2.321414342e-01	-3.029646689e-04	1.444684656e-11
-1.550000000e-02	2.321414318e-01	-3.006084911e-04	1.169538459e-11
-1.560000000e-02	2.321414294e-01	-2.982523135e-04	1.298435948e-11
-1.570000000e-02	2.321414269e-01	-2.958961361e-04	1.040952398e-11
-1.580000000e-02	2.321414243e-01	-2.935399589e-04	6.410639409e-12
-1.590000000e-02	2.321414217e-01	-2.911837820e-04	6.099105211e-11
-1.600000000e-02	2.321414190e-01	-2.888276052e-04	5.995577265e-12
-1.610000000e-02	2.321414162e-01	-2.864714286e-04	9.897124414e-12
-1.620000000e-02	2.321414134e-01	-2.841152523e-04	1.657962059e-11
-1.630000000e-02	2.321414105e-01	-2.817590762e-04	1.639233658e-11
-1.640000000e-02	2.321414075e-01	-2.794029003e-04	1.921813725e-11
-1.650000000e-02	2.321414044e-01	-2.770467246e-04	1.330053429e-11
-1.660000000e-02	2.321414013e-01	-2.746905492e-04	1.241671949e-11
-1.670000000e-02	2.321413981e-01	-2.723343740e-04	1.989112027e-11
-1.680000000e-02	2.321413948e-01	-2.699781991e-04	8.970833735e-12
-1.690000000e-02	2.321413915e-01	-2.676220244e-04	1.383021361e-11
-1.700000000e-02	2.321413881e-01	-2.652658499e-04	1.316113151e-11
-1.710000000e-02	2.321413846e-01	-2.629096758e-04	2.384675141e-10
-1.720000000e-02	2.321413810e-01	-2.605535018e-04	1.086617482e-11
-1.730000000e-02	2.321413774e-01	-2.581973281e-04	9.484089016e-12
-1.740000000e-02	2.321413737e-01	-2.558411547e-04	1.591864991e-11
-1.750000000e-02	2.321413699e-01	-2.534849816e-04	8.267583361e-11
-1.760000000e-02	2.321413660e-01	-2.511288087e-04	1.697179470e-11
-1.770000000e-02	2.321413621e-01	-2.487726361e-04	9.180761581e-12
-1.780000000e-02	2.321413581e-01	-2.464164637e-04	5.648248056e-12
-1.790000000e-02	2.321413541e-01	-2.440602917e-04	2.642362570e-11
-1.800000000e-02	2.321413499e-01	-2.417041199e-04	1.476021667e-11
-1.810000000e-02	2.321413457e-01	-2.393479485e-04	8.621170769e-12
-1.820000000e-02	2.321413414e-01	-2.369917773e-04	1.139673628e-11
-1.830000000e-02	2.321413371e-01	-2.346356064e-04	3.992649931e-11
-1.840000000e-02	2.321413327e-01	-2.322794358e-04	1.495178780e-11
-1.850000000e-02	2.321413282e-01	-2.299232656e-04	9.673764392e-12
-1.860000000e-02	2.321413236e-01	-2.275670956e-04	1.047322352e-11
-1.870000000e-02	2.321413190e-01	-2.252109259e-04	1.199978091e-11
-1.880000000e-02	2.321413142e-01	-2.228547566e-04	1.961277915e-11
-1.890000000e-02	2.321413095e-01	-2.204985875e-04	1.847167656e-11
-1.900000000e-02	2.321413046e-01	-2.181424188e-04	1.155519820e-11
-1.910000000e-02	2.321412997e-01	-2.157862505e-04	2.796212465e-11
-1.920000000e-02	2.321412947e-01	-2.134300824e-04	8.461992793e-12
-1.930000000e-02	2.321412896e-01	-2.110739147e-04	7.076335121e-12
-1.940000000e-02	2.321412845e-01	-2.087177473e-04	9.398405602e-12
-1.950000000e-02	2.321412793e-01	-2.063615803e-04	8.347672824e-12
-1.960000000e-02	2.321412740e-01	-2.040054136e-04	2.504954190e-11
-1.970000000e-02	2.321412686e-01	-2.016492472e-04	5.929036684e-12
-1.980000000e-02	2.321412632e-01	-1.992930812e-04	6.215832640e-11
-1.990000000e-02	2.321412577e-01	-1.969369155e-04	2.845124212e-11
-2.000000000e-02	2.321412521e-01	-1.945807503e-04	3.050293593e-11
-2.010000000e-02	2.321412465e-01	-1.922245853e-04	3.692539048e-11
-2.020000000e-02	2.321412408e-01	-1.898684208e-04	1.373179917e-11
-2.030000000e-02	2.321412350e-01	-1.875122566e-04	1.294422168e-11
-2.040000000e-02	2.321412291e-01	-1.851560927e-04	1.414714700e-11
-2.050000000e-02	2.321412232e-01	-1.827999293e-04	9.724082915e-12
-2.060000000e-02	2.321412172e-01	-1.804437662e-04	2.303805144e-11
-2.070000000e-02	2.321412111e-01	-1.780876035e-04	1.168430050e-11
-2.080000000e-02	2.321412050e-01	-1.757314412e-04	6.282503302e-12
-2.090000000e-02	2.321411988e-01	-1.733752793e-04	1.253144634e-11
-2.100000000e-02	2.321411925e-01	-1.710191178e-04	9.450126161e-12
-2.110000000e-02	2.321411861e-01	-1.686629567e-04	1.835959342e-11
-2.120000000e-02	2.321411797e-01	-1.663067960e-04	9.402976890e-12
-2.130000000e-02	2.321411732e-01	-1.639506357e-04	2.336177984e-11
-2.140000000e-02	2.321411666e-01	-1.615944758e-04	1.652116226e-11
-2.150000000e-02	2.321411600e-01	-1.592383163e-04	2.143834661e-11
-2.160000000e-02	2.321411533e-01	-1.568821572e-04	1.086848618e-11
-2.170000000e-02	2.321411465e-01	-1.545259986e-04	1.289516535e-11
-2.180000000e-02	2.321411396e-01	-1.521698404e-04	6.025714283e-12
-2.190000000e-02	2.321411327e-01	-1.498136826e-04	8.027626186e-12
-2.200000000e-02	2.321411257e-01	-1.474575252e-04	4.758341278e-12
-2.210000000e-02	2.321411186e-01	-1.451013683e-04	4.978139018e-11
-2.220000000e-02	2.321411114e-01	-1.427452118e-04	1.491701583e-11
-2.230000000e-02	2.321411042e-01	-1.403890557e-04	3.990319484e-11
-2.240000000e-02	2.321410969e-01	-1.380329001e-04	1.124054149e-11
-2.250000000e-02	2.321410896e-01	-1.356767449e-04	1.416358185e-11
-2.260000000e-02	2.321410821e-01	-1.333205902e-04	9.180587509e-12
-2.270000000e-02	2.321410746e-01	-1.309644360e-04	1.107355541e-11
-2.280000000e-02	2.321410671e-01	-1.286082822e-04	7.591133554e-12
-2.290000000e-02	2.321410594e-01	-1.262521288e-04	1.050209247e-11
-2.300000000e-02	2.321410517e-01	-1.238959760e-04	1.252787654e-11
-2.310000000e-02	2.321410439e-01	-1.215398236e-04	5.801893304e-11
-2.320000000e-02	2.321410360e-01	-1.191836717e-04	5.756642112e-11
-2.330000000e-02	2.321410281e-01	-1.168275202e-04	1.176240166e-11
-2.340000000e-02	2.321410201e-01	-1.144713693e-04	1.770529351e-11
-2.350000000e-02	2.321410120e-01	-1.121152188e-04	1.289077565e-11
-2.360000000e-02	2.321410039e-01	-1.097590688e-04	1.927431310e-11
-2.370000000e-02	2.321409956e-01	-1.074029193e-04	4.268278228e-11
-2.380000000e-02	2.321409873e-01	-1.050467703e-04	8.315287664e-12
-2.390000000e-02	2.321409790e-01	-1.026906218e-04	1.361895067e-11
-2.400000000e-02	2.321409705e-01	-1.003344738e-04	1.040425029e-11
-2.410000000e-02	2.321409620e-01	-9.797832636e-05	2.208297469e-11
-2.420000000e-02	2.321409534e-01	-9.562217938e-05	1.722718188e-11
-2.430000000e-02	2.321409448e-01	-9.326603293e-05	7.005612068e-11
-2.440000000e-02	2.321409361e-01	-9.090988698e-05	8.306055084e-12
-2.450000000e-02	2.321409273e-01	-8.855374156e-05	1.051255534e-11
-2.460000000e-02	2.321409184e-01	-8.619759666e-05	9.846840720e-12
-2.470000000e-02	2.321409095e-01	-8.384145229e-05	1.318572318e-11
-2.480000000e-02	2.321409004e-01	-8.148530846e-05	1.163622832e-11
-2.490000000e-02	2.321408914e-01	-7.912916516e-05	3.543219963e-11
-2.500000000e-02	2.321408822e-01	-7.677302240e-05	3.700615870e-11
-2.510000000e-02	2.321408730e-01	-7.441688019e-05	1.508768926e-11
-2.520000000e-02	2.321408637e-01	-7.206073851e-05	3.002734592e-11
-2.530000000e-02	2.321408543e-01	-6.970459740e-05	1.715761273e-11
-2.540000000e-02	2.321408449e-01	-6.734845683e-05	9.332620389e-12
-2.550000000e-02	2.321408353e-01	-6.499231683e-05	1.602036512e-11
-2.560000000e-02	2.321408258e-01	-6.263617738e-05	1.792363297e-11
-2.570000000e-02	2.321408161e-01	-6.028003851e-05	2.064415031e-11
-2.580000000e-02	2.321408064e-01	-5.792390020e-05	2.462139749e-11
-2.590000000e-02	2.321407966e-01	-5.556776245e-05	7.793275813e-12
-2.600000000e-02	2.321407867e-01	-5.321162529e-05	5.120718933e-12
-2.610000000e-02	2.321407768e-01	-5.085548871e-05	1.190067355e-11
-2.620000000e-02	2.321407667e-01	-4.849935271e-05	1.080266405e-11
-2.630000000e-02	2.321407567e-01	-4.614321730e-05	2.756925062e-11
-2.640000000e-02	2.321407465e-01	-4.378708248e-05	1.147858136e-11
-2.650000000e-02	2.321407363e-01	-4.143094825e-05	8.350047340e-12
-2.660000000e-02	2.321407260e-01	-3.907481462e-05	1.210910409e-11
-2.670000000e-02	2.321407156e-01	-3.671868159e-05	1.007239525e-11
-2.680000000e-02	2.321407051e-01	-3.436254917e-05	9.342171290e-12
-2.690000000e-02	2.321406946e-01	-3.200641735e-05	2.462086032e-11
-2.700000000e-02	2.321406840e-01	-2.965028615e-05	2.842496700e-11
-2.710000000e-02	2.321406734e-01	-2.729415557e-05	1.306386803e-11
-2.720000000e-02	2.321406626e-01	-2.493802560e-05	2.107929592e-11
-2.730000000e-02	2.321406518e-01	-2.258189626e-05	1.209771664e-11
-2.740000000e-02	2.321406410e-01	-2.022576754e-05	1.830502428e-11
-2.750000000e-02	2.321406300e-01	-1.786963946e-05	1.406259098e-11
-2.760000000e-02	2.321406190e-01	-1.551351201e-05	2.568897411e-11
-2.770000000e-02	2.321406079e-01	-1.315738519e-05	1.237542987e-11
-2.780000000e-02	2.321405967e-01	-1.080125902e-05	2.315813742e-11
-2.790000000e-02	2.321405855e-01	-8.445133495e-06	1.124357017e-11
-2.800000000e-02	2.321405742e-01	-6.089008618e-06	7.755437150e-12
-2.810000000e-02	2.321405628e-01	-3.732884393e-06	2.067106281e-11
-2.820000000e-02	2.321405514e-01	-1.376760823e-06	1.019887587e-11
-2.830000000e-02	2.321405398e-01	9.793620873e-07	1.325147117e-11
-2.840000000e-02	2.321405282e-01	3.335484334e-06	8.602884857e-12
-2.850000000e-02	2.321405166e-01	5.691605914e-06	1.110209123e-11
-2.860000000e-02	2.321405048e-01	8.047726822e-06	1.175478783e-11
-2.870000000e-02	2.321404930e-01	1.040384706e-05	1.609053622e-11
-2.880000000e-02	2.321404812e-01	1.275996661e-05	5.080858605e-11
-2.890000000e-02	2.321404692e-01	1.511608549e-05	2.415536920e-11
-2.900000000e-02	2.321404572e-01	1.747220368e-05	1.333000330e-11
-2.910000000e-02	2.321404451e-01	1.982832118e-05	1.303497937e-11
-2.920000000e-02	2.321404329e-01	2.218443799e-05	3.420961413e-11
-2.930000000e-02	2.321404207e-01	2.454055410e-05	6.798908280e-12
-2.940000000e-02	2.321404084e-01	2.689666952e-05	2.579649722e-11
-2.950000000e-02	2.321403960e-01	2.925278423e-05	1.732621695e-11
-2.960000000e-02	2.321403835e-01	3.160889823e-05	1.641618064e-11
-2.970000000e-02	2.321403710e-01	3.396501152e-05	7.481224643e-12
-2.980000000e-02	2.321403584e-01	3.632112410e-05	1.710528730e-11
-2.990000000e-02	2.321403457e-01	3.867723596e-05	9.081279057e-12
-3.000000000e-02	2.321403330e-01	4.103334710e-05	1.002334839e-11
