# Im(epsi1)     Re(omega/c)      Im(omega/c)      Eq(det).Opt det CON kz, R=0.5 \mum, mu_c=0.3, Re(epsi1)=3.90solve_det_conkz_vs_kz.py
0.000000000e+00	2.321647063e-01	-6.659042222e-04	1.467445559e-11
-1.000000000e-04	2.321647150e-01	-6.635478860e-04	5.269144299e-11
-2.000000000e-04	2.321647237e-01	-6.611915494e-04	1.081755721e-10
-3.000000000e-04	2.321647322e-01	-6.588352125e-04	1.687758619e-11
-4.000000000e-04	2.321647407e-01	-6.564788752e-04	1.022354097e-11
-5.000000000e-04	2.321647491e-01	-6.541225376e-04	1.577452490e-11
-6.000000000e-04	2.321647575e-01	-6.517661996e-04	5.564043269e-12
-7.000000000e-04	2.321647657e-01	-6.494098613e-04	2.327886896e-11
-8.000000000e-04	2.321647739e-01	-6.470535227e-04	1.024251444e-11
-9.000000000e-04	2.321647821e-01	-6.446971837e-04	2.479585564e-11
-1.000000000e-03	2.321647901e-01	-6.423408443e-04	1.976126659e-11
-1.100000000e-03	2.321647981e-01	-6.399845047e-04	7.305335183e-12
-1.200000000e-03	2.321648060e-01	-6.376281647e-04	2.783836050e-11
-1.300000000e-03	2.321648138e-01	-6.352718244e-04	2.763450510e-11
-1.400000000e-03	2.321648216e-01	-6.329154838e-04	6.265296288e-12
-1.500000000e-03	2.321648293e-01	-6.305591429e-04	6.858976765e-12
-1.600000000e-03	2.321648369e-01	-6.282028016e-04	2.259514667e-11
-1.700000000e-03	2.321648445e-01	-6.258464601e-04	1.235783124e-11
-1.800000000e-03	2.321648520e-01	-6.234901182e-04	1.132355663e-11
-1.900000000e-03	2.321648594e-01	-6.211337760e-04	1.169329747e-11
-2.000000000e-03	2.321648667e-01	-6.187774336e-04	1.499797001e-11
-2.100000000e-03	2.321648740e-01	-6.164210908e-04	9.560732874e-12
-2.200000000e-03	2.321648812e-01	-6.140647478e-04	9.563730101e-12
-2.300000000e-03	2.321648883e-01	-6.117084045e-04	1.471248377e-10
-2.400000000e-03	2.321648954e-01	-6.093520609e-04	1.402292657e-11
-2.500000000e-03	2.321649023e-01	-6.069957170e-04	1.250643020e-11
-2.600000000e-03	2.321649093e-01	-6.046393728e-04	1.248685355e-11
-2.700000000e-03	2.321649161e-01	-6.022830284e-04	1.361104631e-11
-2.800000000e-03	2.321649229e-01	-5.999266837e-04	2.167633048e-11
-2.900000000e-03	2.321649295e-01	-5.975703388e-04	1.628306194e-11
-3.000000000e-03	2.321649362e-01	-5.952139935e-04	1.956184682e-11
-3.100000000e-03	2.321649427e-01	-5.928576481e-04	6.712338340e-12
-3.200000000e-03	2.321649492e-01	-5.905013023e-04	1.386394263e-11
-3.300000000e-03	2.321649556e-01	-5.881449564e-04	1.053790200e-11
-3.400000000e-03	2.321649619e-01	-5.857886101e-04	2.247314497e-11
-3.500000000e-03	2.321649682e-01	-5.834322637e-04	8.024452394e-12
-3.600000000e-03	2.321649744e-01	-5.810759170e-04	1.048701281e-11
-3.700000000e-03	2.321649805e-01	-5.787195700e-04	1.562962810e-11
-3.800000000e-03	2.321649866e-01	-5.763632229e-04	2.162018118e-11
-3.900000000e-03	2.321649925e-01	-5.740068755e-04	7.551799584e-11
-4.000000000e-03	2.321649984e-01	-5.716505278e-04	1.110507419e-11
-4.100000000e-03	2.321650043e-01	-5.692941800e-04	2.515927820e-11
-4.200000000e-03	2.321650100e-01	-5.669378319e-04	9.556749867e-12
-4.300000000e-03	2.321650157e-01	-5.645814837e-04	8.477332837e-12
-4.400000000e-03	2.321650213e-01	-5.622251352e-04	1.567552755e-11
-4.500000000e-03	2.321650269e-01	-5.598687865e-04	2.427883162e-11
-4.600000000e-03	2.321650324e-01	-5.575124376e-04	6.339962674e-11
-4.700000000e-03	2.321650378e-01	-5.551560885e-04	5.082792581e-12
-4.800000000e-03	2.321650431e-01	-5.527997392e-04	6.769943726e-11
-4.900000000e-03	2.321650484e-01	-5.504433898e-04	9.191249949e-12
-5.000000000e-03	2.321650535e-01	-5.480870401e-04	1.720308807e-11
-5.100000000e-03	2.321650587e-01	-5.457306903e-04	7.749216423e-12
-5.200000000e-03	2.321650637e-01	-5.433743403e-04	2.169679330e-11
-5.300000000e-03	2.321650687e-01	-5.410179901e-04	1.331065147e-11
-5.400000000e-03	2.321650736e-01	-5.386616397e-04	1.265935432e-11
-5.500000000e-03	2.321650784e-01	-5.363052891e-04	1.720723849e-11
-5.600000000e-03	2.321650832e-01	-5.339489384e-04	2.737187863e-11
-5.700000000e-03	2.321650878e-01	-5.315925876e-04	1.177019874e-11
-5.800000000e-03	2.321650925e-01	-5.292362365e-04	1.377438966e-11
-5.900000000e-03	2.321650970e-01	-5.268798854e-04	1.193659705e-11
-6.000000000e-03	2.321651015e-01	-5.245235340e-04	6.519752331e-12
-6.100000000e-03	2.321651059e-01	-5.221671825e-04	1.224169008e-11
-6.200000000e-03	2.321651102e-01	-5.198108309e-04	6.878516705e-12
-6.300000000e-03	2.321651145e-01	-5.174544792e-04	4.533405282e-12
-6.400000000e-03	2.321651186e-01	-5.150981273e-04	7.395501029e-12
-6.500000000e-03	2.321651227e-01	-5.127417752e-04	6.039704071e-11
-6.600000000e-03	2.321651268e-01	-5.103854231e-04	1.683632887e-11
-6.700000000e-03	2.321651308e-01	-5.080290708e-04	1.457862927e-11
-6.800000000e-03	2.321651347e-01	-5.056727184e-04	2.328636926e-11
-6.900000000e-03	2.321651385e-01	-5.033163658e-04	5.891469642e-11
-7.000000000e-03	2.321651422e-01	-5.009600132e-04	1.420660999e-11
-7.100000000e-03	2.321651459e-01	-4.986036604e-04	5.577073748e-11
-7.200000000e-03	2.321651495e-01	-4.962473076e-04	2.761858977e-11
-7.300000000e-03	2.321651531e-01	-4.938909546e-04	9.918403054e-12
-7.400000000e-03	2.321651565e-01	-4.915346015e-04	4.657929435e-12
-7.500000000e-03	2.321651599e-01	-4.891782484e-04	1.560114287e-11
-7.600000000e-03	2.321651632e-01	-4.868218951e-04	1.411525905e-11
-7.700000000e-03	2.321651665e-01	-4.844655418e-04	1.012582341e-11
-7.800000000e-03	2.321651697e-01	-4.821091883e-04	1.207857835e-11
-7.900000000e-03	2.321651728e-01	-4.797528348e-04	3.093524279e-11
-8.000000000e-03	2.321651758e-01	-4.773964812e-04	9.743294829e-12
-8.100000000e-03	2.321651788e-01	-4.750401276e-04	8.539280306e-12
-8.200000000e-03	2.321651817e-01	-4.726837738e-04	4.350283411e-12
-8.300000000e-03	2.321651845e-01	-4.703274200e-04	1.962667984e-11
-8.400000000e-03	2.321651872e-01	-4.679710662e-04	7.960992360e-12
-8.500000000e-03	2.321651899e-01	-4.656147122e-04	1.729327915e-11
-8.600000000e-03	2.321651925e-01	-4.632583583e-04	7.729391572e-12
-8.700000000e-03	2.321651951e-01	-4.609020042e-04	1.776128167e-11
-8.800000000e-03	2.321651975e-01	-4.585456501e-04	9.493227511e-12
-8.900000000e-03	2.321651999e-01	-4.561892960e-04	9.517601102e-12
-9.000000000e-03	2.321652022e-01	-4.538329418e-04	3.101797211e-11
-9.100000000e-03	2.321652045e-01	-4.514765876e-04	7.540755566e-12
-9.200000000e-03	2.321652067e-01	-4.491202334e-04	2.217023261e-11
-9.300000000e-03	2.321652088e-01	-4.467638791e-04	2.662537026e-11
-9.400000000e-03	2.321652108e-01	-4.444075248e-04	1.454630894e-11
-9.500000000e-03	2.321652128e-01	-4.420511705e-04	1.672000596e-11
-9.600000000e-03	2.321652146e-01	-4.396948161e-04	1.702985594e-11
-9.700000000e-03	2.321652165e-01	-4.373384617e-04	3.635966355e-11
-9.800000000e-03	2.321652182e-01	-4.349821074e-04	1.304672363e-11
-9.900000000e-03	2.321652199e-01	-4.326257530e-04	1.034449663e-11
-1.000000000e-02	2.321652215e-01	-4.302693986e-04	9.322268592e-12
-1.010000000e-02	2.321652230e-01	-4.279130442e-04	1.528829538e-11
-1.020000000e-02	2.321652245e-01	-4.255566898e-04	1.290654514e-11
-1.030000000e-02	2.321652259e-01	-4.232003354e-04	1.811280945e-11
-1.040000000e-02	2.321652272e-01	-4.208439810e-04	1.903581811e-11
-1.050000000e-02	2.321652284e-01	-4.184876266e-04	5.860421833e-12
-1.060000000e-02	2.321652296e-01	-4.161312723e-04	5.606030462e-11
-1.070000000e-02	2.321652307e-01	-4.137749180e-04	1.397234491e-11
-1.080000000e-02	2.321652317e-01	-4.114185636e-04	1.412335678e-11
-1.090000000e-02	2.321652327e-01	-4.090622094e-04	3.925167469e-12
-1.100000000e-02	2.321652336e-01	-4.067058551e-04	1.527610532e-11
-1.110000000e-02	2.321652344e-01	-4.043495009e-04	1.150882306e-11
-1.120000000e-02	2.321652351e-01	-4.019931467e-04	1.379066051e-11
-1.130000000e-02	2.321652358e-01	-3.996367926e-04	1.009205373e-11
-1.140000000e-02	2.321652364e-01	-3.972804385e-04	5.635832102e-12
-1.150000000e-02	2.321652369e-01	-3.949240844e-04	1.130304562e-11
-1.160000000e-02	2.321652374e-01	-3.925677305e-04	1.929671452e-11
-1.170000000e-02	2.321652377e-01	-3.902113765e-04	1.544506024e-11
-1.180000000e-02	2.321652380e-01	-3.878550226e-04	8.158809371e-12
-1.190000000e-02	2.321652383e-01	-3.854986688e-04	1.344265437e-11
-1.200000000e-02	2.321652385e-01	-3.831423151e-04	1.644670512e-11
-1.210000000e-02	2.321652386e-01	-3.807859614e-04	6.745377877e-12
-1.220000000e-02	2.321652386e-01	-3.784296078e-04	1.054405420e-11
-1.230000000e-02	2.321652385e-01	-3.760732543e-04	1.674801919e-11
-1.240000000e-02	2.321652384e-01	-3.737169009e-04	8.823417742e-12
-1.250000000e-02	2.321652382e-01	-3.713605475e-04	1.021473719e-11
-1.260000000e-02	2.321652380e-01	-3.690041942e-04	1.186017624e-11
-1.270000000e-02	2.321652376e-01	-3.666478411e-04	5.225701702e-11
-1.280000000e-02	2.321652372e-01	-3.642914880e-04	1.314165477e-11
-1.290000000e-02	2.321652367e-01	-3.619351350e-04	1.302660039e-11
-1.300000000e-02	2.321652362e-01	-3.595787821e-04	1.404828985e-11
-1.310000000e-02	2.321652356e-01	-3.572224294e-04	1.990915503e-11
-1.320000000e-02	2.321652349e-01	-3.548660767e-04	2.703858629e-11
-1.330000000e-02	2.321652341e-01	-3.525097242e-04	1.799361610e-11
-1.340000000e-02	2.321652333e-01	-3.501533717e-04	1.764424902e-11
-1.350000000e-02	2.321652324e-01	-3.477970194e-04	9.901394720e-12
-1.360000000e-02	2.321652314e-01	-3.454406673e-04	5.749231859e-11
-1.370000000e-02	2.321652303e-01	-3.430843152e-04	8.349337447e-12
-1.380000000e-02	2.321652292e-01	-3.407279633e-04	2.789082545e-11
-1.390000000e-02	2.321652280e-01	-3.383716115e-04	3.274350057e-12
-1.400000000e-02	2.321652267e-01	-3.360152599e-04	1.748396667e-11
-1.410000000e-02	2.321652254e-01	-3.336589084e-04	1.219527763e-11
-1.420000000e-02	2.321652240e-01	-3.313025570e-04	5.863751949e-12
-1.430000000e-02	2.321652225e-01	-3.289462058e-04	2.275176209e-11
-1.440000000e-02	2.321652210e-01	-3.265898548e-04	1.229074273e-11
-1.450000000e-02	2.321652193e-01	-3.242335039e-04	1.141571708e-11
-1.460000000e-02	2.321652176e-01	-3.218771532e-04	8.971922228e-12
-1.470000000e-02	2.321652159e-01	-3.195208026e-04	9.056255298e-12
-1.480000000e-02	2.321652140e-01	-3.171644522e-04	4.698736054e-12
-1.490000000e-02	2.321652121e-01	-3.148081020e-04	5.513847113e-12
-1.500000000e-02	2.321652101e-01	-3.124517520e-04	2.022130407e-11
-1.510000000e-02	2.321652081e-01	-3.100954021e-04	9.561251170e-12
-1.520000000e-02	2.321652060e-01	-3.077390524e-04	9.854503999e-11
-1.530000000e-02	2.321652038e-01	-3.053827029e-04	1.349361061e-11
-1.540000000e-02	2.321652015e-01	-3.030263536e-04	1.209426332e-11
-1.550000000e-02	2.321651991e-01	-3.006700045e-04	7.659303564e-12
-1.560000000e-02	2.321651967e-01	-2.983136556e-04	2.609840582e-11
-1.570000000e-02	2.321651942e-01	-2.959573069e-04	1.196113776e-11
-1.580000000e-02	2.321651917e-01	-2.936009584e-04	2.429985927e-11
-1.590000000e-02	2.321651891e-01	-2.912446101e-04	1.122295597e-11
-1.600000000e-02	2.321651864e-01	-2.888882620e-04	1.046750269e-11
-1.610000000e-02	2.321651836e-01	-2.865319142e-04	8.311037586e-12
-1.620000000e-02	2.321651807e-01	-2.841755665e-04	1.393966392e-11
-1.630000000e-02	2.321651778e-01	-2.818192191e-04	6.861259224e-11
-1.640000000e-02	2.321651748e-01	-2.794628719e-04	2.195142494e-11
-1.650000000e-02	2.321651718e-01	-2.771065250e-04	2.066051712e-11
-1.660000000e-02	2.321651686e-01	-2.747501782e-04	3.076012532e-11
-1.670000000e-02	2.321651654e-01	-2.723938317e-04	2.205803059e-11
-1.680000000e-02	2.321651622e-01	-2.700374855e-04	2.101766716e-11
-1.690000000e-02	2.321651588e-01	-2.676811395e-04	1.006148094e-11
-1.700000000e-02	2.321651554e-01	-2.653247937e-04	1.684136372e-11
-1.710000000e-02	2.321651519e-01	-2.629684482e-04	1.652918317e-11
-1.720000000e-02	2.321651484e-01	-2.606121030e-04	8.186935699e-12
-1.730000000e-02	2.321651447e-01	-2.582557580e-04	5.354438855e-12
-1.740000000e-02	2.321651410e-01	-2.558994133e-04	1.421389739e-11
-1.750000000e-02	2.321651372e-01	-2.535430688e-04	1.370588263e-11
-1.760000000e-02	2.321651334e-01	-2.511867246e-04	1.235796109e-11
-1.770000000e-02	2.321651295e-01	-2.488303807e-04	1.777180149e-11
-1.780000000e-02	2.321651255e-01	-2.464740371e-04	5.346865297e-11
-1.790000000e-02	2.321651214e-01	-2.441176937e-04	1.985933427e-11
-1.800000000e-02	2.321651173e-01	-2.417613506e-04	1.421537351e-11
-1.810000000e-02	2.321651131e-01	-2.394050079e-04	9.888001481e-12
-1.820000000e-02	2.321651088e-01	-2.370486654e-04	1.481653273e-11
-1.830000000e-02	2.321651044e-01	-2.346923232e-04	1.107483881e-11
-1.840000000e-02	2.321651000e-01	-2.323359813e-04	1.780489805e-11
-1.850000000e-02	2.321650955e-01	-2.299796397e-04	8.766509775e-13
-1.860000000e-02	2.321650910e-01	-2.276232984e-04	8.846966489e-12
-1.870000000e-02	2.321650863e-01	-2.252669575e-04	1.374793350e-11
-1.880000000e-02	2.321650816e-01	-2.229106168e-04	1.046975233e-11
-1.890000000e-02	2.321650768e-01	-2.205542765e-04	9.849856519e-12
-1.900000000e-02	2.321650720e-01	-2.181979365e-04	6.586388967e-12
-1.910000000e-02	2.321650671e-01	-2.158415968e-04	6.178323025e-12
-1.920000000e-02	2.321650621e-01	-2.134852574e-04	5.532871730e-12
-1.930000000e-02	2.321650570e-01	-2.111289184e-04	8.723645514e-12
-1.940000000e-02	2.321650519e-01	-2.087725797e-04	3.133097648e-12
-1.950000000e-02	2.321650467e-01	-2.064162413e-04	2.613183654e-11
-1.960000000e-02	2.321650414e-01	-2.040599033e-04	4.346163813e-11
-1.970000000e-02	2.321650360e-01	-2.017035657e-04	7.904076496e-12
-1.980000000e-02	2.321650306e-01	-1.993472283e-04	7.700440730e-12
-1.990000000e-02	2.321650251e-01	-1.969908914e-04	6.064358694e-12
-2.000000000e-02	2.321650195e-01	-1.946345548e-04	1.547324962e-11
-2.010000000e-02	2.321650139e-01	-1.922782185e-04	1.190862944e-11
-2.020000000e-02	2.321650082e-01	-1.899218827e-04	1.620087209e-11
-2.030000000e-02	2.321650024e-01	-1.875655472e-04	1.122712575e-11
-2.040000000e-02	2.321649965e-01	-1.852092120e-04	8.565490749e-12
-2.050000000e-02	2.321649906e-01	-1.828528773e-04	4.227456432e-11
-2.060000000e-02	2.321649846e-01	-1.804965429e-04	1.459584836e-10
-2.070000000e-02	2.321649785e-01	-1.781402089e-04	3.237503010e-11
-2.080000000e-02	2.321649724e-01	-1.757838753e-04	4.686222215e-12
-2.090000000e-02	2.321649662e-01	-1.734275421e-04	1.472916675e-11
-2.100000000e-02	2.321649599e-01	-1.710712093e-04	3.357251785e-11
-2.110000000e-02	2.321649535e-01	-1.687148768e-04	1.927364418e-11
-2.120000000e-02	2.321649471e-01	-1.663585448e-04	2.344965323e-11
-2.130000000e-02	2.321649406e-01	-1.640022132e-04	3.345652347e-11
-2.140000000e-02	2.321649340e-01	-1.616458820e-04	1.103207919e-11
-2.150000000e-02	2.321649274e-01	-1.592895512e-04	1.320746897e-11
-2.160000000e-02	2.321649207e-01	-1.569332208e-04	5.108233879e-11
-2.170000000e-02	2.321649139e-01	-1.545768909e-04	1.228203354e-11
-2.180000000e-02	2.321649070e-01	-1.522205613e-04	1.259939918e-11
-2.190000000e-02	2.321649001e-01	-1.498642322e-04	1.843928053e-11
-2.200000000e-02	2.321648931e-01	-1.475079035e-04	6.274719708e-12
-2.210000000e-02	2.321648860e-01	-1.451515753e-04	2.396677533e-11
-2.220000000e-02	2.321648789e-01	-1.427952475e-04	6.443997878e-12
-2.230000000e-02	2.321648716e-01	-1.404389201e-04	1.107590909e-11
-2.240000000e-02	2.321648643e-01	-1.380825932e-04	1.356007909e-11
-2.250000000e-02	2.321648570e-01	-1.357262667e-04	2.364708075e-11
-2.260000000e-02	2.321648496e-01	-1.333699407e-04	1.435017651e-11
-2.270000000e-02	2.321648420e-01	-1.310136151e-04	6.074250698e-12
-2.280000000e-02	2.321648345e-01	-1.286572900e-04	4.970282237e-12
-2.290000000e-02	2.321648268e-01	-1.263009654e-04	2.152131123e-11
-2.300000000e-02	2.321648191e-01	-1.239446412e-04	3.910032400e-11
-2.310000000e-02	2.321648113e-01	-1.215883175e-04	2.101505314e-11
-2.320000000e-02	2.321648034e-01	-1.192319943e-04	7.518666835e-12
-2.330000000e-02	2.321647955e-01	-1.168756715e-04	1.321935448e-11
-2.340000000e-02	2.321647875e-01	-1.145193493e-04	7.866960978e-12
-2.350000000e-02	2.321647794e-01	-1.121630275e-04	1.305900450e-11
-2.360000000e-02	2.321647713e-01	-1.098067062e-04	3.785638469e-12
-2.370000000e-02	2.321647631e-01	-1.074503854e-04	2.946745535e-11
-2.380000000e-02	2.321647548e-01	-1.050940651e-04	1.739201817e-11
-2.390000000e-02	2.321647464e-01	-1.027377453e-04	3.634516941e-11
-2.400000000e-02	2.321647380e-01	-1.003814260e-04	1.068385797e-11
-2.410000000e-02	2.321647294e-01	-9.802510717e-05	1.605099442e-11
-2.420000000e-02	2.321647209e-01	-9.566878888e-05	8.791227716e-12
-2.430000000e-02	2.321647122e-01	-9.331247111e-05	1.767954052e-11
-2.440000000e-02	2.321647035e-01	-9.095615385e-05	4.631637928e-12
-2.450000000e-02	2.321646947e-01	-8.859983712e-05	6.845374539e-12
-2.460000000e-02	2.321646858e-01	-8.624352091e-05	1.039208486e-11
-2.470000000e-02	2.321646769e-01	-8.388720523e-05	1.057115845e-11
-2.480000000e-02	2.321646679e-01	-8.153089009e-05	1.480123622e-11
-2.490000000e-02	2.321646588e-01	-7.917457548e-05	9.973339892e-12
-2.500000000e-02	2.321646496e-01	-7.681826141e-05	1.697762890e-11
-2.510000000e-02	2.321646404e-01	-7.446194788e-05	4.868522577e-12
-2.520000000e-02	2.321646311e-01	-7.210563490e-05	2.236451659e-11
-2.530000000e-02	2.321646217e-01	-6.974932247e-05	3.544310776e-11
-2.540000000e-02	2.321646123e-01	-6.739301059e-05	2.004965723e-11
-2.550000000e-02	2.321646028e-01	-6.503669927e-05	1.590674099e-11
-2.560000000e-02	2.321645932e-01	-6.268038852e-05	3.492576189e-11
-2.570000000e-02	2.321645835e-01	-6.032407832e-05	4.044519575e-11
-2.580000000e-02	2.321645738e-01	-5.796776870e-05	8.345651399e-12
-2.590000000e-02	2.321645640e-01	-5.561145965e-05	2.193971639e-11
-2.600000000e-02	2.321645541e-01	-5.325515118e-05	1.341969131e-11
-2.610000000e-02	2.321645442e-01	-5.089884328e-05	9.540108926e-12
-2.620000000e-02	2.321645342e-01	-4.854253597e-05	1.079660290e-11
-2.630000000e-02	2.321645241e-01	-4.618622925e-05	5.090380728e-12
-2.640000000e-02	2.321645139e-01	-4.382992311e-05	1.770083851e-11
-2.650000000e-02	2.321645037e-01	-4.147361757e-05	5.400368155e-12
-2.660000000e-02	2.321644934e-01	-3.911731263e-05	2.597268158e-11
-2.670000000e-02	2.321644830e-01	-3.676100829e-05	9.432621667e-12
-2.680000000e-02	2.321644726e-01	-3.440470455e-05	1.077260955e-11
-2.690000000e-02	2.321644621e-01	-3.204840143e-05	6.210267801e-12
-2.700000000e-02	2.321644515e-01	-2.969209891e-05	4.404864506e-11
-2.710000000e-02	2.321644408e-01	-2.733579702e-05	2.560942288e-11
-2.720000000e-02	2.321644301e-01	-2.497949574e-05	2.743937758e-11
-2.730000000e-02	2.321644193e-01	-2.262319508e-05	2.225518752e-11
-2.740000000e-02	2.321644084e-01	-2.026689505e-05	1.032180259e-11
-2.750000000e-02	2.321643975e-01	-1.791059565e-05	1.741757236e-11
-2.760000000e-02	2.321643864e-01	-1.555429689e-05	1.014938567e-11
-2.770000000e-02	2.321643754e-01	-1.319799876e-05	8.120733989e-12
-2.780000000e-02	2.321643642e-01	-1.084170128e-05	1.345942753e-11
-2.790000000e-02	2.321643530e-01	-8.485404440e-06	1.705311241e-11
-2.800000000e-02	2.321643417e-01	-6.129108250e-06	9.748114520e-12
-2.810000000e-02	2.321643303e-01	-3.772812712e-06	1.953861679e-11
-2.820000000e-02	2.321643188e-01	-1.416517829e-06	1.224159907e-11
-2.830000000e-02	2.321643073e-01	9.397763940e-07	9.121042244e-12
-2.840000000e-02	2.321642957e-01	3.296069953e-06	7.662738440e-12
-2.850000000e-02	2.321642840e-01	5.652362846e-06	1.727081541e-11
-2.860000000e-02	2.321642723e-01	8.008655069e-06	1.740439363e-11
-2.870000000e-02	2.321642605e-01	1.036494662e-05	9.732859351e-12
-2.880000000e-02	2.321642486e-01	1.272123749e-05	1.071554978e-11
-2.890000000e-02	2.321642367e-01	1.507752768e-05	1.711573832e-11
-2.900000000e-02	2.321642246e-01	1.743381718e-05	6.263027961e-12
-2.910000000e-02	2.321642126e-01	1.979010599e-05	1.766505898e-11
-2.920000000e-02	2.321642004e-01	2.214639412e-05	1.093788035e-11
-2.930000000e-02	2.321641881e-01	2.450268154e-05	1.050544351e-11
-2.940000000e-02	2.321641758e-01	2.685896827e-05	1.331088160e-11
-2.950000000e-02	2.321641635e-01	2.921525430e-05	1.678029552e-11
-2.960000000e-02	2.321641510e-01	3.157153961e-05	1.706227972e-11
-2.970000000e-02	2.321641385e-01	3.392782422e-05	8.394984605e-12
-2.980000000e-02	2.321641259e-01	3.628410811e-05	1.497990410e-11
-2.990000000e-02	2.321641132e-01	3.864039129e-05	1.165507719e-11
-3.000000000e-02	2.321641005e-01	4.099667374e-05	2.362675506e-11
