# Im(epsi1)     Re(omega/c)      Im(omega/c)      Eq(det).Opt det CON kz, R=0.5 \mum, mu_c=0.3, Re(epsi1)=3.90solve_det_conkz_vs_kz.py
0.000000000e+00	2.321354355e-01	-6.657957601e-04	7.784511692e-12
-1.000000000e-04	2.321354442e-01	-6.634396348e-04	1.145811098e-11
-2.000000000e-04	2.321354529e-01	-6.610835092e-04	9.161837056e-12
-3.000000000e-04	2.321354614e-01	-6.587273832e-04	2.219350542e-11
-4.000000000e-04	2.321354699e-01	-6.563712569e-04	4.513003876e-11
-5.000000000e-04	2.321354783e-01	-6.540151302e-04	9.315105139e-12
-6.000000000e-04	2.321354867e-01	-6.516590032e-04	1.129743513e-10
-7.000000000e-04	2.321354949e-01	-6.493028758e-04	8.389512351e-12
-8.000000000e-04	2.321355031e-01	-6.469467481e-04	8.832430574e-12
-9.000000000e-04	2.321355112e-01	-6.445906201e-04	7.822784278e-12
-1.000000000e-03	2.321355193e-01	-6.422344917e-04	1.393992867e-11
-1.100000000e-03	2.321355273e-01	-6.398783630e-04	1.892772499e-11
-1.200000000e-03	2.321355352e-01	-6.375222340e-04	1.946329378e-11
-1.300000000e-03	2.321355430e-01	-6.351661046e-04	9.711155244e-12
-1.400000000e-03	2.321355508e-01	-6.328099750e-04	1.321716763e-11
-1.500000000e-03	2.321355585e-01	-6.304538450e-04	2.227396251e-11
-1.600000000e-03	2.321355661e-01	-6.280977147e-04	1.329412446e-11
-1.700000000e-03	2.321355737e-01	-6.257415841e-04	7.260508824e-11
-1.800000000e-03	2.321355811e-01	-6.233854532e-04	1.071658143e-11
-1.900000000e-03	2.321355886e-01	-6.210293220e-04	8.133005663e-12
-2.000000000e-03	2.321355959e-01	-6.186731905e-04	1.859459853e-11
-2.100000000e-03	2.321356032e-01	-6.163170587e-04	8.003825141e-12
-2.200000000e-03	2.321356104e-01	-6.139609266e-04	1.259335400e-11
-2.300000000e-03	2.321356175e-01	-6.116047942e-04	1.199934174e-11
-2.400000000e-03	2.321356245e-01	-6.092486616e-04	1.096217072e-11
-2.500000000e-03	2.321356315e-01	-6.068925286e-04	1.785186235e-11
-2.600000000e-03	2.321356384e-01	-6.045363954e-04	1.047053368e-11
-2.700000000e-03	2.321356452e-01	-6.021802620e-04	1.051372610e-11
-2.800000000e-03	2.321356520e-01	-5.998241282e-04	8.615412994e-12
-2.900000000e-03	2.321356587e-01	-5.974679942e-04	2.371480287e-10
-3.000000000e-03	2.321356653e-01	-5.951118599e-04	1.823741383e-11
-3.100000000e-03	2.321356719e-01	-5.927557254e-04	1.830700705e-10
-3.200000000e-03	2.321356783e-01	-5.903995906e-04	1.723495497e-11
-3.300000000e-03	2.321356847e-01	-5.880434556e-04	1.795481477e-11
-3.400000000e-03	2.321356911e-01	-5.856873203e-04	1.653059810e-11
-3.500000000e-03	2.321356973e-01	-5.833311848e-04	2.871318308e-11
-3.600000000e-03	2.321357035e-01	-5.809750491e-04	1.286551427e-11
-3.700000000e-03	2.321357096e-01	-5.786189131e-04	9.250713739e-12
-3.800000000e-03	2.321357157e-01	-5.762627769e-04	2.797911855e-11
-3.900000000e-03	2.321357217e-01	-5.739066404e-04	8.282795689e-12
-4.000000000e-03	2.321357276e-01	-5.715505038e-04	1.175342251e-11
-4.100000000e-03	2.321357334e-01	-5.691943669e-04	1.424488053e-11
-4.200000000e-03	2.321357392e-01	-5.668382298e-04	1.006575720e-11
-4.300000000e-03	2.321357448e-01	-5.644820925e-04	3.748114708e-11
-4.400000000e-03	2.321357505e-01	-5.621259549e-04	7.948553773e-12
-4.500000000e-03	2.321357560e-01	-5.597698172e-04	7.847391946e-12
-4.600000000e-03	2.321357615e-01	-5.574136793e-04	5.517275772e-11
-4.700000000e-03	2.321357669e-01	-5.550575411e-04	8.925938486e-12
-4.800000000e-03	2.321357722e-01	-5.527014028e-04	1.205394730e-11
-4.900000000e-03	2.321357775e-01	-5.503452643e-04	1.121597088e-11
-5.000000000e-03	2.321357827e-01	-5.479891256e-04	1.502410764e-11
-5.100000000e-03	2.321357878e-01	-5.456329867e-04	1.066811022e-11
-5.200000000e-03	2.321357928e-01	-5.432768476e-04	2.327984487e-11
-5.300000000e-03	2.321357978e-01	-5.409207084e-04	2.595652096e-11
-5.400000000e-03	2.321358027e-01	-5.385645690e-04	2.535966413e-11
-5.500000000e-03	2.321358075e-01	-5.362084294e-04	1.723194410e-11
-5.600000000e-03	2.321358123e-01	-5.338522896e-04	8.236010499e-12
-5.700000000e-03	2.321358169e-01	-5.314961497e-04	1.256020608e-11
-5.800000000e-03	2.321358216e-01	-5.291400096e-04	1.340893961e-11
-5.900000000e-03	2.321358261e-01	-5.267838694e-04	1.193950900e-11
-6.000000000e-03	2.321358306e-01	-5.244277290e-04	1.064862433e-11
-6.100000000e-03	2.321358350e-01	-5.220715885e-04	8.864845716e-12
-6.200000000e-03	2.321358393e-01	-5.197154478e-04	5.800085986e-12
-6.300000000e-03	2.321358435e-01	-5.173593070e-04	8.743387232e-12
-6.400000000e-03	2.321358477e-01	-5.150031661e-04	7.987915138e-12
-6.500000000e-03	2.321358518e-01	-5.126470250e-04	6.435349873e-12
-6.600000000e-03	2.321358559e-01	-5.102908838e-04	1.307336694e-11
-6.700000000e-03	2.321358598e-01	-5.079347425e-04	1.221672125e-11
-6.800000000e-03	2.321358637e-01	-5.055786010e-04	3.090459094e-11
-6.900000000e-03	2.321358676e-01	-5.032224594e-04	1.146629771e-11
-7.000000000e-03	2.321358713e-01	-5.008663177e-04	2.093865200e-11
-7.100000000e-03	2.321358750e-01	-4.985101759e-04	1.400697012e-11
-7.200000000e-03	2.321358786e-01	-4.961540340e-04	4.276498923e-11
-7.300000000e-03	2.321358821e-01	-4.937978920e-04	1.555517650e-11
-7.400000000e-03	2.321358856e-01	-4.914417499e-04	1.371507231e-11
-7.500000000e-03	2.321358890e-01	-4.890856077e-04	6.609945438e-12
-7.600000000e-03	2.321358923e-01	-4.867294654e-04	1.569225031e-11
-7.700000000e-03	2.321358956e-01	-4.843733230e-04	9.441035861e-12
-7.800000000e-03	2.321358987e-01	-4.820171805e-04	6.521729516e-12
-7.900000000e-03	2.321359018e-01	-4.796610380e-04	8.841771695e-12
-8.000000000e-03	2.321359049e-01	-4.773048954e-04	1.096931385e-11
-8.100000000e-03	2.321359078e-01	-4.749487526e-04	1.411560757e-11
-8.200000000e-03	2.321359107e-01	-4.725926099e-04	1.699080640e-11
-8.300000000e-03	2.321359135e-01	-4.702364670e-04	1.230160353e-11
-8.400000000e-03	2.321359163e-01	-4.678803241e-04	5.170150072e-12
-8.500000000e-03	2.321359190e-01	-4.655241811e-04	1.415357717e-11
-8.600000000e-03	2.321359216e-01	-4.631680381e-04	6.953103604e-12
-8.700000000e-03	2.321359241e-01	-4.608118950e-04	3.236087875e-11
-8.800000000e-03	2.321359266e-01	-4.584557519e-04	9.948688317e-12
-8.900000000e-03	2.321359290e-01	-4.560996087e-04	2.088951192e-11
-9.000000000e-03	2.321359313e-01	-4.537434655e-04	1.844446428e-11
-9.100000000e-03	2.321359335e-01	-4.513873222e-04	7.957412794e-12
-9.200000000e-03	2.321359357e-01	-4.490311789e-04	1.050963363e-11
-9.300000000e-03	2.321359378e-01	-4.466750356e-04	2.396089299e-11
-9.400000000e-03	2.321359398e-01	-4.443188923e-04	1.039606136e-11
-9.500000000e-03	2.321359418e-01	-4.419627489e-04	1.506621198e-11
-9.600000000e-03	2.321359437e-01	-4.396066055e-04	4.709668092e-11
-9.700000000e-03	2.321359455e-01	-4.372504621e-04	1.857426965e-11
-9.800000000e-03	2.321359472e-01	-4.348943187e-04	1.377703439e-11
-9.900000000e-03	2.321359489e-01	-4.325381752e-04	4.443957634e-11
-1.000000000e-02	2.321359505e-01	-4.301820318e-04	1.637912957e-11
-1.010000000e-02	2.321359520e-01	-4.278258884e-04	2.008942859e-11
-1.020000000e-02	2.321359535e-01	-4.254697449e-04	9.766856613e-12
-1.030000000e-02	2.321359549e-01	-4.231136015e-04	9.984865319e-12
-1.040000000e-02	2.321359562e-01	-4.207574581e-04	2.091581539e-11
-1.050000000e-02	2.321359574e-01	-4.184013147e-04	1.961858592e-11
-1.060000000e-02	2.321359586e-01	-4.160451713e-04	3.422082315e-11
-1.070000000e-02	2.321359597e-01	-4.136890279e-04	6.273309393e-12
-1.080000000e-02	2.321359607e-01	-4.113328845e-04	4.877526204e-11
-1.090000000e-02	2.321359617e-01	-4.089767412e-04	2.610904020e-11
-1.100000000e-02	2.321359626e-01	-4.066205979e-04	2.608908082e-11
-1.110000000e-02	2.321359634e-01	-4.042644547e-04	6.474644918e-12
-1.120000000e-02	2.321359641e-01	-4.019083114e-04	2.306773261e-11
-1.130000000e-02	2.321359648e-01	-3.995521683e-04	1.969772066e-11
-1.140000000e-02	2.321359654e-01	-3.971960251e-04	1.079678823e-11
-1.150000000e-02	2.321359659e-01	-3.948398820e-04	9.934945636e-12
-1.160000000e-02	2.321359664e-01	-3.924837390e-04	8.364895039e-12
-1.170000000e-02	2.321359667e-01	-3.901275960e-04	8.330842928e-11
-1.180000000e-02	2.321359670e-01	-3.877714531e-04	1.243852543e-11
-1.190000000e-02	2.321359673e-01	-3.854153103e-04	2.117588426e-11
-1.200000000e-02	2.321359674e-01	-3.830591675e-04	3.311026417e-11
-1.210000000e-02	2.321359675e-01	-3.807030248e-04	7.499343480e-12
-1.220000000e-02	2.321359676e-01	-3.783468821e-04	1.211200488e-11
-1.230000000e-02	2.321359675e-01	-3.759907396e-04	6.272403198e-12
-1.240000000e-02	2.321359674e-01	-3.736345971e-04	1.085733465e-11
-1.250000000e-02	2.321359672e-01	-3.712784547e-04	8.579010111e-12
-1.260000000e-02	2.321359669e-01	-3.689223124e-04	1.909720531e-11
-1.270000000e-02	2.321359666e-01	-3.665661702e-04	9.757994338e-12
-1.280000000e-02	2.321359662e-01	-3.642100280e-04	2.777709419e-11
-1.290000000e-02	2.321359657e-01	-3.618538860e-04	1.947736120e-11
-1.300000000e-02	2.321359652e-01	-3.594977441e-04	7.676320859e-12
-1.310000000e-02	2.321359645e-01	-3.571416023e-04	1.733080624e-11
-1.320000000e-02	2.321359638e-01	-3.547854606e-04	1.957981728e-11
-1.330000000e-02	2.321359631e-01	-3.524293190e-04	6.159635490e-12
-1.340000000e-02	2.321359622e-01	-3.500731776e-04	7.146939447e-12
-1.350000000e-02	2.321359613e-01	-3.477170362e-04	1.009657897e-11
-1.360000000e-02	2.321359604e-01	-3.453608950e-04	1.403356655e-11
-1.370000000e-02	2.321359593e-01	-3.430047539e-04	3.899742244e-11
-1.380000000e-02	2.321359582e-01	-3.406486130e-04	3.769520718e-12
-1.390000000e-02	2.321359570e-01	-3.382924721e-04	1.124754351e-11
-1.400000000e-02	2.321359557e-01	-3.359363315e-04	1.412835238e-11
-1.410000000e-02	2.321359544e-01	-3.335801909e-04	3.833925767e-11
-1.420000000e-02	2.321359530e-01	-3.312240505e-04	2.057921874e-11
-1.430000000e-02	2.321359515e-01	-3.288679103e-04	1.604010259e-11
-1.440000000e-02	2.321359499e-01	-3.265117702e-04	1.239253762e-11
-1.450000000e-02	2.321359483e-01	-3.241556303e-04	1.887300965e-11
-1.460000000e-02	2.321359466e-01	-3.217994905e-04	1.588318645e-11
-1.470000000e-02	2.321359448e-01	-3.194433509e-04	8.595624964e-12
-1.480000000e-02	2.321359430e-01	-3.170872115e-04	2.444755911e-11
-1.490000000e-02	2.321359411e-01	-3.147310722e-04	1.187340661e-11
-1.500000000e-02	2.321359391e-01	-3.123749332e-04	1.193754063e-11
-1.510000000e-02	2.321359370e-01	-3.100187942e-04	8.345027487e-12
-1.520000000e-02	2.321359349e-01	-3.076626555e-04	9.496790876e-12
-1.530000000e-02	2.321359327e-01	-3.053065170e-04	1.470094352e-11
-1.540000000e-02	2.321359304e-01	-3.029503787e-04	6.962930861e-12
-1.550000000e-02	2.321359281e-01	-3.005942405e-04	2.406894695e-11
-1.560000000e-02	2.321359257e-01	-2.982381026e-04	1.608472698e-11
-1.570000000e-02	2.321359232e-01	-2.958819648e-04	6.154676062e-12
-1.580000000e-02	2.321359206e-01	-2.935258273e-04	4.166939530e-11
-1.590000000e-02	2.321359180e-01	-2.911696899e-04	4.766632739e-11
-1.600000000e-02	2.321359153e-01	-2.888135528e-04	1.994676504e-11
-1.610000000e-02	2.321359125e-01	-2.864574159e-04	1.123833175e-11
-1.620000000e-02	2.321359097e-01	-2.841012792e-04	2.252565496e-11
-1.630000000e-02	2.321359068e-01	-2.817451428e-04	7.711111894e-12
-1.640000000e-02	2.321359038e-01	-2.793890065e-04	5.891667357e-12
-1.650000000e-02	2.321359007e-01	-2.770328705e-04	3.400859362e-11
-1.660000000e-02	2.321358976e-01	-2.746767348e-04	1.352879433e-11
-1.670000000e-02	2.321358944e-01	-2.723205992e-04	1.987181248e-11
-1.680000000e-02	2.321358911e-01	-2.699644640e-04	1.229376626e-11
-1.690000000e-02	2.321358877e-01	-2.676083289e-04	1.500780311e-11
-1.700000000e-02	2.321358843e-01	-2.652521941e-04	1.985917715e-11
-1.710000000e-02	2.321358808e-01	-2.628960596e-04	2.166577190e-11
-1.720000000e-02	2.321358773e-01	-2.605399253e-04	2.466081113e-11
-1.730000000e-02	2.321358736e-01	-2.581837913e-04	1.558659964e-11
-1.740000000e-02	2.321358699e-01	-2.558276575e-04	1.650096158e-11
-1.750000000e-02	2.321358662e-01	-2.534715240e-04	2.241229608e-11
-1.760000000e-02	2.321358623e-01	-2.511153908e-04	8.055758720e-12
-1.770000000e-02	2.321358584e-01	-2.487592578e-04	1.134701062e-11
-1.780000000e-02	2.321358544e-01	-2.464031252e-04	1.184459866e-11
-1.790000000e-02	2.321358503e-01	-2.440469928e-04	6.951942851e-12
-1.800000000e-02	2.321358462e-01	-2.416908607e-04	6.024220045e-12
-1.810000000e-02	2.321358420e-01	-2.393347288e-04	1.072691485e-11
-1.820000000e-02	2.321358377e-01	-2.369785973e-04	1.081774256e-11
-1.830000000e-02	2.321358333e-01	-2.346224661e-04	8.960714003e-12
-1.840000000e-02	2.321358289e-01	-2.322663352e-04	3.290263293e-11
-1.850000000e-02	2.321358244e-01	-2.299102045e-04	1.719078365e-11
-1.860000000e-02	2.321358199e-01	-2.275540742e-04	6.450294517e-12
-1.870000000e-02	2.321358152e-01	-2.251979442e-04	4.923428229e-12
-1.880000000e-02	2.321358105e-01	-2.228418145e-04	1.128381058e-11
-1.890000000e-02	2.321358057e-01	-2.204856851e-04	1.099803999e-11
-1.900000000e-02	2.321358009e-01	-2.181295561e-04	1.071736105e-11
-1.910000000e-02	2.321357960e-01	-2.157734274e-04	2.002623373e-11
-1.920000000e-02	2.321357910e-01	-2.134172990e-04	2.435440882e-11
-1.930000000e-02	2.321357859e-01	-2.110611709e-04	1.479465567e-11
-1.940000000e-02	2.321357807e-01	-2.087050432e-04	1.722435094e-11
-1.950000000e-02	2.321357755e-01	-2.063489158e-04	1.141146857e-11
-1.960000000e-02	2.321357703e-01	-2.039927887e-04	1.204186188e-11
-1.970000000e-02	2.321357649e-01	-2.016366620e-04	2.368268157e-10
-1.980000000e-02	2.321357595e-01	-1.992805357e-04	1.415725565e-11
-1.990000000e-02	2.321357540e-01	-1.969244097e-04	4.759902996e-11
-2.000000000e-02	2.321357484e-01	-1.945682840e-04	1.421629283e-11
-2.010000000e-02	2.321357428e-01	-1.922121588e-04	5.070344497e-12
-2.020000000e-02	2.321357370e-01	-1.898560339e-04	1.478535207e-11
-2.030000000e-02	2.321357313e-01	-1.874999093e-04	1.036490342e-11
-2.040000000e-02	2.321357254e-01	-1.851437851e-04	1.091780840e-11
-2.050000000e-02	2.321357195e-01	-1.827876614e-04	1.900464414e-11
-2.060000000e-02	2.321357135e-01	-1.804315379e-04	1.044568627e-11
-2.070000000e-02	2.321357074e-01	-1.780754149e-04	1.610241639e-11
-2.080000000e-02	2.321357013e-01	-1.757192923e-04	8.826502452e-12
-2.090000000e-02	2.321356950e-01	-1.733631700e-04	9.612743295e-12
-2.100000000e-02	2.321356888e-01	-1.710070482e-04	1.106481902e-11
-2.110000000e-02	2.321356824e-01	-1.686509267e-04	9.156055922e-12
-2.120000000e-02	2.321356760e-01	-1.662948056e-04	5.394610267e-12
-2.130000000e-02	2.321356695e-01	-1.639386850e-04	1.368029150e-11
-2.140000000e-02	2.321356629e-01	-1.615825647e-04	1.297143858e-11
-2.150000000e-02	2.321356562e-01	-1.592264449e-04	2.180467051e-11
-2.160000000e-02	2.321356495e-01	-1.568703255e-04	8.494446914e-12
-2.170000000e-02	2.321356427e-01	-1.545142065e-04	9.218061284e-12
-2.180000000e-02	2.321356359e-01	-1.521580879e-04	2.564878249e-11
-2.190000000e-02	2.321356289e-01	-1.498019698e-04	9.985565429e-12
-2.200000000e-02	2.321356219e-01	-1.474458521e-04	7.697659604e-11
-2.210000000e-02	2.321356149e-01	-1.450897348e-04	2.549899478e-11
-2.220000000e-02	2.321356077e-01	-1.427336179e-04	1.305071930e-11
-2.230000000e-02	2.321356005e-01	-1.403775015e-04	2.990007642e-11
-2.240000000e-02	2.321355932e-01	-1.380213856e-04	1.001853057e-11
-2.250000000e-02	2.321355858e-01	-1.356652701e-04	1.067652724e-11
-2.260000000e-02	2.321355784e-01	-1.333091550e-04	6.289466546e-11
-2.270000000e-02	2.321355709e-01	-1.309530404e-04	7.867824792e-12
-2.280000000e-02	2.321355633e-01	-1.285969263e-04	1.567334049e-11
-2.290000000e-02	2.321355557e-01	-1.262408126e-04	5.461244943e-12
-2.300000000e-02	2.321355479e-01	-1.238846994e-04	1.842705584e-11
-2.310000000e-02	2.321355402e-01	-1.215285867e-04	6.746248646e-11
-2.320000000e-02	2.321355323e-01	-1.191724744e-04	1.250490853e-11
-2.330000000e-02	2.321355243e-01	-1.168163626e-04	1.106262398e-11
-2.340000000e-02	2.321355163e-01	-1.144602513e-04	8.417900269e-12
-2.350000000e-02	2.321355083e-01	-1.121041405e-04	4.655087915e-11
-2.360000000e-02	2.321355001e-01	-1.097480302e-04	9.159141728e-11
-2.370000000e-02	2.321354919e-01	-1.073919203e-04	1.345960354e-11
-2.380000000e-02	2.321354836e-01	-1.050358110e-04	1.853174511e-11
-2.390000000e-02	2.321354752e-01	-1.026797021e-04	7.963804358e-12
-2.400000000e-02	2.321354668e-01	-1.003235938e-04	8.515849689e-12
-2.410000000e-02	2.321354583e-01	-9.796748598e-05	1.546597268e-11
-2.420000000e-02	2.321354497e-01	-9.561137866e-05	6.345017771e-12
-2.430000000e-02	2.321354410e-01	-9.325527185e-05	4.080520755e-11
-2.440000000e-02	2.321354323e-01	-9.089916556e-05	7.821881194e-12
-2.450000000e-02	2.321354235e-01	-8.854305980e-05	8.107287094e-12
-2.460000000e-02	2.321354146e-01	-8.618695456e-05	5.913236094e-12
-2.470000000e-02	2.321354057e-01	-8.383084984e-05	4.162975745e-12
-2.480000000e-02	2.321353967e-01	-8.147474566e-05	9.827172917e-12
-2.490000000e-02	2.321353876e-01	-7.911864201e-05	2.671450119e-11
-2.500000000e-02	2.321353785e-01	-7.676253891e-05	4.748205547e-12
-2.510000000e-02	2.321353692e-01	-7.440643635e-05	1.950280742e-11
-2.520000000e-02	2.321353599e-01	-7.205033434e-05	8.099069319e-12
-2.530000000e-02	2.321353506e-01	-6.969423287e-05	7.677202482e-12
-2.540000000e-02	2.321353411e-01	-6.733813196e-05	4.963804942e-12
-2.550000000e-02	2.321353316e-01	-6.498203161e-05	1.803754847e-11
-2.560000000e-02	2.321353220e-01	-6.262593182e-05	3.260003392e-11
-2.570000000e-02	2.321353124e-01	-6.026983260e-05	1.070175076e-11
-2.580000000e-02	2.321353026e-01	-5.791373394e-05	2.498774583e-11
-2.590000000e-02	2.321352928e-01	-5.555763586e-05	1.851419289e-11
-2.600000000e-02	2.321352830e-01	-5.320153835e-05	1.166742262e-11
-2.610000000e-02	2.321352730e-01	-5.084544142e-05	7.362302938e-12
-2.620000000e-02	2.321352630e-01	-4.848934508e-05	3.948343962e-12
-2.630000000e-02	2.321352529e-01	-4.613324932e-05	7.287734587e-12
-2.640000000e-02	2.321352427e-01	-4.377715415e-05	4.269352836e-12
-2.650000000e-02	2.321352325e-01	-4.142105958e-05	1.984547041e-11
-2.660000000e-02	2.321352222e-01	-3.906496561e-05	1.085178813e-11
-2.670000000e-02	2.321352118e-01	-3.670887223e-05	1.153482646e-11
-2.680000000e-02	2.321352014e-01	-3.435277947e-05	9.484312928e-12
-2.690000000e-02	2.321351909e-01	-3.199668731e-05	1.466936627e-11
-2.700000000e-02	2.321351803e-01	-2.964059576e-05	1.541507710e-11
-2.710000000e-02	2.321351696e-01	-2.728450483e-05	1.159590826e-11
-2.720000000e-02	2.321351589e-01	-2.492841452e-05	1.263965938e-11
-2.730000000e-02	2.321351481e-01	-2.257232483e-05	1.395044481e-11
-2.740000000e-02	2.321351372e-01	-2.021623577e-05	2.109320069e-11
-2.750000000e-02	2.321351263e-01	-1.786014734e-05	1.079081660e-11
-2.760000000e-02	2.321351152e-01	-1.550405954e-05	2.451932939e-11
-2.770000000e-02	2.321351041e-01	-1.314797238e-05	1.264941426e-11
-2.780000000e-02	2.321350930e-01	-1.079188587e-05	8.522814241e-12
-2.790000000e-02	2.321350817e-01	-8.435799996e-06	1.406802385e-11
-2.800000000e-02	2.321350704e-01	-6.079714771e-06	1.011532475e-11
-2.810000000e-02	2.321350591e-01	-3.723630202e-06	8.039213788e-12
-2.820000000e-02	2.321350476e-01	-1.367546287e-06	8.589585578e-12
-2.830000000e-02	2.321350361e-01	9.885369675e-07	2.538375332e-11
-2.840000000e-02	2.321350245e-01	3.344619559e-06	1.864031809e-11
-2.850000000e-02	2.321350128e-01	5.700701483e-06	1.704050491e-11
-2.860000000e-02	2.321350011e-01	8.056782737e-06	1.421607988e-11
-2.870000000e-02	2.321349893e-01	1.041286332e-05	8.598955369e-12
-2.880000000e-02	2.321349774e-01	1.276894322e-05	1.690873068e-11
-2.890000000e-02	2.321349655e-01	1.512502244e-05	7.327449519e-12
-2.900000000e-02	2.321349534e-01	1.748110098e-05	7.347039685e-12
-2.910000000e-02	2.321349413e-01	1.983717882e-05	2.214888599e-11
-2.920000000e-02	2.321349292e-01	2.219325598e-05	7.824205757e-12
-2.930000000e-02	2.321349169e-01	2.454933243e-05	8.918142043e-12
-2.940000000e-02	2.321349046e-01	2.690540819e-05	1.978998348e-11
-2.950000000e-02	2.321348922e-01	2.926148325e-05	1.774418118e-11
-2.960000000e-02	2.321348798e-01	3.161755760e-05	2.391711255e-11
-2.970000000e-02	2.321348673e-01	3.397363123e-05	1.170111526e-11
-2.980000000e-02	2.321348547e-01	3.632970416e-05	7.939739557e-11
-2.990000000e-02	2.321348420e-01	3.868577636e-05	2.598960503e-11
-3.000000000e-02	2.321348292e-01	4.104184785e-05	7.793493656e-12
