# Im(epsi1)     Re(omega/c)      Im(omega/c)      Eq(det).Opt det CON kz, R=0.5 \mum, mu_c=0.3, Re(epsi1)=3.90solve_det_conkz_vs_kz.py
0.000000000e+00	2.321526693e-01	-6.658596227e-04	1.718863391e-11
-1.000000000e-04	2.321526780e-01	-6.635033733e-04	9.251863339e-12
-2.000000000e-04	2.321526866e-01	-6.611471235e-04	1.667314178e-11
-3.000000000e-04	2.321526951e-01	-6.587908733e-04	8.168403200e-12
-4.000000000e-04	2.321527036e-01	-6.564346228e-04	1.649342895e-11
-5.000000000e-04	2.321527120e-01	-6.540783720e-04	1.001779495e-11
-6.000000000e-04	2.321527204e-01	-6.517221207e-04	9.512621497e-12
-7.000000000e-04	2.321527286e-01	-6.493658692e-04	6.745532663e-12
-8.000000000e-04	2.321527368e-01	-6.470096173e-04	1.861863454e-11
-9.000000000e-04	2.321527450e-01	-6.446533651e-04	1.006579684e-11
-1.000000000e-03	2.321527530e-01	-6.422971125e-04	8.446624682e-12
-1.100000000e-03	2.321527610e-01	-6.399408596e-04	1.437425512e-11
-1.200000000e-03	2.321527689e-01	-6.375846064e-04	1.295677633e-11
-1.300000000e-03	2.321527768e-01	-6.352283529e-04	1.447531651e-11
-1.400000000e-03	2.321527845e-01	-6.328720991e-04	1.271291360e-11
-1.500000000e-03	2.321527922e-01	-6.305158449e-04	1.782856690e-11
-1.600000000e-03	2.321527999e-01	-6.281595904e-04	7.294880484e-12
-1.700000000e-03	2.321528074e-01	-6.258033356e-04	7.211800331e-12
-1.800000000e-03	2.321528149e-01	-6.234470805e-04	3.782353706e-11
-1.900000000e-03	2.321528223e-01	-6.210908252e-04	2.478774417e-11
-2.000000000e-03	2.321528296e-01	-6.187345695e-04	1.567667682e-11
-2.100000000e-03	2.321528369e-01	-6.163783135e-04	1.138426096e-11
-2.200000000e-03	2.321528441e-01	-6.140220572e-04	1.493874427e-11
-2.300000000e-03	2.321528512e-01	-6.116658007e-04	9.446019983e-12
-2.400000000e-03	2.321528583e-01	-6.093095438e-04	2.314415397e-11
-2.500000000e-03	2.321528652e-01	-6.069532867e-04	2.391610962e-11
-2.600000000e-03	2.321528722e-01	-6.045970293e-04	1.121324383e-11
-2.700000000e-03	2.321528790e-01	-6.022407717e-04	2.847837231e-11
-2.800000000e-03	2.321528858e-01	-5.998845138e-04	2.624766865e-11
-2.900000000e-03	2.321528924e-01	-5.975282556e-04	1.503447678e-11
-3.000000000e-03	2.321528991e-01	-5.951719971e-04	7.781449542e-12
-3.100000000e-03	2.321529056e-01	-5.928157384e-04	2.292392736e-11
-3.200000000e-03	2.321529121e-01	-5.904594795e-04	8.174398077e-12
-3.300000000e-03	2.321529185e-01	-5.881032202e-04	2.254126303e-11
-3.400000000e-03	2.321529248e-01	-5.857469608e-04	2.608214982e-11
-3.500000000e-03	2.321529311e-01	-5.833907011e-04	1.982994613e-11
-3.600000000e-03	2.321529373e-01	-5.810344412e-04	1.433366288e-11
-3.700000000e-03	2.321529434e-01	-5.786781810e-04	1.585092822e-11
-3.800000000e-03	2.321529495e-01	-5.763219206e-04	5.726248668e-12
-3.900000000e-03	2.321529554e-01	-5.739656600e-04	9.721809460e-12
-4.000000000e-03	2.321529613e-01	-5.716093991e-04	3.907757297e-11
-4.100000000e-03	2.321529672e-01	-5.692531381e-04	8.601435237e-12
-4.200000000e-03	2.321529729e-01	-5.668968768e-04	5.346310044e-11
-4.300000000e-03	2.321529786e-01	-5.645406153e-04	4.604946664e-12
-4.400000000e-03	2.321529842e-01	-5.621843536e-04	8.814880701e-12
-4.500000000e-03	2.321529898e-01	-5.598280916e-04	1.159025188e-11
-4.600000000e-03	2.321529953e-01	-5.574718295e-04	1.479305737e-11
-4.700000000e-03	2.321530007e-01	-5.551155672e-04	1.155004180e-11
-4.800000000e-03	2.321530060e-01	-5.527593047e-04	7.755325446e-11
-4.900000000e-03	2.321530112e-01	-5.504030420e-04	1.995358524e-11
-5.000000000e-03	2.321530164e-01	-5.480467791e-04	5.554359945e-11
-5.100000000e-03	2.321530215e-01	-5.456905160e-04	7.389649989e-12
-5.200000000e-03	2.321530266e-01	-5.433342528e-04	1.805247438e-11
-5.300000000e-03	2.321530316e-01	-5.409779894e-04	9.027673698e-12
-5.400000000e-03	2.321530365e-01	-5.386217258e-04	8.572458329e-12
-5.500000000e-03	2.321530413e-01	-5.362654620e-04	1.523757166e-11
-5.600000000e-03	2.321530460e-01	-5.339091981e-04	1.123358581e-11
-5.700000000e-03	2.321530507e-01	-5.315529340e-04	1.296753945e-11
-5.800000000e-03	2.321530553e-01	-5.291966697e-04	2.174467088e-11
-5.900000000e-03	2.321530599e-01	-5.268404053e-04	2.117164677e-11
-6.000000000e-03	2.321530644e-01	-5.244841407e-04	7.990451853e-10
-6.100000000e-03	2.321530687e-01	-5.221278760e-04	5.105000532e-12
-6.200000000e-03	2.321530731e-01	-5.197716112e-04	1.065717711e-11
-6.300000000e-03	2.321530773e-01	-5.174153462e-04	5.312407134e-12
-6.400000000e-03	2.321530815e-01	-5.150590810e-04	7.766486611e-11
-6.500000000e-03	2.321530856e-01	-5.127028158e-04	5.884446956e-12
-6.600000000e-03	2.321530897e-01	-5.103465504e-04	9.214573704e-11
-6.700000000e-03	2.321530936e-01	-5.079902849e-04	1.476607130e-11
-6.800000000e-03	2.321530975e-01	-5.056340192e-04	1.487684066e-11
-6.900000000e-03	2.321531013e-01	-5.032777535e-04	1.717938444e-11
-7.000000000e-03	2.321531051e-01	-5.009214876e-04	1.091526319e-11
-7.100000000e-03	2.321531088e-01	-4.985652216e-04	2.026834944e-11
-7.200000000e-03	2.321531124e-01	-4.962089555e-04	9.447126623e-12
-7.300000000e-03	2.321531159e-01	-4.938526893e-04	5.491372987e-12
-7.400000000e-03	2.321531194e-01	-4.914964230e-04	2.942614766e-11
-7.500000000e-03	2.321531228e-01	-4.891401566e-04	1.209404033e-11
-7.600000000e-03	2.321531261e-01	-4.867838902e-04	5.781264401e-11
-7.700000000e-03	2.321531294e-01	-4.844276236e-04	8.037415695e-12
-7.800000000e-03	2.321531325e-01	-4.820713569e-04	1.531651405e-11
-7.900000000e-03	2.321531356e-01	-4.797150902e-04	4.559806582e-12
-8.000000000e-03	2.321531387e-01	-4.773588234e-04	1.850900254e-11
-8.100000000e-03	2.321531416e-01	-4.750025565e-04	2.680889328e-11
-8.200000000e-03	2.321531445e-01	-4.726462895e-04	1.406789115e-11
-8.300000000e-03	2.321531474e-01	-4.702900225e-04	1.159543486e-11
-8.400000000e-03	2.321531501e-01	-4.679337554e-04	1.711646424e-11
-8.500000000e-03	2.321531528e-01	-4.655774882e-04	8.462674254e-12
-8.600000000e-03	2.321531554e-01	-4.632212210e-04	1.456947216e-11
-8.700000000e-03	2.321531579e-01	-4.608649537e-04	7.021986319e-12
-8.800000000e-03	2.321531604e-01	-4.585086864e-04	1.178862885e-11
-8.900000000e-03	2.321531628e-01	-4.561524191e-04	1.256462707e-11
-9.000000000e-03	2.321531651e-01	-4.537961517e-04	1.014595062e-11
-9.100000000e-03	2.321531673e-01	-4.514398842e-04	6.628854860e-12
-9.200000000e-03	2.321531695e-01	-4.490836168e-04	9.609743967e-12
-9.300000000e-03	2.321531716e-01	-4.467273492e-04	1.766356041e-11
-9.400000000e-03	2.321531736e-01	-4.443710817e-04	8.497604270e-12
-9.500000000e-03	2.321531756e-01	-4.420148142e-04	1.796127337e-11
-9.600000000e-03	2.321531775e-01	-4.396585466e-04	5.070731987e-11
-9.700000000e-03	2.321531793e-01	-4.373022790e-04	2.342835843e-11
-9.800000000e-03	2.321531811e-01	-4.349460114e-04	1.725482157e-11
-9.900000000e-03	2.321531827e-01	-4.325897438e-04	6.430458345e-11
-1.000000000e-02	2.321531843e-01	-4.302334761e-04	1.117533184e-11
-1.010000000e-02	2.321531859e-01	-4.278772085e-04	1.717377045e-11
-1.020000000e-02	2.321531873e-01	-4.255209409e-04	1.981903399e-11
-1.030000000e-02	2.321531887e-01	-4.231646733e-04	2.475532417e-11
-1.040000000e-02	2.321531900e-01	-4.208084057e-04	1.399138790e-11
-1.050000000e-02	2.321531913e-01	-4.184521381e-04	1.277888820e-11
-1.060000000e-02	2.321531924e-01	-4.160958705e-04	7.461847239e-12
-1.070000000e-02	2.321531935e-01	-4.137396029e-04	8.276809770e-12
-1.080000000e-02	2.321531946e-01	-4.113833354e-04	1.567319674e-11
-1.090000000e-02	2.321531955e-01	-4.090270679e-04	2.705440419e-11
-1.100000000e-02	2.321531964e-01	-4.066708004e-04	1.792926438e-11
-1.110000000e-02	2.321531972e-01	-4.043145330e-04	1.004523410e-10
-1.120000000e-02	2.321531980e-01	-4.019582655e-04	3.365152065e-11
-1.130000000e-02	2.321531986e-01	-3.996019982e-04	7.464804017e-12
-1.140000000e-02	2.321531992e-01	-3.972457309e-04	2.427922629e-11
-1.150000000e-02	2.321531997e-01	-3.948894636e-04	1.272771510e-11
-1.160000000e-02	2.321532002e-01	-3.925331964e-04	1.032873996e-11
-1.170000000e-02	2.321532006e-01	-3.901769292e-04	7.090649203e-12
-1.180000000e-02	2.321532009e-01	-3.878206621e-04	2.786816454e-11
-1.190000000e-02	2.321532011e-01	-3.854643951e-04	1.770333147e-11
-1.200000000e-02	2.321532013e-01	-3.831081281e-04	9.667212309e-12
-1.210000000e-02	2.321532014e-01	-3.807518612e-04	2.489781717e-11
-1.220000000e-02	2.321532014e-01	-3.783955944e-04	1.937774122e-11
-1.230000000e-02	2.321532014e-01	-3.760393276e-04	2.268140311e-11
-1.240000000e-02	2.321532012e-01	-3.736830610e-04	2.644733541e-11
-1.250000000e-02	2.321532011e-01	-3.713267944e-04	1.139411172e-11
-1.260000000e-02	2.321532008e-01	-3.689705279e-04	2.680060430e-11
-1.270000000e-02	2.321532005e-01	-3.666142615e-04	9.061035628e-12
-1.280000000e-02	2.321532000e-01	-3.642579952e-04	2.752218040e-11
-1.290000000e-02	2.321531996e-01	-3.619017290e-04	1.655439798e-11
-1.300000000e-02	2.321531990e-01	-3.595454629e-04	6.657626690e-12
-1.310000000e-02	2.321531984e-01	-3.571891969e-04	2.291521615e-11
-1.320000000e-02	2.321531977e-01	-3.548329310e-04	5.077499972e-12
-1.330000000e-02	2.321531969e-01	-3.524766652e-04	1.127345848e-11
-1.340000000e-02	2.321531961e-01	-3.501203996e-04	7.675580901e-12
-1.350000000e-02	2.321531952e-01	-3.477641340e-04	2.760163840e-11
-1.360000000e-02	2.321531942e-01	-3.454078686e-04	9.971786603e-12
-1.370000000e-02	2.321531932e-01	-3.430516034e-04	1.108027056e-11
-1.380000000e-02	2.321531920e-01	-3.406953382e-04	1.416066121e-11
-1.390000000e-02	2.321531908e-01	-3.383390732e-04	8.039648641e-12
-1.400000000e-02	2.321531896e-01	-3.359828084e-04	2.349300714e-11
-1.410000000e-02	2.321531882e-01	-3.336265436e-04	1.842030714e-11
-1.420000000e-02	2.321531868e-01	-3.312702791e-04	5.216074722e-11
-1.430000000e-02	2.321531853e-01	-3.289140146e-04	7.572748582e-12
-1.440000000e-02	2.321531838e-01	-3.265577504e-04	1.411161069e-11
-1.450000000e-02	2.321531822e-01	-3.242014862e-04	7.092343684e-12
-1.460000000e-02	2.321531805e-01	-3.218452223e-04	1.202178146e-11
-1.470000000e-02	2.321531787e-01	-3.194889585e-04	1.530881392e-11
-1.480000000e-02	2.321531769e-01	-3.171326949e-04	5.208358457e-12
-1.490000000e-02	2.321531749e-01	-3.147764314e-04	1.184173943e-11
-1.500000000e-02	2.321531730e-01	-3.124201682e-04	9.925416284e-12
-1.510000000e-02	2.321531709e-01	-3.100639051e-04	2.500803667e-11
-1.520000000e-02	2.321531688e-01	-3.077076422e-04	3.728241249e-11
-1.530000000e-02	2.321531666e-01	-3.053513795e-04	4.290479949e-12
-1.540000000e-02	2.321531643e-01	-3.029951169e-04	1.110152799e-11
-1.550000000e-02	2.321531620e-01	-3.006388546e-04	2.655838362e-11
-1.560000000e-02	2.321531595e-01	-2.982825925e-04	1.971893116e-10
-1.570000000e-02	2.321531571e-01	-2.959263305e-04	2.285758659e-11
-1.580000000e-02	2.321531545e-01	-2.935700688e-04	2.021191373e-11
-1.590000000e-02	2.321531519e-01	-2.912138073e-04	6.671224881e-12
-1.600000000e-02	2.321531492e-01	-2.888575460e-04	9.992812697e-12
-1.610000000e-02	2.321531464e-01	-2.865012849e-04	1.662904920e-11
-1.620000000e-02	2.321531436e-01	-2.841450240e-04	7.842729662e-12
-1.630000000e-02	2.321531406e-01	-2.817887634e-04	2.327639209e-11
-1.640000000e-02	2.321531376e-01	-2.794325029e-04	1.259222835e-11
-1.650000000e-02	2.321531346e-01	-2.770762428e-04	1.180409963e-11
-1.660000000e-02	2.321531315e-01	-2.747199828e-04	3.656729236e-11
-1.670000000e-02	2.321531283e-01	-2.723637231e-04	1.056977668e-11
-1.680000000e-02	2.321531250e-01	-2.700074636e-04	1.418018069e-11
-1.690000000e-02	2.321531216e-01	-2.676512044e-04	6.742436444e-11
-1.700000000e-02	2.321531182e-01	-2.652949454e-04	1.906137133e-11
-1.710000000e-02	2.321531147e-01	-2.629386867e-04	6.837815636e-11
-1.720000000e-02	2.321531112e-01	-2.605824282e-04	3.977849418e-12
-1.730000000e-02	2.321531075e-01	-2.582261700e-04	1.365830572e-11
-1.740000000e-02	2.321531038e-01	-2.558699120e-04	7.962771503e-12
-1.750000000e-02	2.321531000e-01	-2.535136543e-04	1.467353475e-11
-1.760000000e-02	2.321530962e-01	-2.511573969e-04	1.055905912e-11
-1.770000000e-02	2.321530923e-01	-2.488011398e-04	4.587641062e-11
-1.780000000e-02	2.321530883e-01	-2.464448829e-04	2.430959433e-11
-1.790000000e-02	2.321530842e-01	-2.440886264e-04	2.050671247e-11
-1.800000000e-02	2.321530801e-01	-2.417323701e-04	1.176306571e-11
-1.810000000e-02	2.321530759e-01	-2.393761141e-04	5.994910344e-12
-1.820000000e-02	2.321530716e-01	-2.370198583e-04	2.388753487e-11
-1.830000000e-02	2.321530672e-01	-2.346636029e-04	8.596629480e-12
-1.840000000e-02	2.321530628e-01	-2.323073478e-04	7.970080200e-12
-1.850000000e-02	2.321530583e-01	-2.299510930e-04	1.996352744e-11
-1.860000000e-02	2.321530538e-01	-2.275948385e-04	9.468967143e-12
-1.870000000e-02	2.321530491e-01	-2.252385843e-04	5.700401482e-12
-1.880000000e-02	2.321530444e-01	-2.228823304e-04	1.638156554e-11
-1.890000000e-02	2.321530396e-01	-2.205260769e-04	8.618672720e-12
-1.900000000e-02	2.321530348e-01	-2.181698236e-04	1.230070068e-11
-1.910000000e-02	2.321530299e-01	-2.158135707e-04	1.644326610e-11
-1.920000000e-02	2.321530249e-01	-2.134573181e-04	7.223622734e-12
-1.930000000e-02	2.321530198e-01	-2.111010658e-04	2.336775073e-11
-1.940000000e-02	2.321530147e-01	-2.087448139e-04	9.318643649e-12
-1.950000000e-02	2.321530094e-01	-2.063885624e-04	2.035533793e-11
-1.960000000e-02	2.321530042e-01	-2.040323111e-04	8.155076555e-12
-1.970000000e-02	2.321529988e-01	-2.016760602e-04	1.407358882e-11
-1.980000000e-02	2.321529934e-01	-1.993198097e-04	1.117459778e-11
-1.990000000e-02	2.321529879e-01	-1.969635595e-04	7.359932342e-12
-2.000000000e-02	2.321529823e-01	-1.946073097e-04	1.944061837e-11
-2.010000000e-02	2.321529767e-01	-1.922510602e-04	6.699460301e-12
-2.020000000e-02	2.321529710e-01	-1.898948111e-04	2.437470313e-11
-2.030000000e-02	2.321529652e-01	-1.875385624e-04	1.113679816e-11
-2.040000000e-02	2.321529593e-01	-1.851823140e-04	2.536314795e-11
-2.050000000e-02	2.321529534e-01	-1.828260660e-04	8.169653402e-12
-2.060000000e-02	2.321529474e-01	-1.804698184e-04	8.127021341e-12
-2.070000000e-02	2.321529413e-01	-1.781135712e-04	1.355891113e-11
-2.080000000e-02	2.321529352e-01	-1.757573244e-04	1.443198799e-11
-2.090000000e-02	2.321529290e-01	-1.734010780e-04	2.401455392e-11
-2.100000000e-02	2.321529227e-01	-1.710448319e-04	1.140626661e-11
-2.110000000e-02	2.321529163e-01	-1.686885863e-04	7.404509289e-12
-2.120000000e-02	2.321529099e-01	-1.663323410e-04	1.255854949e-11
-2.130000000e-02	2.321529034e-01	-1.639760962e-04	1.063853774e-11
-2.140000000e-02	2.321528968e-01	-1.616198517e-04	5.863409047e-12
-2.150000000e-02	2.321528902e-01	-1.592636077e-04	1.395768703e-11
-2.160000000e-02	2.321528834e-01	-1.569073641e-04	3.981859514e-11
-2.170000000e-02	2.321528767e-01	-1.545511209e-04	1.288729714e-11
-2.180000000e-02	2.321528698e-01	-1.521948782e-04	1.078852456e-11
-2.190000000e-02	2.321528629e-01	-1.498386358e-04	9.965820243e-12
-2.200000000e-02	2.321528559e-01	-1.474823939e-04	7.898050202e-12
-2.210000000e-02	2.321528488e-01	-1.451261525e-04	6.251238093e-12
-2.220000000e-02	2.321528416e-01	-1.427699114e-04	4.731554202e-12
-2.230000000e-02	2.321528344e-01	-1.404136708e-04	6.759578218e-12
-2.240000000e-02	2.321528271e-01	-1.380574307e-04	1.119553663e-11
-2.250000000e-02	2.321528198e-01	-1.357011910e-04	3.760015133e-11
-2.260000000e-02	2.321528123e-01	-1.333449517e-04	3.418428098e-11
-2.270000000e-02	2.321528048e-01	-1.309887130e-04	1.275417080e-11
-2.280000000e-02	2.321527972e-01	-1.286324746e-04	2.678371767e-11
-2.290000000e-02	2.321527896e-01	-1.262762368e-04	6.653103520e-11
-2.300000000e-02	2.321527819e-01	-1.239199994e-04	1.081916536e-11
-2.310000000e-02	2.321527741e-01	-1.215637624e-04	9.220396159e-12
-2.320000000e-02	2.321527662e-01	-1.192075260e-04	3.303313977e-11
-2.330000000e-02	2.321527583e-01	-1.168512900e-04	1.790998730e-11
-2.340000000e-02	2.321527503e-01	-1.144950545e-04	3.827928728e-11
-2.350000000e-02	2.321527422e-01	-1.121388195e-04	4.391980347e-11
-2.360000000e-02	2.321527340e-01	-1.097825850e-04	1.466762062e-11
-2.370000000e-02	2.321527258e-01	-1.074263510e-04	1.372347390e-11
-2.380000000e-02	2.321527175e-01	-1.050701174e-04	1.320276355e-11
-2.390000000e-02	2.321527092e-01	-1.027138844e-04	1.939744000e-11
-2.400000000e-02	2.321527007e-01	-1.003576519e-04	1.357788520e-11
-2.410000000e-02	2.321526922e-01	-9.800141985e-05	4.246325820e-11
-2.420000000e-02	2.321526836e-01	-9.564518833e-05	4.620184092e-11
-2.430000000e-02	2.321526750e-01	-9.328895734e-05	1.356987813e-11
-2.440000000e-02	2.321526663e-01	-9.093272686e-05	1.560546679e-11
-2.450000000e-02	2.321526575e-01	-8.857649690e-05	2.868018444e-11
-2.460000000e-02	2.321526486e-01	-8.622026747e-05	9.498534139e-12
-2.470000000e-02	2.321526397e-01	-8.386403857e-05	6.813954229e-12
-2.480000000e-02	2.321526306e-01	-8.150781020e-05	1.180928471e-11
-2.490000000e-02	2.321526216e-01	-7.915158236e-05	2.430387206e-11
-2.500000000e-02	2.321526124e-01	-7.679535507e-05	1.110664931e-11
-2.510000000e-02	2.321526032e-01	-7.443912831e-05	1.963407927e-11
-2.520000000e-02	2.321525939e-01	-7.208290211e-05	9.147392132e-12
-2.530000000e-02	2.321525845e-01	-6.972667646e-05	7.044833074e-12
-2.540000000e-02	2.321525751e-01	-6.737045136e-05	9.875973343e-12
-2.550000000e-02	2.321525656e-01	-6.501422681e-05	6.143177402e-11
-2.560000000e-02	2.321525560e-01	-6.265800283e-05	2.709997736e-11
-2.570000000e-02	2.321525463e-01	-6.030177942e-05	6.759027404e-12
-2.580000000e-02	2.321525366e-01	-5.794555657e-05	1.501820854e-11
-2.590000000e-02	2.321525268e-01	-5.558933430e-05	1.089184064e-11
-2.600000000e-02	2.321525169e-01	-5.323311260e-05	1.132492784e-11
-2.610000000e-02	2.321525070e-01	-5.087689148e-05	1.602035859e-11
-2.620000000e-02	2.321524969e-01	-4.852067094e-05	1.213440681e-11
-2.630000000e-02	2.321524869e-01	-4.616445100e-05	1.110434625e-11
-2.640000000e-02	2.321524767e-01	-4.380823164e-05	1.090457001e-11
-2.650000000e-02	2.321524665e-01	-4.145201288e-05	1.388700679e-11
-2.660000000e-02	2.321524562e-01	-3.909579471e-05	9.131020438e-12
-2.670000000e-02	2.321524458e-01	-3.673957715e-05	1.609757088e-11
-2.680000000e-02	2.321524353e-01	-3.438336018e-05	3.741224973e-11
-2.690000000e-02	2.321524248e-01	-3.202714384e-05	8.012973842e-12
-2.700000000e-02	2.321524142e-01	-2.967092810e-05	2.843066214e-11
-2.710000000e-02	2.321524036e-01	-2.731471298e-05	1.027457367e-11
-2.720000000e-02	2.321523928e-01	-2.495849847e-05	1.028979040e-11
-2.730000000e-02	2.321523820e-01	-2.260228459e-05	2.553628232e-11
-2.740000000e-02	2.321523712e-01	-2.024607134e-05	1.026310871e-11
-2.750000000e-02	2.321523602e-01	-1.788985872e-05	6.139700884e-12
-2.760000000e-02	2.321523492e-01	-1.553364673e-05	3.390910046e-11
-2.770000000e-02	2.321523381e-01	-1.317743538e-05	1.079985904e-11
-2.780000000e-02	2.321523269e-01	-1.082122467e-05	1.228796036e-11
-2.790000000e-02	2.321523157e-01	-8.465014612e-06	1.858922648e-11
-2.800000000e-02	2.321523044e-01	-6.108805197e-06	1.089149010e-11
-2.810000000e-02	2.321522930e-01	-3.752596435e-06	9.703996369e-12
-2.820000000e-02	2.321522816e-01	-1.396388328e-06	2.086083339e-11
-2.830000000e-02	2.321522701e-01	9.598191174e-07	1.453945073e-11
-2.840000000e-02	2.321522585e-01	3.316025900e-06	4.849483235e-12
-2.850000000e-02	2.321522468e-01	5.672232016e-06	1.088322937e-11
-2.860000000e-02	2.321522351e-01	8.028437458e-06	5.986079893e-11
-2.870000000e-02	2.321522233e-01	1.038464223e-05	9.628530058e-12
-2.880000000e-02	2.321522114e-01	1.274084633e-05	1.173519833e-11
-2.890000000e-02	2.321521994e-01	1.509704974e-05	1.368883638e-11
-2.900000000e-02	2.321521874e-01	1.745325247e-05	1.097626308e-11
-2.910000000e-02	2.321521753e-01	1.980945450e-05	2.696800785e-11
-2.920000000e-02	2.321521631e-01	2.216565585e-05	2.213127707e-11
-2.930000000e-02	2.321521509e-01	2.452185650e-05	2.639314236e-11
-2.940000000e-02	2.321521386e-01	2.687805645e-05	2.861249597e-11
-2.950000000e-02	2.321521262e-01	2.923425570e-05	1.208489790e-11
-2.960000000e-02	2.321521138e-01	3.159045424e-05	2.429200878e-11
-2.970000000e-02	2.321521012e-01	3.394665207e-05	1.501095217e-11
-2.980000000e-02	2.321520886e-01	3.630284918e-05	1.824546444e-11
-2.990000000e-02	2.321520760e-01	3.865904558e-05	1.065886382e-11
-3.000000000e-02	2.321520632e-01	4.101524126e-05	8.206409587e-12
