# Im(epsi1)     Re(omega/c)      Im(omega/c)      Eq(det).Opt det CON kz, R=0.5 \mum, mu_c=0.3, Re(epsi1)=3.90solve_det_conkz_vs_kz.py
0.000000000e+00	2.321447989e-01	-6.658304596e-04	3.472009298e-11
-1.000000000e-04	2.321448076e-01	-6.634742669e-04	1.864264505e-11
-2.000000000e-04	2.321448162e-01	-6.611180739e-04	5.538224476e-12
-3.000000000e-04	2.321448248e-01	-6.587618804e-04	9.978708809e-12
-4.000000000e-04	2.321448332e-01	-6.564056866e-04	1.171639954e-11
-5.000000000e-04	2.321448417e-01	-6.540494925e-04	7.893852279e-12
-6.000000000e-04	2.321448500e-01	-6.516932980e-04	8.379761463e-12
-7.000000000e-04	2.321448583e-01	-6.493371032e-04	1.155229224e-11
-8.000000000e-04	2.321448665e-01	-6.469809080e-04	1.156454018e-11
-9.000000000e-04	2.321448746e-01	-6.446247125e-04	1.718834456e-11
-1.000000000e-03	2.321448826e-01	-6.422685167e-04	1.026845849e-11
-1.100000000e-03	2.321448906e-01	-6.399123205e-04	7.517410806e-12
-1.200000000e-03	2.321448985e-01	-6.375561240e-04	9.890934013e-12
-1.300000000e-03	2.321449064e-01	-6.351999272e-04	1.059989858e-11
-1.400000000e-03	2.321449141e-01	-6.328437301e-04	1.882418317e-11
-1.500000000e-03	2.321449218e-01	-6.304875326e-04	2.816216120e-11
-1.600000000e-03	2.321449295e-01	-6.281313349e-04	2.573035264e-11
-1.700000000e-03	2.321449370e-01	-6.257751368e-04	1.147885169e-11
-1.800000000e-03	2.321449445e-01	-6.234189384e-04	5.193498731e-11
-1.900000000e-03	2.321449519e-01	-6.210627398e-04	9.450858628e-12
-2.000000000e-03	2.321449592e-01	-6.187065408e-04	8.529707600e-12
-2.100000000e-03	2.321449665e-01	-6.163503415e-04	1.104449232e-11
-2.200000000e-03	2.321449737e-01	-6.139941420e-04	1.169052765e-11
-2.300000000e-03	2.321449808e-01	-6.116379422e-04	1.068563208e-11
-2.400000000e-03	2.321449879e-01	-6.092817420e-04	7.864851522e-12
-2.500000000e-03	2.321449949e-01	-6.069255417e-04	9.057868787e-12
-2.600000000e-03	2.321450018e-01	-6.045693410e-04	7.236895581e-12
-2.700000000e-03	2.321450086e-01	-6.022131401e-04	4.165435037e-11
-2.800000000e-03	2.321450154e-01	-5.998569388e-04	2.455557275e-11
-2.900000000e-03	2.321450221e-01	-5.975007374e-04	1.119603954e-11
-3.000000000e-03	2.321450287e-01	-5.951445356e-04	8.536605227e-12
-3.100000000e-03	2.321450352e-01	-5.927883337e-04	1.169388454e-11
-3.200000000e-03	2.321450417e-01	-5.904321314e-04	4.801741950e-12
-3.300000000e-03	2.321450481e-01	-5.880759289e-04	7.215107754e-11
-3.400000000e-03	2.321450544e-01	-5.857197262e-04	1.156566982e-11
-3.500000000e-03	2.321450607e-01	-5.833635232e-04	1.829986662e-11
-3.600000000e-03	2.321450669e-01	-5.810073200e-04	1.196510864e-11
-3.700000000e-03	2.321450730e-01	-5.786511166e-04	1.966007389e-11
-3.800000000e-03	2.321450791e-01	-5.762949129e-04	7.845062320e-12
-3.900000000e-03	2.321450850e-01	-5.739387090e-04	8.904391069e-12
-4.000000000e-03	2.321450909e-01	-5.715825048e-04	2.579740907e-11
-4.100000000e-03	2.321450968e-01	-5.692263005e-04	7.973085941e-12
-4.200000000e-03	2.321451025e-01	-5.668700959e-04	4.887232109e-11
-4.300000000e-03	2.321451082e-01	-5.645138911e-04	7.794231916e-12
-4.400000000e-03	2.321451138e-01	-5.621576862e-04	1.110089095e-11
-4.500000000e-03	2.321451194e-01	-5.598014810e-04	2.668053769e-11
-4.600000000e-03	2.321451248e-01	-5.574452756e-04	4.229997065e-12
-4.700000000e-03	2.321451302e-01	-5.550890700e-04	1.003461254e-11
-4.800000000e-03	2.321451356e-01	-5.527328642e-04	7.276115180e-12
-4.900000000e-03	2.321451408e-01	-5.503766582e-04	6.539028176e-12
-5.000000000e-03	2.321451460e-01	-5.480204520e-04	2.289469274e-11
-5.100000000e-03	2.321451511e-01	-5.456642457e-04	1.187327842e-11
-5.200000000e-03	2.321451562e-01	-5.433080391e-04	8.744979613e-12
-5.300000000e-03	2.321451611e-01	-5.409518324e-04	6.152572164e-12
-5.400000000e-03	2.321451660e-01	-5.385956256e-04	4.022908158e-12
-5.500000000e-03	2.321451709e-01	-5.362394185e-04	1.647438857e-11
-5.600000000e-03	2.321451756e-01	-5.338832113e-04	1.754161920e-11
-5.700000000e-03	2.321451803e-01	-5.315270039e-04	1.089323998e-11
-5.800000000e-03	2.321451849e-01	-5.291707964e-04	1.020692298e-11
-5.900000000e-03	2.321451895e-01	-5.268145887e-04	1.642316490e-11
-6.000000000e-03	2.321451939e-01	-5.244583808e-04	1.455187719e-10
-6.100000000e-03	2.321451983e-01	-5.221021728e-04	1.474446538e-11
-6.200000000e-03	2.321452027e-01	-5.197459647e-04	1.099407674e-11
-6.300000000e-03	2.321452069e-01	-5.173897564e-04	9.239368371e-12
-6.400000000e-03	2.321452111e-01	-5.150335480e-04	8.056093792e-12
-6.500000000e-03	2.321452152e-01	-5.126773395e-04	7.027610607e-12
-6.600000000e-03	2.321452192e-01	-5.103211308e-04	6.548357068e-12
-6.700000000e-03	2.321452232e-01	-5.079649220e-04	3.087589004e-11
-6.800000000e-03	2.321452271e-01	-5.056087131e-04	1.732340713e-11
-6.900000000e-03	2.321452309e-01	-5.032525041e-04	1.106230211e-11
-7.000000000e-03	2.321452347e-01	-5.008962949e-04	7.455381270e-12
-7.100000000e-03	2.321452384e-01	-4.985400857e-04	4.623882483e-11
-7.200000000e-03	2.321452420e-01	-4.961838763e-04	1.025959180e-11
-7.300000000e-03	2.321452455e-01	-4.938276668e-04	7.967148070e-12
-7.400000000e-03	2.321452490e-01	-4.914714572e-04	9.989082671e-12
-7.500000000e-03	2.321452524e-01	-4.891152476e-04	1.219971206e-11
-7.600000000e-03	2.321452557e-01	-4.867590378e-04	2.444646242e-11
-7.700000000e-03	2.321452589e-01	-4.844028279e-04	9.678545822e-12
-7.800000000e-03	2.321452621e-01	-4.820466180e-04	8.239033651e-12
-7.900000000e-03	2.321452652e-01	-4.796904080e-04	1.016370419e-11
-8.000000000e-03	2.321452683e-01	-4.773341979e-04	1.625308566e-11
-8.100000000e-03	2.321452712e-01	-4.749779877e-04	1.352108599e-11
-8.200000000e-03	2.321452741e-01	-4.726217775e-04	1.073555141e-11
-8.300000000e-03	2.321452769e-01	-4.702655671e-04	1.025387157e-11
-8.400000000e-03	2.321452797e-01	-4.679093568e-04	1.461699824e-11
-8.500000000e-03	2.321452824e-01	-4.655531463e-04	8.852941338e-12
-8.600000000e-03	2.321452850e-01	-4.631969358e-04	1.156578375e-11
-8.700000000e-03	2.321452875e-01	-4.608407253e-04	2.106141146e-11
-8.800000000e-03	2.321452900e-01	-4.584845147e-04	1.347950388e-11
-8.900000000e-03	2.321452923e-01	-4.561283041e-04	1.610318911e-11
-9.000000000e-03	2.321452947e-01	-4.537720934e-04	8.225379328e-12
-9.100000000e-03	2.321452969e-01	-4.514158827e-04	1.336055886e-11
-9.200000000e-03	2.321452991e-01	-4.490596719e-04	2.167873690e-11
-9.300000000e-03	2.321453012e-01	-4.467034611e-04	2.245240885e-11
-9.400000000e-03	2.321453032e-01	-4.443472503e-04	7.572198456e-12
-9.500000000e-03	2.321453052e-01	-4.419910395e-04	1.182728419e-11
-9.600000000e-03	2.321453071e-01	-4.396348286e-04	3.716484771e-12
-9.700000000e-03	2.321453089e-01	-4.372786177e-04	2.007178681e-11
-9.800000000e-03	2.321453106e-01	-4.349224068e-04	1.126807929e-11
-9.900000000e-03	2.321453123e-01	-4.325661960e-04	2.190213813e-11
-1.000000000e-02	2.321453139e-01	-4.302099850e-04	1.455235702e-11
-1.010000000e-02	2.321453154e-01	-4.278537741e-04	2.058403009e-11
-1.020000000e-02	2.321453169e-01	-4.254975632e-04	1.538384581e-11
-1.030000000e-02	2.321453183e-01	-4.231413523e-04	8.518460701e-12
-1.040000000e-02	2.321453196e-01	-4.207851415e-04	1.932698596e-11
-1.050000000e-02	2.321453208e-01	-4.184289306e-04	2.986647721e-11
-1.060000000e-02	2.321453220e-01	-4.160727197e-04	1.894551245e-11
-1.070000000e-02	2.321453231e-01	-4.137165089e-04	7.248283013e-12
-1.080000000e-02	2.321453241e-01	-4.113602981e-04	2.649211265e-11
-1.090000000e-02	2.321453251e-01	-4.090040873e-04	7.668348122e-12
-1.100000000e-02	2.321453260e-01	-4.066478765e-04	8.043517018e-12
-1.110000000e-02	2.321453268e-01	-4.042916658e-04	4.426550601e-11
-1.120000000e-02	2.321453275e-01	-4.019354551e-04	5.367414450e-12
-1.130000000e-02	2.321453282e-01	-3.995792445e-04	3.900548592e-11
-1.140000000e-02	2.321453288e-01	-3.972230339e-04	6.754208294e-12
-1.150000000e-02	2.321453293e-01	-3.948668233e-04	1.354321254e-11
-1.160000000e-02	2.321453298e-01	-3.925106128e-04	1.140978234e-11
-1.170000000e-02	2.321453301e-01	-3.901544024e-04	8.092560431e-12
-1.180000000e-02	2.321453305e-01	-3.877981920e-04	4.322029031e-11
-1.190000000e-02	2.321453307e-01	-3.854419817e-04	1.451724362e-11
-1.200000000e-02	2.321453309e-01	-3.830857714e-04	2.041985391e-11
-1.210000000e-02	2.321453310e-01	-3.807295612e-04	1.332860949e-11
-1.220000000e-02	2.321453310e-01	-3.783733511e-04	9.102770742e-12
-1.230000000e-02	2.321453309e-01	-3.760171411e-04	2.097638048e-11
-1.240000000e-02	2.321453308e-01	-3.736609312e-04	1.966068435e-11
-1.250000000e-02	2.321453306e-01	-3.713047213e-04	2.304683986e-11
-1.260000000e-02	2.321453303e-01	-3.689485115e-04	8.346248389e-12
-1.270000000e-02	2.321453300e-01	-3.665923019e-04	1.814327522e-11
-1.280000000e-02	2.321453296e-01	-3.642360923e-04	7.276787768e-12
-1.290000000e-02	2.321453291e-01	-3.618798828e-04	7.873739160e-12
-1.300000000e-02	2.321453286e-01	-3.595236734e-04	6.499876932e-12
-1.310000000e-02	2.321453280e-01	-3.571674641e-04	3.031590058e-11
-1.320000000e-02	2.321453273e-01	-3.548112550e-04	1.508269881e-11
-1.330000000e-02	2.321453265e-01	-3.524550459e-04	5.610291281e-12
-1.340000000e-02	2.321453257e-01	-3.500988370e-04	7.422797333e-12
-1.350000000e-02	2.321453247e-01	-3.477426282e-04	7.360199649e-12
-1.360000000e-02	2.321453238e-01	-3.453864195e-04	2.777188550e-11
-1.370000000e-02	2.321453227e-01	-3.430302110e-04	2.743316777e-11
-1.380000000e-02	2.321453216e-01	-3.406740025e-04	1.455024849e-11
-1.390000000e-02	2.321453204e-01	-3.383177942e-04	1.504396965e-11
-1.400000000e-02	2.321453191e-01	-3.359615861e-04	8.112765732e-12
-1.410000000e-02	2.321453178e-01	-3.336053781e-04	5.626709312e-11
-1.420000000e-02	2.321453164e-01	-3.312491702e-04	6.362106142e-11
-1.430000000e-02	2.321453149e-01	-3.288929625e-04	2.414133610e-11
-1.440000000e-02	2.321453133e-01	-3.265367550e-04	1.114988569e-11
-1.450000000e-02	2.321453117e-01	-3.241805476e-04	5.804482977e-12
-1.460000000e-02	2.321453100e-01	-3.218243404e-04	7.402034677e-12
-1.470000000e-02	2.321453082e-01	-3.194681333e-04	6.931285158e-11
-1.480000000e-02	2.321453064e-01	-3.171119264e-04	8.274643212e-12
-1.490000000e-02	2.321453045e-01	-3.147557197e-04	1.508883176e-11
-1.500000000e-02	2.321453025e-01	-3.123995131e-04	1.038393321e-11
-1.510000000e-02	2.321453005e-01	-3.100433068e-04	2.011411993e-11
-1.520000000e-02	2.321452983e-01	-3.076871006e-04	9.567271190e-12
-1.530000000e-02	2.321452961e-01	-3.053308946e-04	2.194351054e-11
-1.540000000e-02	2.321452939e-01	-3.029746888e-04	1.912617206e-11
-1.550000000e-02	2.321452915e-01	-3.006184832e-04	8.278118398e-12
-1.560000000e-02	2.321452891e-01	-2.982622778e-04	1.499607310e-11
-1.570000000e-02	2.321452866e-01	-2.959060725e-04	5.635676864e-11
-1.580000000e-02	2.321452840e-01	-2.935498675e-04	1.102369650e-11
-1.590000000e-02	2.321452814e-01	-2.911936627e-04	1.160726844e-11
-1.600000000e-02	2.321452787e-01	-2.888374582e-04	1.113518025e-11
-1.610000000e-02	2.321452759e-01	-2.864812538e-04	3.899812527e-11
-1.620000000e-02	2.321452731e-01	-2.841250496e-04	1.760456650e-11
-1.630000000e-02	2.321452702e-01	-2.817688457e-04	2.284584249e-11
-1.640000000e-02	2.321452672e-01	-2.794126420e-04	1.171726541e-11
-1.650000000e-02	2.321452641e-01	-2.770564385e-04	2.272775355e-11
-1.660000000e-02	2.321452610e-01	-2.747002353e-04	1.243465293e-11
-1.670000000e-02	2.321452578e-01	-2.723440323e-04	1.281472489e-11
-1.680000000e-02	2.321452545e-01	-2.699878296e-04	1.045489246e-11
-1.690000000e-02	2.321452512e-01	-2.676316271e-04	2.724604744e-11
-1.700000000e-02	2.321452478e-01	-2.652754248e-04	2.259358634e-11
-1.710000000e-02	2.321452443e-01	-2.629192228e-04	1.593730522e-11
-1.720000000e-02	2.321452407e-01	-2.605630210e-04	8.262212293e-12
-1.730000000e-02	2.321452371e-01	-2.582068195e-04	1.520780662e-11
-1.740000000e-02	2.321452334e-01	-2.558506183e-04	6.529523246e-12
-1.750000000e-02	2.321452296e-01	-2.534944173e-04	7.189698398e-12
-1.760000000e-02	2.321452257e-01	-2.511382167e-04	2.348562060e-11
-1.770000000e-02	2.321452218e-01	-2.487820162e-04	2.424479286e-11
-1.780000000e-02	2.321452178e-01	-2.464258161e-04	1.616281810e-11
-1.790000000e-02	2.321452138e-01	-2.440696162e-04	1.129942255e-11
-1.800000000e-02	2.321452096e-01	-2.417134167e-04	1.214584162e-11
-1.810000000e-02	2.321452054e-01	-2.393572174e-04	1.073549053e-11
-1.820000000e-02	2.321452011e-01	-2.370010184e-04	1.044178173e-11
-1.830000000e-02	2.321451968e-01	-2.346448197e-04	1.009760411e-11
-1.840000000e-02	2.321451924e-01	-2.322886213e-04	1.600119273e-11
-1.850000000e-02	2.321451879e-01	-2.299324232e-04	1.662955194e-11
-1.860000000e-02	2.321451833e-01	-2.275762254e-04	3.065751319e-11
-1.870000000e-02	2.321451787e-01	-2.252200280e-04	1.355224836e-11
-1.880000000e-02	2.321451740e-01	-2.228638308e-04	7.354273125e-12
-1.890000000e-02	2.321451692e-01	-2.205076340e-04	3.035203451e-11
-1.900000000e-02	2.321451643e-01	-2.181514374e-04	7.570334909e-12
-1.910000000e-02	2.321451594e-01	-2.157952412e-04	1.632953645e-11
-1.920000000e-02	2.321451544e-01	-2.134390454e-04	1.917952776e-11
-1.930000000e-02	2.321451493e-01	-2.110828498e-04	2.777767196e-11
-1.940000000e-02	2.321451442e-01	-2.087266547e-04	5.225996023e-12
-1.950000000e-02	2.321451390e-01	-2.063704598e-04	1.169098633e-11
-1.960000000e-02	2.321451337e-01	-2.040142653e-04	7.110972625e-12
-1.970000000e-02	2.321451283e-01	-2.016580711e-04	2.004966513e-11
-1.980000000e-02	2.321451229e-01	-1.993018773e-04	1.286191240e-11
-1.990000000e-02	2.321451174e-01	-1.969456838e-04	1.845764222e-11
-2.000000000e-02	2.321451118e-01	-1.945894907e-04	1.386875424e-11
-2.010000000e-02	2.321451062e-01	-1.922332980e-04	1.009792609e-11
-2.020000000e-02	2.321451005e-01	-1.898771056e-04	7.101927090e-12
-2.030000000e-02	2.321450947e-01	-1.875209136e-04	1.767459358e-11
-2.040000000e-02	2.321450888e-01	-1.851647220e-04	9.048130216e-12
-2.050000000e-02	2.321450829e-01	-1.828085307e-04	1.070185015e-11
-2.060000000e-02	2.321450769e-01	-1.804523398e-04	2.359825754e-11
-2.070000000e-02	2.321450708e-01	-1.780961493e-04	1.077704320e-11
-2.080000000e-02	2.321450647e-01	-1.757399592e-04	1.100853736e-11
-2.090000000e-02	2.321450585e-01	-1.733837695e-04	8.181250862e-12
-2.100000000e-02	2.321450522e-01	-1.710275802e-04	2.198570824e-11
-2.110000000e-02	2.321450458e-01	-1.686713913e-04	2.693426684e-11
-2.120000000e-02	2.321450394e-01	-1.663152027e-04	8.867188411e-12
-2.130000000e-02	2.321450329e-01	-1.639590146e-04	8.486842243e-12
-2.140000000e-02	2.321450263e-01	-1.616028269e-04	1.182255784e-11
-2.150000000e-02	2.321450197e-01	-1.592466396e-04	1.172495387e-11
-2.160000000e-02	2.321450130e-01	-1.568904527e-04	1.901449459e-11
-2.170000000e-02	2.321450062e-01	-1.545342663e-04	1.093505238e-11
-2.180000000e-02	2.321449993e-01	-1.521780802e-04	2.178943786e-11
-2.190000000e-02	2.321449924e-01	-1.498218946e-04	1.292415205e-11
-2.200000000e-02	2.321449854e-01	-1.474657094e-04	2.651119927e-11
-2.210000000e-02	2.321449783e-01	-1.451095247e-04	6.043984281e-12
-2.220000000e-02	2.321449712e-01	-1.427533404e-04	1.448983544e-11
-2.230000000e-02	2.321449639e-01	-1.403971565e-04	1.618427139e-11
-2.240000000e-02	2.321449567e-01	-1.380409731e-04	1.917703308e-11
-2.250000000e-02	2.321449493e-01	-1.356847901e-04	3.390168021e-11
-2.260000000e-02	2.321449419e-01	-1.333286076e-04	1.416986067e-11
-2.270000000e-02	2.321449343e-01	-1.309724255e-04	7.373285795e-12
-2.280000000e-02	2.321449268e-01	-1.286162439e-04	1.702273315e-11
-2.290000000e-02	2.321449191e-01	-1.262600628e-04	2.179699676e-11
-2.300000000e-02	2.321449114e-01	-1.239038821e-04	5.349670171e-12
-2.310000000e-02	2.321449036e-01	-1.215477019e-04	1.780804503e-11
-2.320000000e-02	2.321448957e-01	-1.191915222e-04	2.188531283e-11
-2.330000000e-02	2.321448878e-01	-1.168353429e-04	9.999687516e-12
-2.340000000e-02	2.321448798e-01	-1.144791641e-04	1.853843246e-11
-2.350000000e-02	2.321448717e-01	-1.121229858e-04	1.633257902e-11
-2.360000000e-02	2.321448636e-01	-1.097668080e-04	1.150517015e-11
-2.370000000e-02	2.321448553e-01	-1.074106307e-04	1.217122864e-11
-2.380000000e-02	2.321448470e-01	-1.050544539e-04	4.651059507e-11
-2.390000000e-02	2.321448387e-01	-1.026982776e-04	1.094524397e-11
-2.400000000e-02	2.321448302e-01	-1.003421018e-04	2.887564754e-11
-2.410000000e-02	2.321448217e-01	-9.798592652e-05	2.379710314e-11
-2.420000000e-02	2.321448132e-01	-9.562975173e-05	2.692972706e-11
-2.430000000e-02	2.321448045e-01	-9.327357746e-05	5.636932028e-11
-2.440000000e-02	2.321447958e-01	-9.091740370e-05	1.284034263e-11
-2.450000000e-02	2.321447870e-01	-8.856123047e-05	9.646933808e-12
-2.460000000e-02	2.321447781e-01	-8.620505776e-05	1.721849060e-11
-2.470000000e-02	2.321447692e-01	-8.384888558e-05	8.236952437e-12
-2.480000000e-02	2.321447602e-01	-8.149271393e-05	3.523865417e-11
-2.490000000e-02	2.321447511e-01	-7.913654283e-05	5.278194455e-11
-2.500000000e-02	2.321447419e-01	-7.678037225e-05	1.286616297e-11
-2.510000000e-02	2.321447327e-01	-7.442420222e-05	2.018766335e-11
-2.520000000e-02	2.321447234e-01	-7.206803274e-05	9.908423145e-12
-2.530000000e-02	2.321447140e-01	-6.971186381e-05	1.096420236e-11
-2.540000000e-02	2.321447046e-01	-6.735569543e-05	8.469752117e-12
-2.550000000e-02	2.321446951e-01	-6.499952761e-05	1.690737100e-11
-2.560000000e-02	2.321446855e-01	-6.264336035e-05	1.761795818e-11
-2.570000000e-02	2.321446758e-01	-6.028719366e-05	1.594865146e-11
-2.580000000e-02	2.321446661e-01	-5.793102754e-05	1.707731451e-11
-2.590000000e-02	2.321446563e-01	-5.557486198e-05	3.137664723e-11
-2.600000000e-02	2.321446464e-01	-5.321869701e-05	3.420144668e-11
-2.610000000e-02	2.321446365e-01	-5.086253262e-05	1.519116626e-11
-2.620000000e-02	2.321446265e-01	-4.850636880e-05	7.216436923e-12
-2.630000000e-02	2.321446164e-01	-4.615020558e-05	6.005334311e-12
-2.640000000e-02	2.321446062e-01	-4.379404294e-05	1.139410560e-11
-2.650000000e-02	2.321445960e-01	-4.143788090e-05	1.632585309e-11
-2.660000000e-02	2.321445857e-01	-3.908171946e-05	2.622611428e-11
-2.670000000e-02	2.321445753e-01	-3.672555862e-05	3.823724472e-11
-2.680000000e-02	2.321445649e-01	-3.436939838e-05	7.387444935e-12
-2.690000000e-02	2.321445543e-01	-3.201323876e-05	1.640701493e-11
-2.700000000e-02	2.321445438e-01	-2.965707974e-05	9.180037870e-12
-2.710000000e-02	2.321445331e-01	-2.730092134e-05	1.554593103e-11
-2.720000000e-02	2.321445224e-01	-2.494476357e-05	2.052490973e-11
-2.730000000e-02	2.321445116e-01	-2.258860641e-05	1.454177019e-11
-2.740000000e-02	2.321445007e-01	-2.023244988e-05	8.129749279e-12
-2.750000000e-02	2.321444897e-01	-1.787629398e-05	2.693259169e-11
-2.760000000e-02	2.321444787e-01	-1.552013872e-05	3.650349852e-11
-2.770000000e-02	2.321444676e-01	-1.316398409e-05	9.226407522e-12
-2.780000000e-02	2.321444565e-01	-1.080783011e-05	1.350475871e-11
-2.790000000e-02	2.321444452e-01	-8.451676770e-06	4.303946353e-11
-2.800000000e-02	2.321444339e-01	-6.095524075e-06	3.133526059e-11
-2.810000000e-02	2.321444225e-01	-3.739372038e-06	9.210837482e-12
-2.820000000e-02	2.321444111e-01	-1.383220656e-06	1.203646106e-11
-2.830000000e-02	2.321443996e-01	9.729300656e-07	2.561592942e-11
-2.840000000e-02	2.321443880e-01	3.329080127e-06	8.675877405e-12
-2.850000000e-02	2.321443763e-01	5.685229520e-06	1.405829769e-11
-2.860000000e-02	2.321443646e-01	8.041378242e-06	3.212700219e-11
-2.870000000e-02	2.321443528e-01	1.039752629e-05	9.082569456e-12
-2.880000000e-02	2.321443409e-01	1.275367366e-05	3.914235212e-11
-2.890000000e-02	2.321443289e-01	1.510982035e-05	8.721220651e-12
-2.900000000e-02	2.321443169e-01	1.746596635e-05	6.688471633e-12
-2.910000000e-02	2.321443048e-01	1.982211167e-05	1.774950086e-11
-2.920000000e-02	2.321442926e-01	2.217825629e-05	2.571189425e-11
-2.930000000e-02	2.321442804e-01	2.453440022e-05	1.580160522e-11
-2.940000000e-02	2.321442681e-01	2.689054344e-05	7.959508489e-12
-2.950000000e-02	2.321442557e-01	2.924668596e-05	7.086544885e-12
-2.960000000e-02	2.321442433e-01	3.160282778e-05	3.660581151e-11
-2.970000000e-02	2.321442307e-01	3.395896889e-05	2.269294602e-11
-2.980000000e-02	2.321442181e-01	3.631510928e-05	7.311248486e-12
-2.990000000e-02	2.321442055e-01	3.867124895e-05	1.307547381e-11
-3.000000000e-02	2.321441927e-01	4.102738791e-05	1.211366588e-11
