# Im(epsi1)     Re(omega/c)      Im(omega/c)      Eq(det).Opt det CON kz, R=0.5 \mum, mu_c=0.3, Re(epsi1)=3.90solve_det_conkz_vs_kz.py
0.000000000e+00	2.321578925e-01	-6.658789758e-04	9.736963055e-12
-1.000000000e-04	2.321579012e-01	-6.635226888e-04	8.493511831e-12
-2.000000000e-04	2.321579098e-01	-6.611664013e-04	1.203085304e-11
-3.000000000e-04	2.321579184e-01	-6.588101135e-04	6.683567551e-12
-4.000000000e-04	2.321579269e-01	-6.564538254e-04	1.465926260e-11
-5.000000000e-04	2.321579353e-01	-6.540975369e-04	1.659780101e-11
-6.000000000e-04	2.321579436e-01	-6.517412480e-04	2.253450844e-11
-7.000000000e-04	2.321579519e-01	-6.493849588e-04	1.020599278e-11
-8.000000000e-04	2.321579601e-01	-6.470286693e-04	9.840456292e-12
-9.000000000e-04	2.321579682e-01	-6.446723794e-04	7.274173306e-12
-1.000000000e-03	2.321579763e-01	-6.423160892e-04	2.235954036e-11
-1.100000000e-03	2.321579842e-01	-6.399597987e-04	2.255475719e-11
-1.200000000e-03	2.321579922e-01	-6.376035078e-04	2.665598469e-11
-1.300000000e-03	2.321580000e-01	-6.352472166e-04	1.526893584e-11
-1.400000000e-03	2.321580078e-01	-6.328909251e-04	5.819176916e-12
-1.500000000e-03	2.321580155e-01	-6.305346333e-04	1.295196492e-11
-1.600000000e-03	2.321580231e-01	-6.281783412e-04	6.278328656e-12
-1.700000000e-03	2.321580306e-01	-6.258220488e-04	4.839621619e-12
-1.800000000e-03	2.321580381e-01	-6.234657560e-04	7.415624431e-11
-1.900000000e-03	2.321580455e-01	-6.211094630e-04	9.900766301e-12
-2.000000000e-03	2.321580529e-01	-6.187531697e-04	3.457886897e-11
-2.100000000e-03	2.321580601e-01	-6.163968760e-04	6.092343690e-12
-2.200000000e-03	2.321580673e-01	-6.140405821e-04	1.089073845e-11
-2.300000000e-03	2.321580745e-01	-6.116842879e-04	9.666139399e-12
-2.400000000e-03	2.321580815e-01	-6.093279934e-04	1.820662096e-11
-2.500000000e-03	2.321580885e-01	-6.069716987e-04	4.422668698e-12
-2.600000000e-03	2.321580954e-01	-6.046154036e-04	7.245313157e-12
-2.700000000e-03	2.321581022e-01	-6.022591083e-04	1.699897565e-11
-2.800000000e-03	2.321581090e-01	-5.999028128e-04	2.915048663e-11
-2.900000000e-03	2.321581157e-01	-5.975465169e-04	9.695351356e-12
-3.000000000e-03	2.321581223e-01	-5.951902208e-04	1.106682216e-11
-3.100000000e-03	2.321581289e-01	-5.928339245e-04	1.298638663e-11
-3.200000000e-03	2.321581353e-01	-5.904776279e-04	1.276911307e-11
-3.300000000e-03	2.321581417e-01	-5.881213310e-04	7.068294600e-11
-3.400000000e-03	2.321581481e-01	-5.857650339e-04	1.288512474e-11
-3.500000000e-03	2.321581543e-01	-5.834087366e-04	1.283453507e-11
-3.600000000e-03	2.321581605e-01	-5.810524390e-04	1.900664782e-11
-3.700000000e-03	2.321581666e-01	-5.786961412e-04	7.101894617e-12
-3.800000000e-03	2.321581727e-01	-5.763398431e-04	1.084450614e-11
-3.900000000e-03	2.321581787e-01	-5.739835448e-04	3.010719752e-11
-4.000000000e-03	2.321581846e-01	-5.716272463e-04	9.713843687e-12
-4.100000000e-03	2.321581904e-01	-5.692709476e-04	8.406235656e-12
-4.200000000e-03	2.321581962e-01	-5.669146487e-04	5.498809957e-12
-4.300000000e-03	2.321582019e-01	-5.645583495e-04	1.232636420e-11
-4.400000000e-03	2.321582075e-01	-5.622020502e-04	1.400861696e-11
-4.500000000e-03	2.321582130e-01	-5.598457506e-04	1.359375617e-11
-4.600000000e-03	2.321582185e-01	-5.574894508e-04	1.679916231e-11
-4.700000000e-03	2.321582239e-01	-5.551331509e-04	7.053504074e-12
-4.800000000e-03	2.321582292e-01	-5.527768507e-04	1.074253027e-11
-4.900000000e-03	2.321582345e-01	-5.504205504e-04	2.885367883e-11
-5.000000000e-03	2.321582397e-01	-5.480642498e-04	2.124424838e-11
-5.100000000e-03	2.321582448e-01	-5.457079491e-04	1.144140676e-11
-5.200000000e-03	2.321582498e-01	-5.433516482e-04	4.357876998e-11
-5.300000000e-03	2.321582548e-01	-5.409953471e-04	1.953962270e-11
-5.400000000e-03	2.321582597e-01	-5.386390459e-04	3.223104587e-11
-5.500000000e-03	2.321582645e-01	-5.362827445e-04	9.375084394e-12
-5.600000000e-03	2.321582693e-01	-5.339264429e-04	4.417974039e-11
-5.700000000e-03	2.321582740e-01	-5.315701411e-04	6.073494988e-12
-5.800000000e-03	2.321582786e-01	-5.292138392e-04	7.293964706e-11
-5.900000000e-03	2.321582831e-01	-5.268575372e-04	4.005923890e-11
-6.000000000e-03	2.321582876e-01	-5.245012350e-04	2.085498974e-11
-6.100000000e-03	2.321582920e-01	-5.221449326e-04	8.690192331e-12
-6.200000000e-03	2.321582963e-01	-5.197886301e-04	6.854679318e-12
-6.300000000e-03	2.321583006e-01	-5.174323275e-04	7.120864701e-12
-6.400000000e-03	2.321583048e-01	-5.150760247e-04	1.958720599e-11
-6.500000000e-03	2.321583089e-01	-5.127197218e-04	1.275714335e-11
-6.600000000e-03	2.321583129e-01	-5.103634187e-04	6.990054649e-12
-6.700000000e-03	2.321583169e-01	-5.080071156e-04	1.892593526e-11
-6.800000000e-03	2.321583208e-01	-5.056508123e-04	1.316310873e-11
-6.900000000e-03	2.321583246e-01	-5.032945089e-04	1.478522840e-11
-7.000000000e-03	2.321583284e-01	-5.009382053e-04	3.101994432e-11
-7.100000000e-03	2.321583320e-01	-4.985819017e-04	2.954606192e-11
-7.200000000e-03	2.321583356e-01	-4.962255980e-04	2.943805388e-11
-7.300000000e-03	2.321583392e-01	-4.938692941e-04	8.870066029e-12
-7.400000000e-03	2.321583426e-01	-4.915129902e-04	1.194409475e-11
-7.500000000e-03	2.321583460e-01	-4.891566861e-04	2.965252542e-11
-7.600000000e-03	2.321583494e-01	-4.868003820e-04	1.651188962e-11
-7.700000000e-03	2.321583526e-01	-4.844440778e-04	7.275404267e-12
-7.800000000e-03	2.321583558e-01	-4.820877735e-04	2.710009459e-10
-7.900000000e-03	2.321583589e-01	-4.797314691e-04	4.638789136e-11
-8.000000000e-03	2.321583619e-01	-4.773751646e-04	1.252279543e-11
-8.100000000e-03	2.321583649e-01	-4.750188601e-04	6.186480248e-12
-8.200000000e-03	2.321583678e-01	-4.726625555e-04	1.194833699e-11
-8.300000000e-03	2.321583706e-01	-4.703062508e-04	4.125423597e-11
-8.400000000e-03	2.321583734e-01	-4.679499460e-04	9.419755661e-11
-8.500000000e-03	2.321583760e-01	-4.655936412e-04	5.912710652e-12
-8.600000000e-03	2.321583786e-01	-4.632373364e-04	2.112392685e-11
-8.700000000e-03	2.321583812e-01	-4.608810315e-04	6.474135776e-12
-8.800000000e-03	2.321583836e-01	-4.585247265e-04	1.402511949e-11
-8.900000000e-03	2.321583860e-01	-4.561684215e-04	1.557157786e-11
-9.000000000e-03	2.321583883e-01	-4.538121164e-04	9.995227131e-12
-9.100000000e-03	2.321583906e-01	-4.514558113e-04	1.448308411e-11
-9.200000000e-03	2.321583928e-01	-4.490995062e-04	1.251004259e-11
-9.300000000e-03	2.321583949e-01	-4.467432011e-04	1.143404407e-11
-9.400000000e-03	2.321583969e-01	-4.443868959e-04	3.007856421e-11
-9.500000000e-03	2.321583989e-01	-4.420305907e-04	8.258125489e-12
-9.600000000e-03	2.321584008e-01	-4.396742854e-04	9.023404566e-12
-9.700000000e-03	2.321584026e-01	-4.373179802e-04	6.292784628e-12
-9.800000000e-03	2.321584043e-01	-4.349616749e-04	8.824286799e-12
-9.900000000e-03	2.321584060e-01	-4.326053697e-04	1.822863613e-11
-1.000000000e-02	2.321584076e-01	-4.302490644e-04	8.751226714e-12
-1.010000000e-02	2.321584091e-01	-4.278927591e-04	2.724733294e-11
-1.020000000e-02	2.321584106e-01	-4.255364539e-04	1.002948876e-11
-1.030000000e-02	2.321584120e-01	-4.231801486e-04	1.650271570e-11
-1.040000000e-02	2.321584133e-01	-4.208238433e-04	3.737250896e-11
-1.050000000e-02	2.321584145e-01	-4.184675381e-04	1.168871675e-11
-1.060000000e-02	2.321584157e-01	-4.161112329e-04	2.730035914e-11
-1.070000000e-02	2.321584168e-01	-4.137549276e-04	1.971802467e-11
-1.080000000e-02	2.321584178e-01	-4.113986225e-04	1.881397784e-11
-1.090000000e-02	2.321584188e-01	-4.090423173e-04	2.743912608e-11
-1.100000000e-02	2.321584197e-01	-4.066860122e-04	7.779077494e-12
-1.110000000e-02	2.321584205e-01	-4.043297071e-04	1.033940592e-11
-1.120000000e-02	2.321584212e-01	-4.019734020e-04	9.573181566e-12
-1.130000000e-02	2.321584219e-01	-3.996170970e-04	7.634836566e-11
-1.140000000e-02	2.321584225e-01	-3.972607920e-04	2.063923092e-11
-1.150000000e-02	2.321584230e-01	-3.949044871e-04	5.499765365e-12
-1.160000000e-02	2.321584235e-01	-3.925481822e-04	3.966108400e-12
-1.170000000e-02	2.321584238e-01	-3.901918774e-04	1.436895903e-11
-1.180000000e-02	2.321584242e-01	-3.878355727e-04	1.420605182e-11
-1.190000000e-02	2.321584244e-01	-3.854792680e-04	1.439657547e-11
-1.200000000e-02	2.321584246e-01	-3.831229634e-04	2.995896716e-11
-1.210000000e-02	2.321584247e-01	-3.807666588e-04	7.429887328e-12
-1.220000000e-02	2.321584247e-01	-3.784103543e-04	5.032705360e-12
-1.230000000e-02	2.321584246e-01	-3.760540499e-04	3.651515940e-11
-1.240000000e-02	2.321584245e-01	-3.736977456e-04	1.410861554e-11
-1.250000000e-02	2.321584243e-01	-3.713414414e-04	1.571661182e-11
-1.260000000e-02	2.321584241e-01	-3.689851373e-04	7.319739002e-11
-1.270000000e-02	2.321584237e-01	-3.666288332e-04	2.638005808e-11
-1.280000000e-02	2.321584233e-01	-3.642725293e-04	2.359825479e-11
-1.290000000e-02	2.321584228e-01	-3.619162254e-04	8.974365562e-12
-1.300000000e-02	2.321584223e-01	-3.595599217e-04	1.172275499e-11
-1.310000000e-02	2.321584217e-01	-3.572036180e-04	5.633210460e-12
-1.320000000e-02	2.321584210e-01	-3.548473145e-04	7.074882125e-12
-1.330000000e-02	2.321584202e-01	-3.524910111e-04	1.400858564e-11
-1.340000000e-02	2.321584194e-01	-3.501347078e-04	1.404314458e-11
-1.350000000e-02	2.321584185e-01	-3.477784046e-04	1.379086023e-11
-1.360000000e-02	2.321584175e-01	-3.454221015e-04	6.784315125e-12
-1.370000000e-02	2.321584164e-01	-3.430657986e-04	1.144490421e-11
-1.380000000e-02	2.321584153e-01	-3.407094958e-04	1.013645977e-11
-1.390000000e-02	2.321584141e-01	-3.383531931e-04	1.103697288e-11
-1.400000000e-02	2.321584128e-01	-3.359968906e-04	3.338199781e-12
-1.410000000e-02	2.321584115e-01	-3.336405883e-04	1.849695659e-11
-1.420000000e-02	2.321584101e-01	-3.312842860e-04	3.820467966e-11
-1.430000000e-02	2.321584086e-01	-3.289279840e-04	6.311162034e-11
-1.440000000e-02	2.321584071e-01	-3.265716820e-04	1.237194869e-11
-1.450000000e-02	2.321584054e-01	-3.242153803e-04	1.975241152e-11
-1.460000000e-02	2.321584037e-01	-3.218590787e-04	5.137161072e-12
-1.470000000e-02	2.321584020e-01	-3.195027772e-04	7.221440576e-12
-1.480000000e-02	2.321584001e-01	-3.171464760e-04	7.792900266e-12
-1.490000000e-02	2.321583982e-01	-3.147901749e-04	1.203254621e-11
-1.500000000e-02	2.321583962e-01	-3.124338740e-04	1.992302564e-11
-1.510000000e-02	2.321583942e-01	-3.100775732e-04	1.217194628e-11
-1.520000000e-02	2.321583920e-01	-3.077212727e-04	8.578961748e-12
-1.530000000e-02	2.321583898e-01	-3.053649723e-04	1.029330132e-11
-1.540000000e-02	2.321583876e-01	-3.030086721e-04	8.186095433e-12
-1.550000000e-02	2.321583852e-01	-3.006523721e-04	1.232144810e-11
-1.560000000e-02	2.321583828e-01	-2.982960723e-04	1.594440920e-11
-1.570000000e-02	2.321583803e-01	-2.959397728e-04	1.476378254e-11
-1.580000000e-02	2.321583778e-01	-2.935834734e-04	1.722292367e-11
-1.590000000e-02	2.321583751e-01	-2.912271742e-04	1.268667458e-11
-1.600000000e-02	2.321583724e-01	-2.888708753e-04	9.705550562e-12
-1.610000000e-02	2.321583697e-01	-2.865145765e-04	1.117777254e-11
-1.620000000e-02	2.321583668e-01	-2.841582780e-04	1.594256583e-11
-1.630000000e-02	2.321583639e-01	-2.818019797e-04	2.124574816e-12
-1.640000000e-02	2.321583609e-01	-2.794456816e-04	3.342307914e-11
-1.650000000e-02	2.321583579e-01	-2.770893838e-04	8.093164894e-12
-1.660000000e-02	2.321583547e-01	-2.747330862e-04	1.377805006e-11
-1.670000000e-02	2.321583515e-01	-2.723767888e-04	2.139342629e-11
-1.680000000e-02	2.321583483e-01	-2.700204917e-04	3.386648351e-11
-1.690000000e-02	2.321583449e-01	-2.676641948e-04	1.406190451e-11
-1.700000000e-02	2.321583415e-01	-2.653078982e-04	1.283214605e-11
-1.710000000e-02	2.321583380e-01	-2.629516018e-04	1.283672970e-11
-1.720000000e-02	2.321583344e-01	-2.605953057e-04	1.438679058e-11
-1.730000000e-02	2.321583308e-01	-2.582390098e-04	1.605170796e-11
-1.740000000e-02	2.321583271e-01	-2.558827142e-04	5.310996962e-12
-1.750000000e-02	2.321583233e-01	-2.535264189e-04	5.969616070e-12
-1.760000000e-02	2.321583195e-01	-2.511701238e-04	1.695759684e-11
-1.770000000e-02	2.321583156e-01	-2.488138290e-04	1.345320025e-11
-1.780000000e-02	2.321583116e-01	-2.464575345e-04	9.618665456e-12
-1.790000000e-02	2.321583075e-01	-2.441012403e-04	6.502716101e-12
-1.800000000e-02	2.321583034e-01	-2.417449463e-04	1.726015620e-11
-1.810000000e-02	2.321582992e-01	-2.393886527e-04	1.116569149e-11
-1.820000000e-02	2.321582949e-01	-2.370323593e-04	2.317251800e-11
-1.830000000e-02	2.321582905e-01	-2.346760663e-04	9.406466787e-12
-1.840000000e-02	2.321582861e-01	-2.323197735e-04	8.785569917e-12
-1.850000000e-02	2.321582816e-01	-2.299634810e-04	1.158126003e-11
-1.860000000e-02	2.321582770e-01	-2.276071889e-04	1.568389922e-11
-1.870000000e-02	2.321582724e-01	-2.252508970e-04	2.665118150e-11
-1.880000000e-02	2.321582677e-01	-2.228946055e-04	1.202153151e-11
-1.890000000e-02	2.321582629e-01	-2.205383143e-04	3.219901387e-11
-1.900000000e-02	2.321582581e-01	-2.181820234e-04	5.523795144e-11
-1.910000000e-02	2.321582531e-01	-2.158257328e-04	5.893561075e-12
-1.920000000e-02	2.321582481e-01	-2.134694426e-04	1.034642413e-11
-1.930000000e-02	2.321582431e-01	-2.111131527e-04	1.020920551e-11
-1.940000000e-02	2.321582379e-01	-2.087568631e-04	3.896745566e-11
-1.950000000e-02	2.321582327e-01	-2.064005739e-04	1.487531755e-11
-1.960000000e-02	2.321582274e-01	-2.040442850e-04	8.686767157e-11
-1.970000000e-02	2.321582221e-01	-2.016879964e-04	7.935617173e-12
-1.980000000e-02	2.321582167e-01	-1.993317083e-04	1.318930056e-11
-1.990000000e-02	2.321582112e-01	-1.969754204e-04	7.314284679e-12
-2.000000000e-02	2.321582056e-01	-1.946191329e-04	3.985978850e-11
-2.010000000e-02	2.321582000e-01	-1.922628458e-04	8.860506496e-12
-2.020000000e-02	2.321581942e-01	-1.899065591e-04	1.270296032e-11
-2.030000000e-02	2.321581885e-01	-1.875502727e-04	4.905356396e-11
-2.040000000e-02	2.321581826e-01	-1.851939867e-04	2.289353631e-11
-2.050000000e-02	2.321581767e-01	-1.828377011e-04	1.161833044e-11
-2.060000000e-02	2.321581707e-01	-1.804814158e-04	9.581827441e-12
-2.070000000e-02	2.321581646e-01	-1.781251309e-04	1.929624108e-11
-2.080000000e-02	2.321581585e-01	-1.757688465e-04	7.830318605e-12
-2.090000000e-02	2.321581522e-01	-1.734125624e-04	1.797345087e-11
-2.100000000e-02	2.321581460e-01	-1.710562787e-04	8.102288708e-12
-2.110000000e-02	2.321581396e-01	-1.686999954e-04	1.143494135e-11
-2.120000000e-02	2.321581332e-01	-1.663437125e-04	1.637361262e-11
-2.130000000e-02	2.321581267e-01	-1.639874300e-04	1.232759210e-11
-2.140000000e-02	2.321581201e-01	-1.616311479e-04	1.532492964e-11
-2.150000000e-02	2.321581135e-01	-1.592748662e-04	1.067246016e-11
-2.160000000e-02	2.321581067e-01	-1.569185850e-04	2.209006084e-11
-2.170000000e-02	2.321580999e-01	-1.545623041e-04	6.394278691e-12
-2.180000000e-02	2.321580931e-01	-1.522060237e-04	7.754867817e-12
-2.190000000e-02	2.321580862e-01	-1.498497437e-04	6.242073066e-12
-2.200000000e-02	2.321580791e-01	-1.474934642e-04	2.766084676e-11
-2.210000000e-02	2.321580721e-01	-1.451371851e-04	7.306320537e-12
-2.220000000e-02	2.321580649e-01	-1.427809064e-04	1.324770034e-11
-2.230000000e-02	2.321580577e-01	-1.404246281e-04	4.025897319e-12
-2.240000000e-02	2.321580504e-01	-1.380683503e-04	1.208606818e-11
-2.250000000e-02	2.321580431e-01	-1.357120730e-04	2.155380416e-11
-2.260000000e-02	2.321580356e-01	-1.333557961e-04	1.480354889e-11
-2.270000000e-02	2.321580281e-01	-1.309995197e-04	9.315966770e-12
-2.280000000e-02	2.321580205e-01	-1.286432437e-04	1.639732853e-11
-2.290000000e-02	2.321580129e-01	-1.262869682e-04	6.042446644e-11
-2.300000000e-02	2.321580052e-01	-1.239306931e-04	1.487901882e-11
-2.310000000e-02	2.321579974e-01	-1.215744185e-04	8.133227495e-12
-2.320000000e-02	2.321579895e-01	-1.192181444e-04	1.333595429e-11
-2.330000000e-02	2.321579816e-01	-1.168618708e-04	7.427237115e-12
-2.340000000e-02	2.321579736e-01	-1.145055977e-04	3.135030561e-11
-2.350000000e-02	2.321579655e-01	-1.121493250e-04	8.738390581e-12
-2.360000000e-02	2.321579573e-01	-1.097930528e-04	5.305347939e-12
-2.370000000e-02	2.321579491e-01	-1.074367811e-04	1.840260508e-10
-2.380000000e-02	2.321579408e-01	-1.050805100e-04	9.938114946e-12
-2.390000000e-02	2.321579325e-01	-1.027242393e-04	8.877753876e-12
-2.400000000e-02	2.321579240e-01	-1.003679691e-04	1.808705048e-11
-2.410000000e-02	2.321579155e-01	-9.801169943e-05	1.601004687e-11
-2.420000000e-02	2.321579069e-01	-9.565543027e-05	9.413887509e-12
-2.430000000e-02	2.321578983e-01	-9.329916162e-05	1.855771816e-11
-2.440000000e-02	2.321578895e-01	-9.094289349e-05	1.319247348e-11
-2.450000000e-02	2.321578808e-01	-8.858662588e-05	4.487755331e-11
-2.460000000e-02	2.321578719e-01	-8.623035880e-05	1.046648751e-11
-2.470000000e-02	2.321578629e-01	-8.387409225e-05	1.240475704e-11
-2.480000000e-02	2.321578539e-01	-8.151782622e-05	7.303638986e-12
-2.490000000e-02	2.321578449e-01	-7.916156074e-05	9.470806767e-12
-2.500000000e-02	2.321578357e-01	-7.680529579e-05	7.040264308e-12
-2.510000000e-02	2.321578265e-01	-7.444903139e-05	1.531190714e-11
-2.520000000e-02	2.321578172e-01	-7.209276753e-05	8.688829279e-12
-2.530000000e-02	2.321578078e-01	-6.973650423e-05	1.007533810e-11
-2.540000000e-02	2.321577984e-01	-6.738024148e-05	1.437080132e-11
-2.550000000e-02	2.321577888e-01	-6.502397928e-05	1.565330833e-11
-2.560000000e-02	2.321577793e-01	-6.266771765e-05	1.158336176e-11
-2.570000000e-02	2.321577696e-01	-6.031145658e-05	1.255445284e-11
-2.580000000e-02	2.321577599e-01	-5.795519609e-05	1.002770904e-11
-2.590000000e-02	2.321577501e-01	-5.559893616e-05	3.705305957e-11
-2.600000000e-02	2.321577402e-01	-5.324267681e-05	1.057256215e-11
-2.610000000e-02	2.321577303e-01	-5.088641804e-05	1.692773777e-11
-2.620000000e-02	2.321577202e-01	-4.853015986e-05	9.832262868e-12
-2.630000000e-02	2.321577102e-01	-4.617390226e-05	1.113467066e-11
-2.640000000e-02	2.321577000e-01	-4.381764525e-05	1.333396760e-11
-2.650000000e-02	2.321576898e-01	-4.146138884e-05	7.968809532e-11
-2.660000000e-02	2.321576795e-01	-3.910513302e-05	3.015755627e-11
-2.670000000e-02	2.321576691e-01	-3.674887780e-05	9.655025652e-12
-2.680000000e-02	2.321576586e-01	-3.439262319e-05	1.910031911e-11
-2.690000000e-02	2.321576481e-01	-3.203636919e-05	1.618773155e-11
-2.700000000e-02	2.321576375e-01	-2.968011580e-05	1.672914116e-11
-2.710000000e-02	2.321576269e-01	-2.732386303e-05	4.241839607e-11
-2.720000000e-02	2.321576161e-01	-2.496761087e-05	1.977664388e-11
-2.730000000e-02	2.321576053e-01	-2.261135934e-05	1.124785252e-11
-2.740000000e-02	2.321575945e-01	-2.025510844e-05	1.653848040e-11
-2.750000000e-02	2.321575835e-01	-1.789885817e-05	3.651535758e-11
-2.760000000e-02	2.321575725e-01	-1.554260853e-05	1.032575494e-11
-2.770000000e-02	2.321575614e-01	-1.318635953e-05	2.984549679e-11
-2.780000000e-02	2.321575502e-01	-1.083011116e-05	1.468366816e-11
-2.790000000e-02	2.321575390e-01	-8.473863451e-06	1.482568758e-11
-2.800000000e-02	2.321575277e-01	-6.117616385e-06	1.358905346e-11
-2.810000000e-02	2.321575163e-01	-3.761369972e-06	8.381083012e-12
-2.820000000e-02	2.321575049e-01	-1.405124215e-06	2.134941616e-11
-2.830000000e-02	2.321574934e-01	9.511208829e-07	1.493266853e-11
-2.840000000e-02	2.321574818e-01	3.307365319e-06	4.114174187e-11
-2.850000000e-02	2.321574701e-01	5.663609084e-06	2.438527885e-11
-2.860000000e-02	2.321574584e-01	8.019852178e-06	1.480333192e-10
-2.870000000e-02	2.321574466e-01	1.037609461e-05	1.186307333e-11
-2.880000000e-02	2.321574347e-01	1.273233635e-05	2.056715423e-11
-2.890000000e-02	2.321574227e-01	1.508857741e-05	1.361515065e-11
-2.900000000e-02	2.321574107e-01	1.744481779e-05	5.926907410e-11
-2.910000000e-02	2.321573986e-01	1.980105748e-05	7.328018782e-11
-2.920000000e-02	2.321573864e-01	2.215729648e-05	5.908981622e-12
-2.930000000e-02	2.321573742e-01	2.451353478e-05	6.974618687e-12
-2.940000000e-02	2.321573619e-01	2.686977238e-05	2.565259793e-11
-2.950000000e-02	2.321573495e-01	2.922600928e-05	1.094426928e-11
-2.960000000e-02	2.321573371e-01	3.158224547e-05	8.904704697e-12
-2.970000000e-02	2.321573245e-01	3.393848095e-05	1.684251524e-11
-2.980000000e-02	2.321573119e-01	3.629471572e-05	1.681346853e-11
-2.990000000e-02	2.321572993e-01	3.865094977e-05	1.343185580e-11
-3.000000000e-02	2.321572865e-01	4.100718310e-05	7.652531263e-12
