# Im(epsi1)     Re(omega/c)      Im(omega/c)      Eq(det).Opt det CON kz, R=0.5 \mum, mu_c=0.3, Re(epsi1)=3.90solve_det_conkz_vs_kz.py
0.000000000e+00	2.321563298e-01	-6.658731857e-04	7.672529489e-12
-1.000000000e-04	2.321563385e-01	-6.635169099e-04	1.054762466e-11
-2.000000000e-04	2.321563471e-01	-6.611606337e-04	7.476118123e-12
-3.000000000e-04	2.321563556e-01	-6.588043571e-04	6.749898907e-12
-4.000000000e-04	2.321563641e-01	-6.564480803e-04	7.844823694e-12
-5.000000000e-04	2.321563725e-01	-6.540918030e-04	3.257773464e-11
-6.000000000e-04	2.321563809e-01	-6.517355254e-04	1.545672364e-11
-7.000000000e-04	2.321563892e-01	-6.493792475e-04	8.689018251e-12
-8.000000000e-04	2.321563974e-01	-6.470229692e-04	1.599826020e-11
-9.000000000e-04	2.321564055e-01	-6.446666906e-04	6.274244688e-12
-1.000000000e-03	2.321564135e-01	-6.423104117e-04	4.330504623e-12
-1.100000000e-03	2.321564215e-01	-6.399541324e-04	1.225015298e-11
-1.200000000e-03	2.321564294e-01	-6.375978528e-04	1.403774731e-10
-1.300000000e-03	2.321564373e-01	-6.352415729e-04	1.055955708e-11
-1.400000000e-03	2.321564450e-01	-6.328852927e-04	6.529560270e-12
-1.500000000e-03	2.321564527e-01	-6.305290121e-04	1.827973011e-11
-1.600000000e-03	2.321564604e-01	-6.281727313e-04	1.631813903e-11
-1.700000000e-03	2.321564679e-01	-6.258164501e-04	3.656313458e-12
-1.800000000e-03	2.321564754e-01	-6.234601686e-04	2.069933800e-11
-1.900000000e-03	2.321564828e-01	-6.211038868e-04	1.573724762e-11
-2.000000000e-03	2.321564901e-01	-6.187476048e-04	1.075269267e-11
-2.100000000e-03	2.321564974e-01	-6.163913224e-04	1.236433828e-11
-2.200000000e-03	2.321565046e-01	-6.140350398e-04	1.390284678e-11
-2.300000000e-03	2.321565117e-01	-6.116787568e-04	3.747536154e-12
-2.400000000e-03	2.321565188e-01	-6.093224736e-04	7.855046817e-12
-2.500000000e-03	2.321565258e-01	-6.069661901e-04	1.620811551e-11
-2.600000000e-03	2.321565327e-01	-6.046099063e-04	1.288445522e-11
-2.700000000e-03	2.321565395e-01	-6.022536223e-04	1.422044908e-11
-2.800000000e-03	2.321565463e-01	-5.998973380e-04	1.791594866e-11
-2.900000000e-03	2.321565530e-01	-5.975410534e-04	1.754219493e-11
-3.000000000e-03	2.321565596e-01	-5.951847686e-04	6.443578717e-11
-3.100000000e-03	2.321565661e-01	-5.928284835e-04	3.010668108e-11
-3.200000000e-03	2.321565726e-01	-5.904721981e-04	9.777480915e-12
-3.300000000e-03	2.321565790e-01	-5.881159126e-04	1.257916060e-11
-3.400000000e-03	2.321565853e-01	-5.857596267e-04	3.166010667e-11
-3.500000000e-03	2.321565916e-01	-5.834033406e-04	1.082394904e-11
-3.600000000e-03	2.321565978e-01	-5.810470543e-04	1.673405506e-11
-3.700000000e-03	2.321566039e-01	-5.786907678e-04	1.530960273e-11
-3.800000000e-03	2.321566100e-01	-5.763344810e-04	5.250976057e-11
-3.900000000e-03	2.321566159e-01	-5.739781940e-04	7.434420215e-11
-4.000000000e-03	2.321566218e-01	-5.716219067e-04	3.501664934e-12
-4.100000000e-03	2.321566277e-01	-5.692656193e-04	1.283443081e-11
-4.200000000e-03	2.321566334e-01	-5.669093316e-04	7.083288995e-12
-4.300000000e-03	2.321566391e-01	-5.645530437e-04	1.982373308e-11
-4.400000000e-03	2.321566447e-01	-5.621967556e-04	6.615348345e-12
-4.500000000e-03	2.321566503e-01	-5.598404673e-04	1.827538510e-11
-4.600000000e-03	2.321566558e-01	-5.574841788e-04	1.735858193e-11
-4.700000000e-03	2.321566612e-01	-5.551278901e-04	8.341835103e-12
-4.800000000e-03	2.321566665e-01	-5.527716012e-04	8.752292674e-12
-4.900000000e-03	2.321566718e-01	-5.504153122e-04	6.184096333e-12
-5.000000000e-03	2.321566769e-01	-5.480590229e-04	8.307432142e-12
-5.100000000e-03	2.321566821e-01	-5.457027334e-04	1.316437082e-11
-5.200000000e-03	2.321566871e-01	-5.433464438e-04	2.044607528e-11
-5.300000000e-03	2.321566921e-01	-5.409901540e-04	8.775961077e-12
-5.400000000e-03	2.321566970e-01	-5.386338640e-04	2.057127087e-11
-5.500000000e-03	2.321567018e-01	-5.362775738e-04	1.269526410e-11
-5.600000000e-03	2.321567066e-01	-5.339212835e-04	1.210900468e-11
-5.700000000e-03	2.321567112e-01	-5.315649930e-04	2.187023398e-11
-5.800000000e-03	2.321567159e-01	-5.292087024e-04	1.147813457e-11
-5.900000000e-03	2.321567204e-01	-5.268524116e-04	7.610320309e-12
-6.000000000e-03	2.321567249e-01	-5.244961207e-04	1.834537807e-11
-6.100000000e-03	2.321567293e-01	-5.221398296e-04	1.025621939e-11
-6.200000000e-03	2.321567336e-01	-5.197835383e-04	7.425761114e-12
-6.300000000e-03	2.321567378e-01	-5.174272470e-04	5.848086245e-12
-6.400000000e-03	2.321567420e-01	-5.150709554e-04	2.131977411e-11
-6.500000000e-03	2.321567461e-01	-5.127146638e-04	7.263730772e-12
-6.600000000e-03	2.321567502e-01	-5.103583720e-04	4.218610223e-11
-6.700000000e-03	2.321567541e-01	-5.080020801e-04	5.662111327e-12
-6.800000000e-03	2.321567580e-01	-5.056457881e-04	8.016080861e-11
-6.900000000e-03	2.321567619e-01	-5.032894960e-04	5.269828918e-12
-7.000000000e-03	2.321567656e-01	-5.009332037e-04	3.626961814e-11
-7.100000000e-03	2.321567693e-01	-4.985769113e-04	9.140623555e-12
-7.200000000e-03	2.321567729e-01	-4.962206189e-04	1.068335972e-11
-7.300000000e-03	2.321567764e-01	-4.938643263e-04	2.616890214e-11
-7.400000000e-03	2.321567799e-01	-4.915080336e-04	2.888335235e-11
-7.500000000e-03	2.321567833e-01	-4.891517408e-04	1.473474248e-11
-7.600000000e-03	2.321567866e-01	-4.867954479e-04	1.124601147e-11
-7.700000000e-03	2.321567899e-01	-4.844391550e-04	1.327005600e-11
-7.800000000e-03	2.321567931e-01	-4.820828619e-04	4.080701193e-11
-7.900000000e-03	2.321567962e-01	-4.797265688e-04	6.783324242e-12
-8.000000000e-03	2.321567992e-01	-4.773702756e-04	3.676552935e-11
-8.100000000e-03	2.321568022e-01	-4.750139823e-04	2.512785245e-11
-8.200000000e-03	2.321568051e-01	-4.726576890e-04	5.597594725e-11
-8.300000000e-03	2.321568079e-01	-4.703013956e-04	1.059116863e-11
-8.400000000e-03	2.321568106e-01	-4.679451021e-04	9.989936348e-12
-8.500000000e-03	2.321568133e-01	-4.655888086e-04	6.469623030e-12
-8.600000000e-03	2.321568159e-01	-4.632325150e-04	6.930954572e-12
-8.700000000e-03	2.321568184e-01	-4.608762213e-04	2.017974731e-11
-8.800000000e-03	2.321568209e-01	-4.585199276e-04	7.731841104e-12
-8.900000000e-03	2.321568233e-01	-4.561636339e-04	1.537544753e-11
-9.000000000e-03	2.321568256e-01	-4.538073401e-04	8.082790377e-12
-9.100000000e-03	2.321568279e-01	-4.514510462e-04	1.676305341e-11
-9.200000000e-03	2.321568300e-01	-4.490947524e-04	1.022020651e-11
-9.300000000e-03	2.321568321e-01	-4.467384585e-04	1.209096839e-11
-9.400000000e-03	2.321568342e-01	-4.443821646e-04	1.078741562e-11
-9.500000000e-03	2.321568361e-01	-4.420258706e-04	5.591167439e-12
-9.600000000e-03	2.321568380e-01	-4.396695767e-04	1.992610597e-11
-9.700000000e-03	2.321568398e-01	-4.373132827e-04	8.714051550e-12
-9.800000000e-03	2.321568416e-01	-4.349569887e-04	1.201076642e-11
-9.900000000e-03	2.321568433e-01	-4.326006947e-04	1.522041852e-10
-1.000000000e-02	2.321568449e-01	-4.302444007e-04	1.515646478e-11
-1.010000000e-02	2.321568464e-01	-4.278881067e-04	1.146047497e-11
-1.020000000e-02	2.321568478e-01	-4.255318127e-04	1.270154175e-11
-1.030000000e-02	2.321568492e-01	-4.231755187e-04	9.007767231e-12
-1.040000000e-02	2.321568505e-01	-4.208192247e-04	1.009105281e-11
-1.050000000e-02	2.321568518e-01	-4.184629307e-04	9.963264411e-12
-1.060000000e-02	2.321568530e-01	-4.161066367e-04	7.077371185e-11
-1.070000000e-02	2.321568541e-01	-4.137503428e-04	5.192854744e-11
-1.080000000e-02	2.321568551e-01	-4.113940489e-04	1.207637441e-11
-1.090000000e-02	2.321568560e-01	-4.090377550e-04	1.262913028e-11
-1.100000000e-02	2.321568569e-01	-4.066814611e-04	3.431579727e-11
-1.110000000e-02	2.321568577e-01	-4.043251673e-04	1.185436781e-11
-1.120000000e-02	2.321568585e-01	-4.019688735e-04	1.224165641e-11
-1.130000000e-02	2.321568591e-01	-3.996125797e-04	6.343132300e-11
-1.140000000e-02	2.321568597e-01	-3.972562860e-04	2.355101310e-11
-1.150000000e-02	2.321568603e-01	-3.948999924e-04	4.866306291e-12
-1.160000000e-02	2.321568607e-01	-3.925436988e-04	6.071278053e-12
-1.170000000e-02	2.321568611e-01	-3.901874052e-04	1.756300380e-11
-1.180000000e-02	2.321568614e-01	-3.878311117e-04	1.497157355e-11
-1.190000000e-02	2.321568617e-01	-3.854748183e-04	2.725641279e-11
-1.200000000e-02	2.321568618e-01	-3.831185250e-04	9.398249875e-12
-1.210000000e-02	2.321568619e-01	-3.807622317e-04	2.458759597e-11
-1.220000000e-02	2.321568619e-01	-3.784059385e-04	1.376285758e-11
-1.230000000e-02	2.321568619e-01	-3.760496453e-04	5.380503027e-11
-1.240000000e-02	2.321568618e-01	-3.736933523e-04	1.351498169e-11
-1.250000000e-02	2.321568616e-01	-3.713370593e-04	8.106237217e-12
-1.260000000e-02	2.321568613e-01	-3.689807664e-04	1.176700466e-11
-1.270000000e-02	2.321568610e-01	-3.666244737e-04	1.098784362e-11
-1.280000000e-02	2.321568606e-01	-3.642681810e-04	5.767962094e-12
-1.290000000e-02	2.321568601e-01	-3.619118884e-04	1.555854218e-11
-1.300000000e-02	2.321568595e-01	-3.595555959e-04	3.505271613e-11
-1.310000000e-02	2.321568589e-01	-3.571993035e-04	2.689112500e-11
-1.320000000e-02	2.321568582e-01	-3.548430112e-04	3.967479410e-11
-1.330000000e-02	2.321568575e-01	-3.524867191e-04	3.098991855e-11
-1.340000000e-02	2.321568566e-01	-3.501304271e-04	1.008349028e-11
-1.350000000e-02	2.321568557e-01	-3.477741351e-04	1.761672826e-11
-1.360000000e-02	2.321568547e-01	-3.454178433e-04	8.994151936e-11
-1.370000000e-02	2.321568537e-01	-3.430615517e-04	1.430300211e-11
-1.380000000e-02	2.321568526e-01	-3.407052602e-04	4.942321521e-11
-1.390000000e-02	2.321568514e-01	-3.383489688e-04	8.624495021e-12
-1.400000000e-02	2.321568501e-01	-3.359926775e-04	7.945624123e-12
-1.410000000e-02	2.321568488e-01	-3.336363864e-04	1.258995941e-11
-1.420000000e-02	2.321568474e-01	-3.312800954e-04	2.019731996e-11
-1.430000000e-02	2.321568459e-01	-3.289238046e-04	1.823105651e-11
-1.440000000e-02	2.321568443e-01	-3.265675140e-04	2.829985110e-11
-1.450000000e-02	2.321568427e-01	-3.242112235e-04	2.847513753e-11
-1.460000000e-02	2.321568410e-01	-3.218549332e-04	5.040201040e-11
-1.470000000e-02	2.321568392e-01	-3.194986430e-04	4.696894576e-11
-1.480000000e-02	2.321568374e-01	-3.171423530e-04	1.305892783e-11
-1.490000000e-02	2.321568355e-01	-3.147860631e-04	3.003624842e-11
-1.500000000e-02	2.321568335e-01	-3.124297735e-04	6.657626515e-12
-1.510000000e-02	2.321568314e-01	-3.100734840e-04	3.030555879e-11
-1.520000000e-02	2.321568293e-01	-3.077171947e-04	9.686567859e-12
-1.530000000e-02	2.321568271e-01	-3.053609056e-04	5.722642330e-12
-1.540000000e-02	2.321568248e-01	-3.030046167e-04	4.465278508e-11
-1.550000000e-02	2.321568225e-01	-3.006483280e-04	1.208224738e-11
-1.560000000e-02	2.321568201e-01	-2.982920395e-04	1.379791900e-11
-1.570000000e-02	2.321568176e-01	-2.959357512e-04	7.241722335e-12
-1.580000000e-02	2.321568150e-01	-2.935794630e-04	1.265413021e-11
-1.590000000e-02	2.321568124e-01	-2.912231751e-04	1.216981531e-11
-1.600000000e-02	2.321568097e-01	-2.888668874e-04	5.376989993e-11
-1.610000000e-02	2.321568069e-01	-2.865106000e-04	2.784179342e-11
-1.620000000e-02	2.321568041e-01	-2.841543127e-04	1.297679367e-11
-1.630000000e-02	2.321568012e-01	-2.817980257e-04	3.318675336e-11
-1.640000000e-02	2.321567982e-01	-2.794417389e-04	9.023407186e-11
-1.650000000e-02	2.321567951e-01	-2.770854523e-04	2.867267059e-11
-1.660000000e-02	2.321567920e-01	-2.747291660e-04	1.089280084e-11
-1.670000000e-02	2.321567888e-01	-2.723728799e-04	1.031497198e-11
-1.680000000e-02	2.321567855e-01	-2.700165940e-04	8.875137805e-12
-1.690000000e-02	2.321567822e-01	-2.676603084e-04	1.532874012e-11
-1.700000000e-02	2.321567788e-01	-2.653040230e-04	4.049905415e-11
-1.710000000e-02	2.321567753e-01	-2.629477379e-04	9.924342841e-12
-1.720000000e-02	2.321567717e-01	-2.605914530e-04	1.365164251e-11
-1.730000000e-02	2.321567681e-01	-2.582351684e-04	2.022388486e-11
-1.740000000e-02	2.321567644e-01	-2.558788841e-04	1.139605008e-11
-1.750000000e-02	2.321567606e-01	-2.535226000e-04	2.070243024e-11
-1.760000000e-02	2.321567567e-01	-2.511663162e-04	1.212913268e-11
-1.770000000e-02	2.321567528e-01	-2.488100327e-04	2.981383783e-11
-1.780000000e-02	2.321567488e-01	-2.464537495e-04	1.108422218e-10
-1.790000000e-02	2.321567448e-01	-2.440974665e-04	2.013794430e-11
-1.800000000e-02	2.321567406e-01	-2.417411838e-04	8.021072346e-12
-1.810000000e-02	2.321567364e-01	-2.393849014e-04	9.310668837e-12
-1.820000000e-02	2.321567321e-01	-2.370286193e-04	1.152562145e-11
-1.830000000e-02	2.321567278e-01	-2.346723375e-04	1.088000654e-11
-1.840000000e-02	2.321567234e-01	-2.323160560e-04	2.919333880e-11
-1.850000000e-02	2.321567189e-01	-2.299597748e-04	2.149215585e-11
-1.860000000e-02	2.321567143e-01	-2.276034939e-04	1.348134348e-11
-1.870000000e-02	2.321567097e-01	-2.252472134e-04	4.193447774e-11
-1.880000000e-02	2.321567050e-01	-2.228909331e-04	1.054985457e-11
-1.890000000e-02	2.321567002e-01	-2.205346531e-04	1.024921341e-11
-1.900000000e-02	2.321566953e-01	-2.181783735e-04	1.373108237e-11
-1.910000000e-02	2.321566904e-01	-2.158220942e-04	1.708565672e-11
-1.920000000e-02	2.321566854e-01	-2.134658152e-04	1.645325085e-11
-1.930000000e-02	2.321566803e-01	-2.111095366e-04	1.935421005e-11
-1.940000000e-02	2.321566752e-01	-2.087532583e-04	2.085199404e-11
-1.950000000e-02	2.321566700e-01	-2.063969803e-04	5.976737475e-12
-1.960000000e-02	2.321566647e-01	-2.040407027e-04	1.433255390e-11
-1.970000000e-02	2.321566593e-01	-2.016844254e-04	1.195234149e-11
-1.980000000e-02	2.321566539e-01	-1.993281485e-04	6.771576744e-12
-1.990000000e-02	2.321566484e-01	-1.969718719e-04	5.017078597e-12
-2.000000000e-02	2.321566429e-01	-1.946155957e-04	5.399881908e-11
-2.010000000e-02	2.321566372e-01	-1.922593199e-04	7.071902048e-12
-2.020000000e-02	2.321566315e-01	-1.899030444e-04	1.614756665e-11
-2.030000000e-02	2.321566257e-01	-1.875467693e-04	1.300837242e-11
-2.040000000e-02	2.321566199e-01	-1.851904945e-04	1.077642788e-10
-2.050000000e-02	2.321566139e-01	-1.828342202e-04	2.088516856e-10
-2.060000000e-02	2.321566079e-01	-1.804779462e-04	2.637118186e-11
-2.070000000e-02	2.321566019e-01	-1.781216726e-04	1.109136031e-11
-2.080000000e-02	2.321565957e-01	-1.757653994e-04	1.690485973e-11
-2.090000000e-02	2.321565895e-01	-1.734091265e-04	1.833254014e-11
-2.100000000e-02	2.321565832e-01	-1.710528541e-04	5.063880749e-11
-2.110000000e-02	2.321565769e-01	-1.686965821e-04	5.187214988e-12
-2.120000000e-02	2.321565704e-01	-1.663403104e-04	2.073267094e-11
-2.130000000e-02	2.321565639e-01	-1.639840392e-04	1.141218870e-11
-2.140000000e-02	2.321565574e-01	-1.616277684e-04	7.614726785e-12
-2.150000000e-02	2.321565507e-01	-1.592714980e-04	1.284427938e-11
-2.160000000e-02	2.321565440e-01	-1.569152280e-04	7.830308205e-12
-2.170000000e-02	2.321565372e-01	-1.545589584e-04	1.505479749e-11
-2.180000000e-02	2.321565303e-01	-1.522026893e-04	8.289691354e-12
-2.190000000e-02	2.321565234e-01	-1.498464206e-04	1.324559118e-11
-2.200000000e-02	2.321565164e-01	-1.474901523e-04	1.008004543e-11
-2.210000000e-02	2.321565093e-01	-1.451338844e-04	7.471887421e-12
-2.220000000e-02	2.321565022e-01	-1.427776170e-04	8.914557535e-11
-2.230000000e-02	2.321564950e-01	-1.404213500e-04	2.114744521e-11
-2.240000000e-02	2.321564877e-01	-1.380650835e-04	1.867142008e-11
-2.250000000e-02	2.321564803e-01	-1.357088174e-04	1.445890804e-11
-2.260000000e-02	2.321564729e-01	-1.333525518e-04	3.968314148e-11
-2.270000000e-02	2.321564654e-01	-1.309962866e-04	8.962627060e-12
-2.280000000e-02	2.321564578e-01	-1.286400219e-04	3.775832666e-11
-2.290000000e-02	2.321564501e-01	-1.262837576e-04	1.363979162e-11
-2.300000000e-02	2.321564424e-01	-1.239274939e-04	1.400049614e-11
-2.310000000e-02	2.321564346e-01	-1.215712305e-04	1.810569907e-11
-2.320000000e-02	2.321564268e-01	-1.192149677e-04	1.367761461e-11
-2.330000000e-02	2.321564188e-01	-1.168587053e-04	1.592615775e-11
-2.340000000e-02	2.321564108e-01	-1.145024435e-04	2.442819284e-11
-2.350000000e-02	2.321564027e-01	-1.121461821e-04	1.425297839e-11
-2.360000000e-02	2.321563946e-01	-1.097899212e-04	1.297466754e-11
-2.370000000e-02	2.321563864e-01	-1.074336607e-04	3.051582365e-11
-2.380000000e-02	2.321563781e-01	-1.050774008e-04	1.526786443e-11
-2.390000000e-02	2.321563697e-01	-1.027211414e-04	7.908997395e-12
-2.400000000e-02	2.321563613e-01	-1.003648825e-04	7.764455546e-12
-2.410000000e-02	2.321563528e-01	-9.800862409e-05	9.787202730e-12
-2.420000000e-02	2.321563442e-01	-9.565236619e-05	1.818535111e-11
-2.430000000e-02	2.321563355e-01	-9.329610881e-05	6.322043543e-12
-2.440000000e-02	2.321563268e-01	-9.093985195e-05	2.312675331e-11
-2.450000000e-02	2.321563180e-01	-8.858359561e-05	2.410098456e-11
-2.460000000e-02	2.321563091e-01	-8.622733979e-05	1.350468077e-11
-2.470000000e-02	2.321563002e-01	-8.387108450e-05	6.930848660e-12
-2.480000000e-02	2.321562912e-01	-8.151482974e-05	6.536182053e-12
-2.490000000e-02	2.321562821e-01	-7.915857552e-05	1.384712670e-11
-2.500000000e-02	2.321562730e-01	-7.680232184e-05	1.668656303e-11
-2.510000000e-02	2.321562637e-01	-7.444606870e-05	1.047322858e-11
-2.520000000e-02	2.321562544e-01	-7.208981611e-05	1.239197714e-11
-2.530000000e-02	2.321562451e-01	-6.973356407e-05	4.659496307e-11
-2.540000000e-02	2.321562356e-01	-6.737731259e-05	4.005152998e-11
-2.550000000e-02	2.321562261e-01	-6.502106166e-05	2.782018352e-12
-2.560000000e-02	2.321562165e-01	-6.266481129e-05	3.877673452e-11
-2.570000000e-02	2.321562069e-01	-6.030856149e-05	8.297204428e-12
-2.580000000e-02	2.321561971e-01	-5.795231226e-05	8.353048066e-12
-2.590000000e-02	2.321561873e-01	-5.559606360e-05	7.324626390e-12
-2.600000000e-02	2.321561775e-01	-5.323981551e-05	3.572051361e-11
-2.610000000e-02	2.321561675e-01	-5.088356801e-05	1.213732105e-11
-2.620000000e-02	2.321561575e-01	-4.852732108e-05	7.412307611e-11
-2.630000000e-02	2.321561474e-01	-4.617107475e-05	1.159563182e-11
-2.640000000e-02	2.321561373e-01	-4.381482901e-05	1.048681104e-11
-2.650000000e-02	2.321561270e-01	-4.145858386e-05	4.483739544e-11
-2.660000000e-02	2.321561167e-01	-3.910233931e-05	1.185826475e-11
-2.670000000e-02	2.321561063e-01	-3.674609536e-05	4.838422669e-11
-2.680000000e-02	2.321560959e-01	-3.438985201e-05	1.348257861e-11
-2.690000000e-02	2.321560854e-01	-3.203360928e-05	1.049202713e-11
-2.700000000e-02	2.321560748e-01	-2.967736715e-05	5.919746924e-12
-2.710000000e-02	2.321560641e-01	-2.732112565e-05	1.235020416e-11
-2.720000000e-02	2.321560534e-01	-2.496488475e-05	7.138677677e-11
-2.730000000e-02	2.321560426e-01	-2.260864449e-05	1.532768927e-10
-2.740000000e-02	2.321560317e-01	-2.025240485e-05	2.560595961e-11
-2.750000000e-02	2.321560208e-01	-1.789616584e-05	5.610262118e-11
-2.760000000e-02	2.321560098e-01	-1.553992747e-05	2.056619566e-11
-2.770000000e-02	2.321559987e-01	-1.318368974e-05	1.129660981e-11
-2.780000000e-02	2.321559875e-01	-1.082745264e-05	1.202926987e-11
-2.790000000e-02	2.321559763e-01	-8.471216193e-06	9.726465551e-12
-2.800000000e-02	2.321559650e-01	-6.114980393e-06	1.014514636e-11
-2.810000000e-02	2.321559536e-01	-3.758745245e-06	1.624813184e-11
-2.820000000e-02	2.321559421e-01	-1.402510753e-06	8.818919844e-12
-2.830000000e-02	2.321559306e-01	9.537230794e-07	1.443007307e-11
-2.840000000e-02	2.321559190e-01	3.309956248e-06	4.887714253e-12
-2.850000000e-02	2.321559074e-01	5.666188750e-06	1.424413378e-11
-2.860000000e-02	2.321558956e-01	8.022420581e-06	1.184427553e-11
-2.870000000e-02	2.321558838e-01	1.037865174e-05	7.906778916e-12
-2.880000000e-02	2.321558719e-01	1.273488222e-05	2.276811646e-11
-2.890000000e-02	2.321558600e-01	1.509111202e-05	2.320488563e-11
-2.900000000e-02	2.321558480e-01	1.744734113e-05	1.617952751e-11
-2.910000000e-02	2.321558359e-01	1.980356955e-05	9.674291265e-12
-2.920000000e-02	2.321558237e-01	2.215979729e-05	9.064985025e-12
-2.930000000e-02	2.321558115e-01	2.451602432e-05	1.166917648e-11
-2.940000000e-02	2.321557991e-01	2.687225066e-05	1.023516352e-11
-2.950000000e-02	2.321557868e-01	2.922847629e-05	9.358796049e-12
-2.960000000e-02	2.321557743e-01	3.158470122e-05	7.197813875e-12
-2.970000000e-02	2.321557618e-01	3.394092543e-05	8.664518433e-12
-2.980000000e-02	2.321557492e-01	3.629714893e-05	2.960654333e-11
-2.990000000e-02	2.321557365e-01	3.865337172e-05	1.531047996e-11
-3.000000000e-02	2.321557238e-01	4.100959378e-05	1.754636202e-11
