# Im(epsi1)     Re(omega/c)      Im(omega/c)      Eq(det).Opt det CON kz, R=0.5 \mum, mu_c=0.3, Re(epsi1)=3.90solve_det_conkz_vs_kz.py
0.000000000e+00	2.321559479e-01	-6.658717707e-04	1.716898717e-11
-1.000000000e-04	2.321559566e-01	-6.635154976e-04	1.514280946e-11
-2.000000000e-04	2.321559652e-01	-6.611592242e-04	9.560536838e-11
-3.000000000e-04	2.321559738e-01	-6.588029504e-04	1.062554452e-11
-4.000000000e-04	2.321559822e-01	-6.564466763e-04	8.647306213e-12
-5.000000000e-04	2.321559907e-01	-6.540904018e-04	4.998941953e-12
-6.000000000e-04	2.321559990e-01	-6.517341270e-04	1.384228378e-11
-7.000000000e-04	2.321560073e-01	-6.493778518e-04	8.868556440e-12
-8.000000000e-04	2.321560155e-01	-6.470215763e-04	9.334842518e-11
-9.000000000e-04	2.321560236e-01	-6.446653004e-04	2.990628553e-11
-1.000000000e-03	2.321560316e-01	-6.423090242e-04	3.006357812e-11
-1.100000000e-03	2.321560396e-01	-6.399527477e-04	1.498803600e-11
-1.200000000e-03	2.321560475e-01	-6.375964709e-04	1.210432677e-11
-1.300000000e-03	2.321560554e-01	-6.352401937e-04	1.029116533e-11
-1.400000000e-03	2.321560632e-01	-6.328839162e-04	2.738711466e-11
-1.500000000e-03	2.321560708e-01	-6.305276384e-04	6.227966173e-12
-1.600000000e-03	2.321560785e-01	-6.281713603e-04	1.874065897e-10
-1.700000000e-03	2.321560860e-01	-6.258150819e-04	6.999821254e-12
-1.800000000e-03	2.321560935e-01	-6.234588032e-04	2.043734086e-11
-1.900000000e-03	2.321561009e-01	-6.211025242e-04	5.635372656e-12
-2.000000000e-03	2.321561083e-01	-6.187462449e-04	1.470491694e-11
-2.100000000e-03	2.321561155e-01	-6.163899653e-04	1.251688348e-11
-2.200000000e-03	2.321561227e-01	-6.140336854e-04	1.066077977e-11
-2.300000000e-03	2.321561298e-01	-6.116774052e-04	1.356450888e-11
-2.400000000e-03	2.321561369e-01	-6.093211247e-04	1.054519600e-11
-2.500000000e-03	2.321561439e-01	-6.069648440e-04	1.907444456e-11
-2.600000000e-03	2.321561508e-01	-6.046085630e-04	1.852704876e-11
-2.700000000e-03	2.321561576e-01	-6.022522817e-04	2.695277051e-11
-2.800000000e-03	2.321561644e-01	-5.998960001e-04	3.095162174e-11
-2.900000000e-03	2.321561711e-01	-5.975397183e-04	2.810569090e-12
-3.000000000e-03	2.321561777e-01	-5.951834362e-04	8.896017644e-12
-3.100000000e-03	2.321561842e-01	-5.928271539e-04	1.389767733e-11
-3.200000000e-03	2.321561907e-01	-5.904708713e-04	1.077252049e-11
-3.300000000e-03	2.321561971e-01	-5.881145884e-04	6.259460534e-12
-3.400000000e-03	2.321562035e-01	-5.857583054e-04	5.704951991e-12
-3.500000000e-03	2.321562097e-01	-5.834020220e-04	9.667629952e-12
-3.600000000e-03	2.321562159e-01	-5.810457385e-04	9.960372079e-12
-3.700000000e-03	2.321562220e-01	-5.786894547e-04	1.451620241e-11
-3.800000000e-03	2.321562281e-01	-5.763331706e-04	1.288104115e-11
-3.900000000e-03	2.321562341e-01	-5.739768864e-04	1.608480938e-11
-4.000000000e-03	2.321562400e-01	-5.716206019e-04	1.152805502e-11
-4.100000000e-03	2.321562458e-01	-5.692643172e-04	1.750761815e-11
-4.200000000e-03	2.321562516e-01	-5.669080323e-04	1.339118615e-11
-4.300000000e-03	2.321562572e-01	-5.645517471e-04	1.394510539e-11
-4.400000000e-03	2.321562629e-01	-5.621954618e-04	1.265211062e-11
-4.500000000e-03	2.321562684e-01	-5.598391763e-04	1.594167562e-11
-4.600000000e-03	2.321562739e-01	-5.574828905e-04	3.522057877e-11
-4.700000000e-03	2.321562793e-01	-5.551266046e-04	1.177976560e-11
-4.800000000e-03	2.321562846e-01	-5.527703184e-04	1.410166285e-11
-4.900000000e-03	2.321562899e-01	-5.504140321e-04	7.846981724e-12
-5.000000000e-03	2.321562951e-01	-5.480577456e-04	2.800539142e-11
-5.100000000e-03	2.321563002e-01	-5.457014589e-04	1.533726613e-11
-5.200000000e-03	2.321563052e-01	-5.433451720e-04	2.114106717e-11
-5.300000000e-03	2.321563102e-01	-5.409888849e-04	2.013288809e-11
-5.400000000e-03	2.321563151e-01	-5.386325977e-04	1.392657977e-11
-5.500000000e-03	2.321563199e-01	-5.362763103e-04	5.145781744e-12
-5.600000000e-03	2.321563247e-01	-5.339200227e-04	1.080083161e-11
-5.700000000e-03	2.321563294e-01	-5.315637350e-04	6.654010635e-12
-5.800000000e-03	2.321563340e-01	-5.292074471e-04	3.828512852e-11
-5.900000000e-03	2.321563385e-01	-5.268511591e-04	1.050427157e-11
-6.000000000e-03	2.321563430e-01	-5.244948709e-04	1.973484761e-11
-6.100000000e-03	2.321563474e-01	-5.221385825e-04	1.058872037e-11
-6.200000000e-03	2.321563517e-01	-5.197822940e-04	1.118002045e-11
-6.300000000e-03	2.321563560e-01	-5.174260054e-04	2.880653105e-11
-6.400000000e-03	2.321563601e-01	-5.150697167e-04	1.040246995e-11
-6.500000000e-03	2.321563643e-01	-5.127134278e-04	1.071468454e-11
-6.600000000e-03	2.321563683e-01	-5.103571387e-04	1.156266709e-11
-6.700000000e-03	2.321563723e-01	-5.080008496e-04	2.382311114e-11
-6.800000000e-03	2.321563762e-01	-5.056445603e-04	1.226876339e-11
-6.900000000e-03	2.321563800e-01	-5.032882709e-04	6.638060711e-12
-7.000000000e-03	2.321563837e-01	-5.009319814e-04	4.842015445e-12
-7.100000000e-03	2.321563874e-01	-4.985756918e-04	1.201242347e-11
-7.200000000e-03	2.321563910e-01	-4.962194021e-04	2.738453620e-11
-7.300000000e-03	2.321563946e-01	-4.938631123e-04	4.042163540e-11
-7.400000000e-03	2.321563980e-01	-4.915068223e-04	1.250851027e-11
-7.500000000e-03	2.321564014e-01	-4.891505323e-04	4.032485341e-12
-7.600000000e-03	2.321564047e-01	-4.867942422e-04	1.924625650e-11
-7.700000000e-03	2.321564080e-01	-4.844379520e-04	1.177418775e-11
-7.800000000e-03	2.321564112e-01	-4.820816617e-04	2.587141036e-11
-7.900000000e-03	2.321564143e-01	-4.797253713e-04	7.410671621e-12
-8.000000000e-03	2.321564173e-01	-4.773690809e-04	1.009186740e-11
-8.100000000e-03	2.321564203e-01	-4.750127904e-04	3.920238371e-11
-8.200000000e-03	2.321564232e-01	-4.726564998e-04	3.778631878e-12
-8.300000000e-03	2.321564260e-01	-4.703002091e-04	6.312826000e-12
-8.400000000e-03	2.321564287e-01	-4.679439184e-04	1.040560119e-11
-8.500000000e-03	2.321564314e-01	-4.655876276e-04	8.177101276e-12
-8.600000000e-03	2.321564340e-01	-4.632313367e-04	1.406131655e-11
-8.700000000e-03	2.321564366e-01	-4.608750458e-04	1.469255594e-11
-8.800000000e-03	2.321564390e-01	-4.585187549e-04	3.930138429e-11
-8.900000000e-03	2.321564414e-01	-4.561624639e-04	1.335935090e-11
-9.000000000e-03	2.321564437e-01	-4.538061729e-04	3.648928185e-11
-9.100000000e-03	2.321564460e-01	-4.514498818e-04	8.284141642e-12
-9.200000000e-03	2.321564481e-01	-4.490935907e-04	9.866088853e-12
-9.300000000e-03	2.321564503e-01	-4.467372995e-04	9.335676740e-12
-9.400000000e-03	2.321564523e-01	-4.443810084e-04	1.036657218e-11
-9.500000000e-03	2.321564542e-01	-4.420247172e-04	3.518247545e-11
-9.600000000e-03	2.321564561e-01	-4.396684260e-04	1.486420156e-10
-9.700000000e-03	2.321564579e-01	-4.373121347e-04	2.939038156e-11
-9.800000000e-03	2.321564597e-01	-4.349558435e-04	2.864059498e-11
-9.900000000e-03	2.321564614e-01	-4.325995523e-04	1.190321089e-11
-1.000000000e-02	2.321564630e-01	-4.302432610e-04	9.467882447e-12
-1.010000000e-02	2.321564645e-01	-4.278869697e-04	6.575379574e-12
-1.020000000e-02	2.321564660e-01	-4.255306785e-04	9.919007494e-12
-1.030000000e-02	2.321564673e-01	-4.231743872e-04	1.213607366e-11
-1.040000000e-02	2.321564687e-01	-4.208180960e-04	2.437515678e-11
-1.050000000e-02	2.321564699e-01	-4.184618048e-04	1.182606931e-11
-1.060000000e-02	2.321564711e-01	-4.161055136e-04	9.965583607e-12
-1.070000000e-02	2.321564722e-01	-4.137492224e-04	1.033639194e-11
-1.080000000e-02	2.321564732e-01	-4.113929312e-04	1.623846629e-11
-1.090000000e-02	2.321564742e-01	-4.090366401e-04	1.072496702e-11
-1.100000000e-02	2.321564750e-01	-4.066803489e-04	6.072519746e-12
-1.110000000e-02	2.321564758e-01	-4.043240579e-04	9.643906568e-12
-1.120000000e-02	2.321564766e-01	-4.019677668e-04	6.834579944e-12
-1.130000000e-02	2.321564773e-01	-3.996114758e-04	2.242989797e-11
-1.140000000e-02	2.321564779e-01	-3.972551849e-04	9.793680229e-12
-1.150000000e-02	2.321564784e-01	-3.948988940e-04	1.749876410e-11
-1.160000000e-02	2.321564788e-01	-3.925426031e-04	1.713756745e-11
-1.170000000e-02	2.321564792e-01	-3.901863123e-04	2.212501756e-11
-1.180000000e-02	2.321564795e-01	-3.878300216e-04	1.467445145e-11
-1.190000000e-02	2.321564798e-01	-3.854737309e-04	6.826502431e-12
-1.200000000e-02	2.321564799e-01	-3.831174403e-04	9.499228635e-12
-1.210000000e-02	2.321564800e-01	-3.807611498e-04	1.263373077e-11
-1.220000000e-02	2.321564801e-01	-3.784048593e-04	1.029372465e-11
-1.230000000e-02	2.321564800e-01	-3.760485690e-04	1.695652016e-11
-1.240000000e-02	2.321564799e-01	-3.736922787e-04	1.550075457e-11
-1.250000000e-02	2.321564797e-01	-3.713359884e-04	1.576751416e-11
-1.260000000e-02	2.321564794e-01	-3.689796983e-04	8.371182526e-12
-1.270000000e-02	2.321564791e-01	-3.666234083e-04	2.531786875e-11
-1.280000000e-02	2.321564787e-01	-3.642671183e-04	2.165194708e-11
-1.290000000e-02	2.321564782e-01	-3.619108285e-04	7.381982779e-12
-1.300000000e-02	2.321564777e-01	-3.595545388e-04	7.608371623e-12
-1.310000000e-02	2.321564770e-01	-3.571982492e-04	4.390173646e-11
-1.320000000e-02	2.321564763e-01	-3.548419596e-04	1.330982804e-11
-1.330000000e-02	2.321564756e-01	-3.524856702e-04	8.540775828e-12
-1.340000000e-02	2.321564747e-01	-3.501293810e-04	1.395656940e-10
-1.350000000e-02	2.321564738e-01	-3.477730918e-04	1.110746510e-11
-1.360000000e-02	2.321564729e-01	-3.454168028e-04	1.052744858e-11
-1.370000000e-02	2.321564718e-01	-3.430605139e-04	1.082687305e-11
-1.380000000e-02	2.321564707e-01	-3.407042251e-04	2.309213088e-11
-1.390000000e-02	2.321564695e-01	-3.383479364e-04	1.804760679e-11
-1.400000000e-02	2.321564682e-01	-3.359916479e-04	3.044424023e-11
-1.410000000e-02	2.321564669e-01	-3.336353596e-04	1.443118125e-10
-1.420000000e-02	2.321564655e-01	-3.312790714e-04	1.417715354e-11
-1.430000000e-02	2.321564640e-01	-3.289227833e-04	6.304253241e-11
-1.440000000e-02	2.321564624e-01	-3.265664954e-04	1.970195706e-11
-1.450000000e-02	2.321564608e-01	-3.242102077e-04	4.843271159e-11
-1.460000000e-02	2.321564591e-01	-3.218539201e-04	1.568507808e-11
-1.470000000e-02	2.321564573e-01	-3.194976327e-04	3.186551652e-11
-1.480000000e-02	2.321564555e-01	-3.171413454e-04	8.475901754e-11
-1.490000000e-02	2.321564536e-01	-3.147850583e-04	2.167211373e-11
-1.500000000e-02	2.321564516e-01	-3.124287714e-04	2.588089293e-11
-1.510000000e-02	2.321564495e-01	-3.100724847e-04	8.704460962e-12
-1.520000000e-02	2.321564474e-01	-3.077161982e-04	1.133479281e-11
-1.530000000e-02	2.321564452e-01	-3.053599118e-04	1.983448733e-11
-1.540000000e-02	2.321564430e-01	-3.030036257e-04	1.902309927e-11
-1.550000000e-02	2.321564406e-01	-3.006473397e-04	7.349770395e-12
-1.560000000e-02	2.321564382e-01	-2.982910539e-04	3.052582225e-11
-1.570000000e-02	2.321564357e-01	-2.959347684e-04	4.745440144e-12
-1.580000000e-02	2.321564331e-01	-2.935784830e-04	5.827589590e-12
-1.590000000e-02	2.321564305e-01	-2.912221979e-04	7.691331410e-12
-1.600000000e-02	2.321564278e-01	-2.888659129e-04	6.262825504e-12
-1.610000000e-02	2.321564250e-01	-2.865096282e-04	2.536811487e-11
-1.620000000e-02	2.321564222e-01	-2.841533437e-04	1.655645487e-11
-1.630000000e-02	2.321564193e-01	-2.817970594e-04	2.282310748e-11
-1.640000000e-02	2.321564163e-01	-2.794407754e-04	5.043747773e-11
-1.650000000e-02	2.321564132e-01	-2.770844915e-04	1.295138559e-11
-1.660000000e-02	2.321564101e-01	-2.747282079e-04	2.832538093e-11
-1.670000000e-02	2.321564069e-01	-2.723719246e-04	4.223962295e-11
-1.680000000e-02	2.321564036e-01	-2.700156415e-04	3.959084633e-11
-1.690000000e-02	2.321564003e-01	-2.676593586e-04	8.315694578e-12
-1.700000000e-02	2.321563969e-01	-2.653030760e-04	1.999986545e-11
-1.710000000e-02	2.321563934e-01	-2.629467937e-04	2.237308341e-11
-1.720000000e-02	2.321563898e-01	-2.605905115e-04	3.589700075e-11
-1.730000000e-02	2.321563862e-01	-2.582342297e-04	2.983793840e-11
-1.740000000e-02	2.321563825e-01	-2.558779481e-04	1.491282897e-11
-1.750000000e-02	2.321563787e-01	-2.535216668e-04	1.000310772e-11
-1.760000000e-02	2.321563748e-01	-2.511653858e-04	3.013567611e-11
-1.770000000e-02	2.321563709e-01	-2.488091050e-04	1.940877303e-11
-1.780000000e-02	2.321563669e-01	-2.464528245e-04	1.522884214e-11
-1.790000000e-02	2.321563629e-01	-2.440965443e-04	2.841039999e-11
-1.800000000e-02	2.321563587e-01	-2.417402644e-04	1.754813546e-11
-1.810000000e-02	2.321563545e-01	-2.393839847e-04	1.255692926e-11
-1.820000000e-02	2.321563502e-01	-2.370277054e-04	1.022436907e-11
-1.830000000e-02	2.321563459e-01	-2.346714263e-04	6.193623475e-12
-1.840000000e-02	2.321563415e-01	-2.323151476e-04	1.442301653e-11
-1.850000000e-02	2.321563370e-01	-2.299588691e-04	1.595058695e-11
-1.860000000e-02	2.321563324e-01	-2.276025910e-04	1.210185381e-11
-1.870000000e-02	2.321563278e-01	-2.252463132e-04	1.329597232e-11
-1.880000000e-02	2.321563231e-01	-2.228900356e-04	2.046182134e-11
-1.890000000e-02	2.321563183e-01	-2.205337585e-04	1.587321815e-11
-1.900000000e-02	2.321563134e-01	-2.181774816e-04	1.384798177e-11
-1.910000000e-02	2.321563085e-01	-2.158212050e-04	1.861088770e-11
-1.920000000e-02	2.321563035e-01	-2.134649288e-04	5.320231796e-12
-1.930000000e-02	2.321562984e-01	-2.111086529e-04	3.443419081e-11
-1.940000000e-02	2.321562933e-01	-2.087523774e-04	7.474121202e-12
-1.950000000e-02	2.321562881e-01	-2.063961022e-04	1.008166774e-11
-1.960000000e-02	2.321562828e-01	-2.040398273e-04	9.710752278e-12
-1.970000000e-02	2.321562775e-01	-2.016835528e-04	1.275938381e-11
-1.980000000e-02	2.321562720e-01	-1.993272786e-04	1.401955384e-11
-1.990000000e-02	2.321562665e-01	-1.969710048e-04	1.508859210e-11
-2.000000000e-02	2.321562610e-01	-1.946147313e-04	8.043121347e-12
-2.010000000e-02	2.321562553e-01	-1.922584582e-04	3.120006517e-12
-2.020000000e-02	2.321562496e-01	-1.899021855e-04	8.716252085e-12
-2.030000000e-02	2.321562438e-01	-1.875459131e-04	3.196200574e-11
-2.040000000e-02	2.321562380e-01	-1.851896411e-04	2.006839652e-11
-2.050000000e-02	2.321562320e-01	-1.828333695e-04	1.178092405e-11
-2.060000000e-02	2.321562260e-01	-1.804770983e-04	1.297393132e-11
-2.070000000e-02	2.321562200e-01	-1.781208274e-04	1.239980105e-11
-2.080000000e-02	2.321562138e-01	-1.757645570e-04	6.066742645e-12
-2.090000000e-02	2.321562076e-01	-1.734082869e-04	1.523592100e-11
-2.100000000e-02	2.321562013e-01	-1.710520172e-04	2.143879640e-11
-2.110000000e-02	2.321561950e-01	-1.686957479e-04	9.449340096e-12
-2.120000000e-02	2.321561885e-01	-1.663394791e-04	6.098970716e-12
-2.130000000e-02	2.321561820e-01	-1.639832106e-04	1.220422006e-11
-2.140000000e-02	2.321561755e-01	-1.616269425e-04	5.398490916e-12
-2.150000000e-02	2.321561688e-01	-1.592706749e-04	9.362421499e-12
-2.160000000e-02	2.321561621e-01	-1.569144076e-04	8.752364327e-12
-2.170000000e-02	2.321561553e-01	-1.545581408e-04	2.235034505e-11
-2.180000000e-02	2.321561485e-01	-1.522018744e-04	1.545911951e-11
-2.190000000e-02	2.321561415e-01	-1.498456084e-04	1.511776507e-11
-2.200000000e-02	2.321561345e-01	-1.474893429e-04	9.708650587e-12
-2.210000000e-02	2.321561274e-01	-1.451330778e-04	8.412841084e-12
-2.220000000e-02	2.321561203e-01	-1.427768131e-04	6.753733253e-12
-2.230000000e-02	2.321561131e-01	-1.404205489e-04	2.083607200e-11
-2.240000000e-02	2.321561058e-01	-1.380642851e-04	9.862010920e-12
-2.250000000e-02	2.321560984e-01	-1.357080218e-04	6.606118521e-12
-2.260000000e-02	2.321560910e-01	-1.333517589e-04	8.754682241e-12
-2.270000000e-02	2.321560835e-01	-1.309954965e-04	2.203780280e-11
-2.280000000e-02	2.321560759e-01	-1.286392346e-04	1.030899469e-11
-2.290000000e-02	2.321560683e-01	-1.262829731e-04	1.611752414e-10
-2.300000000e-02	2.321560605e-01	-1.239267120e-04	6.437605058e-11
-2.310000000e-02	2.321560527e-01	-1.215704515e-04	5.780659965e-11
-2.320000000e-02	2.321560449e-01	-1.192141914e-04	6.703542276e-12
-2.330000000e-02	2.321560369e-01	-1.168579318e-04	1.397978017e-11
-2.340000000e-02	2.321560289e-01	-1.145016726e-04	6.091100127e-12
-2.350000000e-02	2.321560209e-01	-1.121454140e-04	3.279761785e-11
-2.360000000e-02	2.321560127e-01	-1.097891558e-04	8.336911184e-11
-2.370000000e-02	2.321560045e-01	-1.074328982e-04	8.364957557e-12
-2.380000000e-02	2.321559962e-01	-1.050766410e-04	1.549074539e-11
-2.390000000e-02	2.321559878e-01	-1.027203844e-04	1.586819499e-11
-2.400000000e-02	2.321559794e-01	-1.003641282e-04	1.864556356e-11
-2.410000000e-02	2.321559709e-01	-9.800787254e-05	9.930753397e-12
-2.420000000e-02	2.321559623e-01	-9.565161740e-05	9.681475918e-11
-2.430000000e-02	2.321559536e-01	-9.329536277e-05	1.258017033e-11
-2.440000000e-02	2.321559449e-01	-9.093910866e-05	9.903134766e-12
-2.450000000e-02	2.321559361e-01	-8.858285507e-05	9.064925464e-12
-2.460000000e-02	2.321559273e-01	-8.622660201e-05	9.637305589e-11
-2.470000000e-02	2.321559183e-01	-8.387034947e-05	1.480554418e-11
-2.480000000e-02	2.321559093e-01	-8.151409746e-05	8.015085830e-12
-2.490000000e-02	2.321559002e-01	-7.915784600e-05	9.332223088e-12
-2.500000000e-02	2.321558911e-01	-7.680159507e-05	1.240839780e-11
-2.510000000e-02	2.321558818e-01	-7.444534468e-05	1.297890476e-11
-2.520000000e-02	2.321558725e-01	-7.208909485e-05	8.584941730e-12
-2.530000000e-02	2.321558632e-01	-6.973284556e-05	9.908502295e-12
-2.540000000e-02	2.321558537e-01	-6.737659683e-05	1.484931636e-11
-2.550000000e-02	2.321558442e-01	-6.502034864e-05	1.832984105e-10
-2.560000000e-02	2.321558346e-01	-6.266410104e-05	5.536074727e-12
-2.570000000e-02	2.321558250e-01	-6.030785399e-05	2.015324453e-11
-2.580000000e-02	2.321558152e-01	-5.795160751e-05	1.577858900e-11
-2.590000000e-02	2.321558054e-01	-5.559536160e-05	1.022625993e-11
-2.600000000e-02	2.321557956e-01	-5.323911627e-05	7.658451977e-12
-2.610000000e-02	2.321557856e-01	-5.088287152e-05	1.167051979e-11
-2.620000000e-02	2.321557756e-01	-4.852662735e-05	7.852362681e-12
-2.630000000e-02	2.321557655e-01	-4.617038377e-05	1.551848013e-11
-2.640000000e-02	2.321557554e-01	-4.381414078e-05	2.847465812e-11
-2.650000000e-02	2.321557451e-01	-4.145789838e-05	1.475578954e-11
-2.660000000e-02	2.321557348e-01	-3.910165658e-05	2.403048869e-11
-2.670000000e-02	2.321557245e-01	-3.674541539e-05	9.342647062e-12
-2.680000000e-02	2.321557140e-01	-3.438917479e-05	1.564282149e-11
-2.690000000e-02	2.321557035e-01	-3.203293481e-05	1.903839985e-11
-2.700000000e-02	2.321556929e-01	-2.967669544e-05	8.975162837e-12
-2.710000000e-02	2.321556822e-01	-2.732045668e-05	1.259150990e-11
-2.720000000e-02	2.321556715e-01	-2.496421855e-05	2.251303939e-11
-2.730000000e-02	2.321556607e-01	-2.260798104e-05	8.447556283e-12
-2.740000000e-02	2.321556498e-01	-2.025174415e-05	1.390420363e-11
-2.750000000e-02	2.321556389e-01	-1.789550790e-05	1.213162596e-11
-2.760000000e-02	2.321556279e-01	-1.553927227e-05	9.922353701e-12
-2.770000000e-02	2.321556168e-01	-1.318303729e-05	1.328944238e-11
-2.780000000e-02	2.321556056e-01	-1.082680295e-05	4.408904742e-12
-2.790000000e-02	2.321555944e-01	-8.470569256e-06	1.586296355e-11
-2.800000000e-02	2.321555831e-01	-6.114336208e-06	1.731435958e-11
-2.810000000e-02	2.321555717e-01	-3.758103813e-06	1.494256714e-11
-2.820000000e-02	2.321555602e-01	-1.401872074e-06	8.458163663e-12
-2.830000000e-02	2.321555487e-01	9.543590055e-07	1.216076598e-11
-2.840000000e-02	2.321555371e-01	3.310589422e-06	5.798177300e-12
-2.850000000e-02	2.321555255e-01	5.666819171e-06	3.440418293e-11
-2.860000000e-02	2.321555137e-01	8.023048249e-06	1.710442155e-11
-2.870000000e-02	2.321555019e-01	1.037927666e-05	1.892486291e-11
-2.880000000e-02	2.321554900e-01	1.273550438e-05	1.619586121e-11
-2.890000000e-02	2.321554781e-01	1.509173143e-05	7.804682186e-12
-2.900000000e-02	2.321554661e-01	1.744795779e-05	1.755583660e-11
-2.910000000e-02	2.321554540e-01	1.980418346e-05	2.605902120e-11
-2.920000000e-02	2.321554418e-01	2.216040844e-05	9.204442918e-12
-2.930000000e-02	2.321554296e-01	2.451663272e-05	9.033005665e-12
-2.940000000e-02	2.321554173e-01	2.687285630e-05	1.312055922e-11
-2.950000000e-02	2.321554049e-01	2.922907918e-05	3.940540689e-12
-2.960000000e-02	2.321553924e-01	3.158530136e-05	7.760636649e-12
-2.970000000e-02	2.321553799e-01	3.394152282e-05	1.121477120e-11
-2.980000000e-02	2.321553673e-01	3.629774357e-05	4.698864710e-12
-2.990000000e-02	2.321553546e-01	3.865396360e-05	2.408725531e-11
-3.000000000e-02	2.321553419e-01	4.101018291e-05	4.938133580e-12
