# Im(epsi1)     Re(omega/c)      Im(omega/c)      Eq(det).Opt det CON kz, R=0.5 \mum, mu_c=0.3, Re(epsi1)=3.90solve_det_conkz_vs_kz.py
0.000000000e+00	2.321391440e-01	-6.658095039e-04	5.016532583e-12
-1.000000000e-04	2.321391527e-01	-6.634533520e-04	4.178974652e-11
-2.000000000e-04	2.321391613e-01	-6.610971996e-04	1.652597666e-11
-3.000000000e-04	2.321391699e-01	-6.587410469e-04	1.289211964e-11
-4.000000000e-04	2.321391783e-01	-6.563848939e-04	2.281999792e-11
-5.000000000e-04	2.321391868e-01	-6.540287405e-04	3.064112591e-11
-6.000000000e-04	2.321391951e-01	-6.516725868e-04	2.392604805e-11
-7.000000000e-04	2.321392034e-01	-6.493164327e-04	6.282785149e-12
-8.000000000e-04	2.321392116e-01	-6.469602783e-04	5.206599423e-12
-9.000000000e-04	2.321392197e-01	-6.446041235e-04	1.426764425e-11
-1.000000000e-03	2.321392277e-01	-6.422479684e-04	2.948340451e-11
-1.100000000e-03	2.321392357e-01	-6.398918130e-04	1.159565184e-11
-1.200000000e-03	2.321392436e-01	-6.375356572e-04	4.814685449e-11
-1.300000000e-03	2.321392515e-01	-6.351795012e-04	1.913511322e-10
-1.400000000e-03	2.321392592e-01	-6.328233448e-04	1.203686305e-11
-1.500000000e-03	2.321392669e-01	-6.304671881e-04	2.372239038e-11
-1.600000000e-03	2.321392746e-01	-6.281110311e-04	1.193797579e-11
-1.700000000e-03	2.321392821e-01	-6.257548738e-04	2.006414771e-11
-1.800000000e-03	2.321392896e-01	-6.233987161e-04	1.041355598e-11
-1.900000000e-03	2.321392970e-01	-6.210425582e-04	7.842613755e-12
-2.000000000e-03	2.321393043e-01	-6.186864000e-04	1.129839941e-11
-2.100000000e-03	2.321393116e-01	-6.163302415e-04	4.916108681e-11
-2.200000000e-03	2.321393188e-01	-6.139740827e-04	8.930569069e-12
-2.300000000e-03	2.321393259e-01	-6.116179236e-04	1.049616673e-11
-2.400000000e-03	2.321393330e-01	-6.092617642e-04	9.527454735e-12
-2.500000000e-03	2.321393400e-01	-6.069056046e-04	1.165030800e-11
-2.600000000e-03	2.321393469e-01	-6.045494446e-04	9.895210047e-12
-2.700000000e-03	2.321393537e-01	-6.021932845e-04	1.198605770e-11
-2.800000000e-03	2.321393605e-01	-5.998371240e-04	6.407448813e-12
-2.900000000e-03	2.321393671e-01	-5.974809633e-04	1.507459153e-11
-3.000000000e-03	2.321393738e-01	-5.951248023e-04	9.747039418e-12
-3.100000000e-03	2.321393803e-01	-5.927686410e-04	1.087022882e-11
-3.200000000e-03	2.321393868e-01	-5.904124796e-04	8.037629597e-12
-3.300000000e-03	2.321393932e-01	-5.880563178e-04	9.459392783e-12
-3.400000000e-03	2.321393995e-01	-5.857001558e-04	2.989743566e-11
-3.500000000e-03	2.321394058e-01	-5.833439936e-04	1.591461499e-11
-3.600000000e-03	2.321394120e-01	-5.809878311e-04	7.470886961e-12
-3.700000000e-03	2.321394181e-01	-5.786316684e-04	3.057459606e-11
-3.800000000e-03	2.321394241e-01	-5.762755055e-04	6.629804780e-12
-3.900000000e-03	2.321394301e-01	-5.739193423e-04	1.408297918e-11
-4.000000000e-03	2.321394360e-01	-5.715631789e-04	1.172119373e-11
-4.100000000e-03	2.321394419e-01	-5.692070153e-04	8.401058386e-12
-4.200000000e-03	2.321394476e-01	-5.668508515e-04	1.969071011e-11
-4.300000000e-03	2.321394533e-01	-5.644946875e-04	8.922438107e-12
-4.400000000e-03	2.321394589e-01	-5.621385232e-04	9.146524164e-11
-4.500000000e-03	2.321394645e-01	-5.597823588e-04	1.437123982e-11
-4.600000000e-03	2.321394699e-01	-5.574261941e-04	1.455056263e-11
-4.700000000e-03	2.321394753e-01	-5.550700293e-04	8.135407226e-12
-4.800000000e-03	2.321394807e-01	-5.527138642e-04	5.725113491e-11
-4.900000000e-03	2.321394859e-01	-5.503576990e-04	1.066333823e-11
-5.000000000e-03	2.321394911e-01	-5.480015336e-04	1.060348692e-11
-5.100000000e-03	2.321394962e-01	-5.456453680e-04	1.251673769e-11
-5.200000000e-03	2.321395013e-01	-5.432892022e-04	1.707761515e-11
-5.300000000e-03	2.321395062e-01	-5.409330362e-04	2.120280280e-11
-5.400000000e-03	2.321395111e-01	-5.385768701e-04	1.236336152e-11
-5.500000000e-03	2.321395160e-01	-5.362207038e-04	1.067903325e-11
-5.600000000e-03	2.321395207e-01	-5.338645373e-04	1.552549869e-11
-5.700000000e-03	2.321395254e-01	-5.315083707e-04	9.702350487e-12
-5.800000000e-03	2.321395300e-01	-5.291522039e-04	3.313201131e-11
-5.900000000e-03	2.321395346e-01	-5.267960370e-04	1.171081253e-11
-6.000000000e-03	2.321395390e-01	-5.244398699e-04	2.825728402e-11
-6.100000000e-03	2.321395434e-01	-5.220837026e-04	1.710646205e-11
-6.200000000e-03	2.321395477e-01	-5.197275352e-04	1.930534733e-11
-6.300000000e-03	2.321395520e-01	-5.173713677e-04	8.108136551e-12
-6.400000000e-03	2.321395562e-01	-5.150152000e-04	1.652608745e-11
-6.500000000e-03	2.321395603e-01	-5.126590322e-04	1.635440060e-11
-6.600000000e-03	2.321395643e-01	-5.103028643e-04	8.184687311e-12
-6.700000000e-03	2.321395683e-01	-5.079466963e-04	1.790018711e-11
-6.800000000e-03	2.321395722e-01	-5.055905281e-04	2.608631296e-11
-6.900000000e-03	2.321395760e-01	-5.032343598e-04	8.311738602e-12
-7.000000000e-03	2.321395798e-01	-5.008781914e-04	8.579043228e-12
-7.100000000e-03	2.321395834e-01	-4.985220229e-04	1.215207500e-11
-7.200000000e-03	2.321395871e-01	-4.961658542e-04	1.835604018e-11
-7.300000000e-03	2.321395906e-01	-4.938096855e-04	1.112331998e-11
-7.400000000e-03	2.321395941e-01	-4.914535167e-04	1.034055543e-11
-7.500000000e-03	2.321395974e-01	-4.890973478e-04	2.284542445e-11
-7.600000000e-03	2.321396008e-01	-4.867411787e-04	1.255548395e-11
-7.700000000e-03	2.321396040e-01	-4.843850096e-04	5.093881668e-11
-7.800000000e-03	2.321396072e-01	-4.820288404e-04	2.685159084e-11
-7.900000000e-03	2.321396103e-01	-4.796726712e-04	8.289387961e-11
-8.000000000e-03	2.321396133e-01	-4.773165018e-04	5.472256468e-12
-8.100000000e-03	2.321396163e-01	-4.749603324e-04	6.897932613e-12
-8.200000000e-03	2.321396192e-01	-4.726041629e-04	1.033378343e-10
-8.300000000e-03	2.321396220e-01	-4.702479933e-04	7.606087053e-11
-8.400000000e-03	2.321396248e-01	-4.678918237e-04	1.728050341e-11
-8.500000000e-03	2.321396274e-01	-4.655356540e-04	8.008307871e-12
-8.600000000e-03	2.321396300e-01	-4.631794843e-04	2.754434821e-11
-8.700000000e-03	2.321396326e-01	-4.608233145e-04	1.099327398e-11
-8.800000000e-03	2.321396350e-01	-4.584671446e-04	5.332412244e-11
-8.900000000e-03	2.321396374e-01	-4.561109747e-04	6.272431040e-12
-9.000000000e-03	2.321396397e-01	-4.537548048e-04	1.670538518e-11
-9.100000000e-03	2.321396420e-01	-4.513986348e-04	1.273805072e-11
-9.200000000e-03	2.321396442e-01	-4.490424648e-04	2.757138832e-11
-9.300000000e-03	2.321396463e-01	-4.466862948e-04	1.099716779e-11
-9.400000000e-03	2.321396483e-01	-4.443301247e-04	7.069288880e-12
-9.500000000e-03	2.321396503e-01	-4.419739546e-04	1.365936151e-11
-9.600000000e-03	2.321396521e-01	-4.396177845e-04	1.167524129e-11
-9.700000000e-03	2.321396540e-01	-4.372616144e-04	8.175356950e-11
-9.800000000e-03	2.321396557e-01	-4.349054442e-04	6.816639523e-12
-9.900000000e-03	2.321396574e-01	-4.325492741e-04	1.217919830e-11
-1.000000000e-02	2.321396590e-01	-4.301931039e-04	7.216042351e-12
-1.010000000e-02	2.321396605e-01	-4.278369338e-04	6.228362670e-12
-1.020000000e-02	2.321396620e-01	-4.254807636e-04	8.766080635e-12
-1.030000000e-02	2.321396633e-01	-4.231245935e-04	1.833518300e-11
-1.040000000e-02	2.321396647e-01	-4.207684233e-04	1.486931355e-11
-1.050000000e-02	2.321396659e-01	-4.184122532e-04	1.418631986e-11
-1.060000000e-02	2.321396671e-01	-4.160560831e-04	1.968043726e-11
-1.070000000e-02	2.321396682e-01	-4.136999130e-04	1.536900331e-11
-1.080000000e-02	2.321396692e-01	-4.113437429e-04	1.125077091e-11
-1.090000000e-02	2.321396701e-01	-4.089875729e-04	1.107198990e-11
-1.100000000e-02	2.321396710e-01	-4.066314029e-04	9.794657717e-12
-1.110000000e-02	2.321396718e-01	-4.042752329e-04	2.480696166e-11
-1.120000000e-02	2.321396726e-01	-4.019190629e-04	1.747268833e-11
-1.130000000e-02	2.321396733e-01	-3.995628930e-04	4.959249547e-12
-1.140000000e-02	2.321396738e-01	-3.972067232e-04	5.541741662e-11
-1.150000000e-02	2.321396744e-01	-3.948505534e-04	1.380069460e-11
-1.160000000e-02	2.321396748e-01	-3.924943836e-04	1.397914269e-11
-1.170000000e-02	2.321396752e-01	-3.901382139e-04	1.455255536e-11
-1.180000000e-02	2.321396755e-01	-3.877820443e-04	8.804208478e-12
-1.190000000e-02	2.321396758e-01	-3.854258747e-04	8.190287317e-12
-1.200000000e-02	2.321396759e-01	-3.830697052e-04	1.272728602e-11
-1.210000000e-02	2.321396760e-01	-3.807135358e-04	1.335499003e-11
-1.220000000e-02	2.321396760e-01	-3.783573664e-04	8.637266042e-12
-1.230000000e-02	2.321396760e-01	-3.760011972e-04	1.269697114e-11
-1.240000000e-02	2.321396759e-01	-3.736450280e-04	1.745308434e-11
-1.250000000e-02	2.321396757e-01	-3.712888588e-04	3.098293125e-11
-1.260000000e-02	2.321396754e-01	-3.689326898e-04	6.503834587e-12
-1.270000000e-02	2.321396751e-01	-3.665765209e-04	1.072567893e-11
-1.280000000e-02	2.321396747e-01	-3.642203520e-04	1.207072794e-11
-1.290000000e-02	2.321396742e-01	-3.618641833e-04	1.149629316e-11
-1.300000000e-02	2.321396736e-01	-3.595080147e-04	9.549873547e-12
-1.310000000e-02	2.321396730e-01	-3.571518462e-04	7.157505907e-12
-1.320000000e-02	2.321396723e-01	-3.547956777e-04	6.143414829e-12
-1.330000000e-02	2.321396716e-01	-3.524395094e-04	1.769041656e-11
-1.340000000e-02	2.321396707e-01	-3.500833413e-04	1.791245391e-11
-1.350000000e-02	2.321396698e-01	-3.477271732e-04	7.782212574e-12
-1.360000000e-02	2.321396688e-01	-3.453710053e-04	9.594315779e-12
-1.370000000e-02	2.321396678e-01	-3.430148374e-04	1.026004409e-11
-1.380000000e-02	2.321396667e-01	-3.406586698e-04	1.427338404e-11
-1.390000000e-02	2.321396655e-01	-3.383025022e-04	1.476828599e-10
-1.400000000e-02	2.321396642e-01	-3.359463348e-04	7.962425973e-12
-1.410000000e-02	2.321396628e-01	-3.335901676e-04	9.898571933e-12
-1.420000000e-02	2.321396614e-01	-3.312340005e-04	1.365294004e-11
-1.430000000e-02	2.321396600e-01	-3.288778335e-04	4.585710730e-11
-1.440000000e-02	2.321396584e-01	-3.265216667e-04	1.357254667e-11
-1.450000000e-02	2.321396568e-01	-3.241655001e-04	3.355145267e-11
-1.460000000e-02	2.321396551e-01	-3.218093336e-04	2.191783508e-11
-1.470000000e-02	2.321396533e-01	-3.194531673e-04	1.295983096e-11
-1.480000000e-02	2.321396515e-01	-3.170970011e-04	1.156660051e-11
-1.490000000e-02	2.321396495e-01	-3.147408351e-04	3.232436142e-11
-1.500000000e-02	2.321396476e-01	-3.123846693e-04	1.168446548e-11
-1.510000000e-02	2.321396455e-01	-3.100285037e-04	1.478189307e-11
-1.520000000e-02	2.321396434e-01	-3.076723383e-04	1.309607671e-11
-1.530000000e-02	2.321396412e-01	-3.053161730e-04	6.329914154e-12
-1.540000000e-02	2.321396389e-01	-3.029600080e-04	2.081307427e-11
-1.550000000e-02	2.321396366e-01	-3.006038431e-04	1.582784456e-11
-1.560000000e-02	2.321396341e-01	-2.982476785e-04	8.532704124e-12
-1.570000000e-02	2.321396317e-01	-2.958915140e-04	2.565103231e-11
-1.580000000e-02	2.321396291e-01	-2.935353497e-04	3.810963162e-11
-1.590000000e-02	2.321396265e-01	-2.911791857e-04	1.347751360e-11
-1.600000000e-02	2.321396238e-01	-2.888230218e-04	1.223753453e-11
-1.610000000e-02	2.321396210e-01	-2.864668582e-04	1.457092580e-11
-1.620000000e-02	2.321396182e-01	-2.841106948e-04	2.121623516e-11
-1.630000000e-02	2.321396152e-01	-2.817545316e-04	9.273704921e-12
-1.640000000e-02	2.321396122e-01	-2.793983687e-04	8.150549393e-12
-1.650000000e-02	2.321396092e-01	-2.770422060e-04	1.991436586e-11
-1.660000000e-02	2.321396061e-01	-2.746860435e-04	9.557511335e-12
-1.670000000e-02	2.321396028e-01	-2.723298812e-04	1.969442504e-11
-1.680000000e-02	2.321395996e-01	-2.699737192e-04	1.786024948e-11
-1.690000000e-02	2.321395962e-01	-2.676175575e-04	2.594340665e-11
-1.700000000e-02	2.321395928e-01	-2.652613959e-04	6.634026269e-12
-1.710000000e-02	2.321395893e-01	-2.629052347e-04	1.215193275e-11
-1.720000000e-02	2.321395858e-01	-2.605490737e-04	1.108727669e-11
-1.730000000e-02	2.321395821e-01	-2.581929129e-04	8.121974196e-12
-1.740000000e-02	2.321395784e-01	-2.558367525e-04	1.117970647e-11
-1.750000000e-02	2.321395746e-01	-2.534805922e-04	1.654030216e-11
-1.760000000e-02	2.321395708e-01	-2.511244323e-04	1.394375635e-11
-1.770000000e-02	2.321395669e-01	-2.487682726e-04	5.946384022e-12
-1.780000000e-02	2.321395629e-01	-2.464121132e-04	1.315646831e-11
-1.790000000e-02	2.321395588e-01	-2.440559541e-04	1.639047895e-11
-1.800000000e-02	2.321395547e-01	-2.416997953e-04	1.382242120e-11
-1.810000000e-02	2.321395505e-01	-2.393436368e-04	7.519385387e-12
-1.820000000e-02	2.321395462e-01	-2.369874785e-04	2.053045498e-11
-1.830000000e-02	2.321395418e-01	-2.346313206e-04	2.495832830e-11
-1.840000000e-02	2.321395374e-01	-2.322751629e-04	1.294973134e-11
-1.850000000e-02	2.321395329e-01	-2.299190056e-04	9.613750705e-12
-1.860000000e-02	2.321395283e-01	-2.275628485e-04	9.829632834e-12
-1.870000000e-02	2.321395237e-01	-2.252066918e-04	1.098208451e-11
-1.880000000e-02	2.321395190e-01	-2.228505354e-04	1.733682079e-11
-1.890000000e-02	2.321395142e-01	-2.204943793e-04	8.528203832e-12
-1.900000000e-02	2.321395094e-01	-2.181382235e-04	8.126881272e-12
-1.910000000e-02	2.321395044e-01	-2.157820681e-04	1.292426578e-11
-1.920000000e-02	2.321394994e-01	-2.134259130e-04	8.589998185e-12
-1.930000000e-02	2.321394944e-01	-2.110697582e-04	1.232517906e-11
-1.940000000e-02	2.321394892e-01	-2.087136037e-04	1.106222112e-11
-1.950000000e-02	2.321394840e-01	-2.063574496e-04	2.258465046e-11
-1.960000000e-02	2.321394787e-01	-2.040012959e-04	1.645971288e-11
-1.970000000e-02	2.321394734e-01	-2.016451425e-04	1.037268656e-11
-1.980000000e-02	2.321394680e-01	-1.992889894e-04	1.699241438e-11
-1.990000000e-02	2.321394625e-01	-1.969328367e-04	9.142440115e-12
-2.000000000e-02	2.321394569e-01	-1.945766843e-04	6.499217066e-12
-2.010000000e-02	2.321394512e-01	-1.922205323e-04	5.315481162e-11
-2.020000000e-02	2.321394455e-01	-1.898643807e-04	2.753979579e-11
-2.030000000e-02	2.321394397e-01	-1.875082294e-04	1.681050960e-11
-2.040000000e-02	2.321394339e-01	-1.851520785e-04	5.626665061e-12
-2.050000000e-02	2.321394280e-01	-1.827959280e-04	3.144485517e-11
-2.060000000e-02	2.321394220e-01	-1.804397779e-04	5.210704518e-12
-2.070000000e-02	2.321394159e-01	-1.780836282e-04	2.044377627e-11
-2.080000000e-02	2.321394097e-01	-1.757274788e-04	1.024038710e-11
-2.090000000e-02	2.321394035e-01	-1.733713298e-04	1.443896450e-11
-2.100000000e-02	2.321393972e-01	-1.710151812e-04	1.215642698e-11
-2.110000000e-02	2.321393909e-01	-1.686590331e-04	9.989184632e-12
-2.120000000e-02	2.321393845e-01	-1.663028853e-04	8.506441718e-12
-2.130000000e-02	2.321393779e-01	-1.639467379e-04	4.715878943e-11
-2.140000000e-02	2.321393714e-01	-1.615905909e-04	1.247218720e-11
-2.150000000e-02	2.321393647e-01	-1.592344444e-04	8.882870939e-11
-2.160000000e-02	2.321393580e-01	-1.568782983e-04	1.476813698e-11
-2.170000000e-02	2.321393512e-01	-1.545221525e-04	1.660789658e-11
-2.180000000e-02	2.321393444e-01	-1.521660073e-04	1.317099668e-11
-2.190000000e-02	2.321393374e-01	-1.498098624e-04	2.146730568e-11
-2.200000000e-02	2.321393304e-01	-1.474537180e-04	2.265365703e-11
-2.210000000e-02	2.321393233e-01	-1.450975740e-04	1.925972179e-11
-2.220000000e-02	2.321393162e-01	-1.427414304e-04	3.214899996e-11
-2.230000000e-02	2.321393090e-01	-1.403852873e-04	3.960055411e-11
-2.240000000e-02	2.321393017e-01	-1.380291446e-04	1.545970764e-11
-2.250000000e-02	2.321392943e-01	-1.356730024e-04	7.737211591e-12
-2.260000000e-02	2.321392869e-01	-1.333168606e-04	2.630790714e-11
-2.270000000e-02	2.321392794e-01	-1.309607193e-04	2.213742643e-11
-2.280000000e-02	2.321392718e-01	-1.286045784e-04	7.087513937e-12
-2.290000000e-02	2.321392642e-01	-1.262484380e-04	1.873695709e-11
-2.300000000e-02	2.321392564e-01	-1.238922981e-04	1.581791295e-11
-2.310000000e-02	2.321392486e-01	-1.215361587e-04	8.470084317e-12
-2.320000000e-02	2.321392408e-01	-1.191800197e-04	2.829888941e-11
-2.330000000e-02	2.321392328e-01	-1.168238812e-04	1.293270790e-11
-2.340000000e-02	2.321392248e-01	-1.144677431e-04	7.704184778e-11
-2.350000000e-02	2.321392168e-01	-1.121116056e-04	1.179808834e-11
-2.360000000e-02	2.321392086e-01	-1.097554686e-04	7.897327829e-12
-2.370000000e-02	2.321392004e-01	-1.073993320e-04	1.101118070e-11
-2.380000000e-02	2.321391921e-01	-1.050431959e-04	1.353643404e-11
-2.390000000e-02	2.321391837e-01	-1.026870604e-04	1.061149131e-11
-2.400000000e-02	2.321391753e-01	-1.003309253e-04	2.579119686e-11
-2.410000000e-02	2.321391668e-01	-9.797479077e-05	1.083132197e-11
-2.420000000e-02	2.321391582e-01	-9.561865673e-05	3.824823977e-11
-2.430000000e-02	2.321391495e-01	-9.326252320e-05	1.533120473e-11
-2.440000000e-02	2.321391408e-01	-9.090639020e-05	1.472663894e-11
-2.450000000e-02	2.321391320e-01	-8.855025771e-05	2.327222483e-11
-2.460000000e-02	2.321391231e-01	-8.619412575e-05	1.406531450e-11
-2.470000000e-02	2.321391142e-01	-8.383799432e-05	1.345453614e-11
-2.480000000e-02	2.321391052e-01	-8.148186342e-05	1.501956570e-11
-2.490000000e-02	2.321390961e-01	-7.912573306e-05	8.451122278e-12
-2.500000000e-02	2.321390869e-01	-7.676960323e-05	7.109625245e-12
-2.510000000e-02	2.321390777e-01	-7.441347395e-05	1.126382548e-11
-2.520000000e-02	2.321390684e-01	-7.205734522e-05	1.029457077e-11
-2.530000000e-02	2.321390591e-01	-6.970121703e-05	1.219361645e-11
-2.540000000e-02	2.321390496e-01	-6.734508941e-05	1.026824973e-11
-2.550000000e-02	2.321390401e-01	-6.498896233e-05	6.346510639e-12
-2.560000000e-02	2.321390305e-01	-6.263283583e-05	1.163246224e-11
-2.570000000e-02	2.321390209e-01	-6.027670988e-05	1.459239218e-11
-2.580000000e-02	2.321390111e-01	-5.792058451e-05	1.187865522e-11
-2.590000000e-02	2.321390013e-01	-5.556445970e-05	3.582866431e-11
-2.600000000e-02	2.321389914e-01	-5.320833548e-05	1.601547140e-11
-2.610000000e-02	2.321389815e-01	-5.085221183e-05	1.631941623e-11
-2.620000000e-02	2.321389715e-01	-4.849608877e-05	1.112379145e-11
-2.630000000e-02	2.321389614e-01	-4.613996629e-05	1.404110840e-11
-2.640000000e-02	2.321389512e-01	-4.378384440e-05	7.331552294e-12
-2.650000000e-02	2.321389410e-01	-4.142772311e-05	1.736038642e-11
-2.660000000e-02	2.321389307e-01	-3.907160242e-05	1.247367066e-11
-2.670000000e-02	2.321389203e-01	-3.671548232e-05	2.181370360e-11
-2.680000000e-02	2.321389099e-01	-3.435936284e-05	6.482658678e-12
-2.690000000e-02	2.321388994e-01	-3.200324396e-05	8.756138581e-12
-2.700000000e-02	2.321388888e-01	-2.964712569e-05	1.023036506e-11
-2.710000000e-02	2.321388781e-01	-2.729100804e-05	1.665989356e-11
-2.720000000e-02	2.321388674e-01	-2.493489101e-05	1.050173913e-11
-2.730000000e-02	2.321388566e-01	-2.257877460e-05	1.156033051e-11
-2.740000000e-02	2.321388457e-01	-2.022265882e-05	2.322990082e-11
-2.750000000e-02	2.321388348e-01	-1.786654368e-05	1.436473661e-11
-2.760000000e-02	2.321388237e-01	-1.551042916e-05	1.231204890e-11
-2.770000000e-02	2.321388126e-01	-1.315431528e-05	1.464865344e-11
-2.780000000e-02	2.321388015e-01	-1.079820204e-05	2.112043973e-11
-2.790000000e-02	2.321387902e-01	-8.442089451e-06	4.112545293e-11
-2.800000000e-02	2.321387789e-01	-6.085977513e-06	8.410357349e-12
-2.810000000e-02	2.321387676e-01	-3.729866222e-06	1.849017980e-11
-2.820000000e-02	2.321387561e-01	-1.373755588e-06	2.726085719e-11
-2.830000000e-02	2.321387446e-01	9.823543812e-07	6.333307487e-11
-2.840000000e-02	2.321387330e-01	3.338463697e-06	9.071693881e-12
-2.850000000e-02	2.321387213e-01	5.694572336e-06	5.198226283e-11
-2.860000000e-02	2.321387096e-01	8.050680314e-06	9.238797965e-12
-2.870000000e-02	2.321386978e-01	1.040678761e-05	1.657089468e-11
-2.880000000e-02	2.321386859e-01	1.276289423e-05	1.182077394e-11
-2.890000000e-02	2.321386740e-01	1.511900017e-05	7.589839970e-12
-2.900000000e-02	2.321386619e-01	1.747510543e-05	6.222033749e-12
-2.910000000e-02	2.321386498e-01	1.983120999e-05	1.388760303e-11
-2.920000000e-02	2.321386377e-01	2.218731387e-05	2.035398546e-11
-2.930000000e-02	2.321386254e-01	2.454341705e-05	3.709319820e-11
-2.940000000e-02	2.321386131e-01	2.689951952e-05	1.456730419e-11
-2.950000000e-02	2.321386007e-01	2.925562129e-05	5.308283690e-11
-2.960000000e-02	2.321385883e-01	3.161172237e-05	1.152432282e-11
-2.970000000e-02	2.321385758e-01	3.396782273e-05	2.532766620e-11
-2.980000000e-02	2.321385632e-01	3.632392237e-05	9.387071101e-12
-2.990000000e-02	2.321385505e-01	3.868002129e-05	8.624334582e-12
-3.000000000e-02	2.321385377e-01	4.103611950e-05	2.324762995e-11
