# Im(epsi1)     Re(omega/c)      Im(omega/c)      Eq(det).Opt det CON kz, R=0.5 \mum, mu_c=0.3, Re(epsi1)=3.90solve_det_conkz_vs_kz.py
0.000000000e+00	2.321660842e-01	-6.659093274e-04	4.581994860e-11
-1.000000000e-04	2.321660929e-01	-6.635529813e-04	5.680897848e-12
-2.000000000e-04	2.321661015e-01	-6.611966348e-04	1.767785609e-11
-3.000000000e-04	2.321661101e-01	-6.588402879e-04	5.039870250e-11
-4.000000000e-04	2.321661186e-01	-6.564839407e-04	1.373841918e-11
-5.000000000e-04	2.321661270e-01	-6.541275932e-04	1.034188775e-11
-6.000000000e-04	2.321661353e-01	-6.517712453e-04	2.708798260e-11
-7.000000000e-04	2.321661436e-01	-6.494148970e-04	2.537385682e-11
-8.000000000e-04	2.321661518e-01	-6.470585484e-04	1.161154380e-11
-9.000000000e-04	2.321661599e-01	-6.447021995e-04	4.992611147e-12
-1.000000000e-03	2.321661680e-01	-6.423458502e-04	7.557869838e-12
-1.100000000e-03	2.321661760e-01	-6.399895006e-04	1.473964033e-11
-1.200000000e-03	2.321661839e-01	-6.376331507e-04	1.726096631e-11
-1.300000000e-03	2.321661917e-01	-6.352768005e-04	9.645868389e-12
-1.400000000e-03	2.321661995e-01	-6.329204499e-04	1.598571184e-11
-1.500000000e-03	2.321662072e-01	-6.305640991e-04	1.517641881e-11
-1.600000000e-03	2.321662148e-01	-6.282077479e-04	1.739133692e-11
-1.700000000e-03	2.321662224e-01	-6.258513964e-04	2.050830534e-11
-1.800000000e-03	2.321662298e-01	-6.234950446e-04	8.273350028e-12
-1.900000000e-03	2.321662373e-01	-6.211386925e-04	1.056974718e-11
-2.000000000e-03	2.321662446e-01	-6.187823401e-04	1.260746516e-11
-2.100000000e-03	2.321662519e-01	-6.164259875e-04	1.620056053e-11
-2.200000000e-03	2.321662591e-01	-6.140696345e-04	1.989185323e-11
-2.300000000e-03	2.321662662e-01	-6.117132812e-04	1.339442733e-11
-2.400000000e-03	2.321662732e-01	-6.093569277e-04	2.219628021e-11
-2.500000000e-03	2.321662802e-01	-6.070005739e-04	9.869304055e-12
-2.600000000e-03	2.321662871e-01	-6.046442198e-04	1.228248527e-11
-2.700000000e-03	2.321662940e-01	-6.022878654e-04	1.255411252e-11
-2.800000000e-03	2.321663007e-01	-5.999315108e-04	8.259042233e-12
-2.900000000e-03	2.321663074e-01	-5.975751559e-04	1.080439317e-11
-3.000000000e-03	2.321663140e-01	-5.952188007e-04	9.314515663e-12
-3.100000000e-03	2.321663206e-01	-5.928624453e-04	9.750826759e-12
-3.200000000e-03	2.321663271e-01	-5.905060897e-04	1.618817015e-11
-3.300000000e-03	2.321663335e-01	-5.881497338e-04	1.969279456e-11
-3.400000000e-03	2.321663398e-01	-5.857933776e-04	1.178256793e-11
-3.500000000e-03	2.321663461e-01	-5.834370212e-04	2.371051711e-11
-3.600000000e-03	2.321663523e-01	-5.810806646e-04	8.871834573e-12
-3.700000000e-03	2.321663584e-01	-5.787243077e-04	3.723775046e-11
-3.800000000e-03	2.321663644e-01	-5.763679506e-04	4.719034744e-12
-3.900000000e-03	2.321663704e-01	-5.740115933e-04	1.792894913e-11
-4.000000000e-03	2.321663763e-01	-5.716552357e-04	5.383733291e-11
-4.100000000e-03	2.321663821e-01	-5.692988779e-04	1.767770978e-11
-4.200000000e-03	2.321663879e-01	-5.669425199e-04	2.097228668e-11
-4.300000000e-03	2.321663936e-01	-5.645861617e-04	1.039352697e-11
-4.400000000e-03	2.321663992e-01	-5.622298033e-04	1.743664406e-11
-4.500000000e-03	2.321664048e-01	-5.598734447e-04	1.136481789e-11
-4.600000000e-03	2.321664102e-01	-5.575170859e-04	3.593881023e-11
-4.700000000e-03	2.321664156e-01	-5.551607269e-04	1.349043170e-11
-4.800000000e-03	2.321664210e-01	-5.528043676e-04	1.727117991e-11
-4.900000000e-03	2.321664262e-01	-5.504480082e-04	1.578235775e-11
-5.000000000e-03	2.321664314e-01	-5.480916486e-04	3.281222614e-11
-5.100000000e-03	2.321664365e-01	-5.457352889e-04	5.474626049e-12
-5.200000000e-03	2.321664416e-01	-5.433789289e-04	6.850417272e-12
-5.300000000e-03	2.321664465e-01	-5.410225688e-04	8.673271128e-12
-5.400000000e-03	2.321664514e-01	-5.386662085e-04	1.007888320e-11
-5.500000000e-03	2.321664563e-01	-5.363098480e-04	1.167218422e-11
-5.600000000e-03	2.321664610e-01	-5.339534874e-04	3.009254869e-11
-5.700000000e-03	2.321664657e-01	-5.315971266e-04	5.823615696e-12
-5.800000000e-03	2.321664703e-01	-5.292407656e-04	1.060776988e-11
-5.900000000e-03	2.321664749e-01	-5.268844045e-04	1.606976008e-11
-6.000000000e-03	2.321664793e-01	-5.245280432e-04	1.061512634e-11
-6.100000000e-03	2.321664837e-01	-5.221716818e-04	1.007906434e-11
-6.200000000e-03	2.321664881e-01	-5.198153202e-04	6.602464653e-12
-6.300000000e-03	2.321664923e-01	-5.174589585e-04	1.421534873e-10
-6.400000000e-03	2.321664965e-01	-5.151025967e-04	1.658269874e-11
-6.500000000e-03	2.321665006e-01	-5.127462347e-04	1.345559005e-11
-6.600000000e-03	2.321665047e-01	-5.103898726e-04	1.684863788e-11
-6.700000000e-03	2.321665086e-01	-5.080335104e-04	2.026502226e-11
-6.800000000e-03	2.321665125e-01	-5.056771481e-04	1.339320954e-11
-6.900000000e-03	2.321665163e-01	-5.033207856e-04	8.010827002e-12
-7.000000000e-03	2.321665201e-01	-5.009644230e-04	9.418338758e-12
-7.100000000e-03	2.321665238e-01	-4.986080603e-04	7.030410444e-11
-7.200000000e-03	2.321665274e-01	-4.962516975e-04	1.519415196e-11
-7.300000000e-03	2.321665309e-01	-4.938953346e-04	1.866772345e-11
-7.400000000e-03	2.321665344e-01	-4.915389716e-04	9.534400121e-12
-7.500000000e-03	2.321665378e-01	-4.891826085e-04	2.602504673e-11
-7.600000000e-03	2.321665411e-01	-4.868262454e-04	2.545708063e-11
-7.700000000e-03	2.321665444e-01	-4.844698821e-04	6.373505975e-12
-7.800000000e-03	2.321665475e-01	-4.821135187e-04	1.192730700e-11
-7.900000000e-03	2.321665507e-01	-4.797571553e-04	1.260502529e-11
-8.000000000e-03	2.321665537e-01	-4.774007917e-04	7.051539444e-12
-8.100000000e-03	2.321665567e-01	-4.750444281e-04	7.714578396e-12
-8.200000000e-03	2.321665595e-01	-4.726880645e-04	1.103331596e-11
-8.300000000e-03	2.321665624e-01	-4.703317007e-04	6.151358990e-12
-8.400000000e-03	2.321665651e-01	-4.679753369e-04	1.057904760e-11
-8.500000000e-03	2.321665678e-01	-4.656189731e-04	3.389362409e-11
-8.600000000e-03	2.321665704e-01	-4.632626091e-04	1.849750834e-11
-8.700000000e-03	2.321665729e-01	-4.609062452e-04	9.689370724e-12
-8.800000000e-03	2.321665754e-01	-4.585498812e-04	1.388651060e-11
-8.900000000e-03	2.321665778e-01	-4.561935171e-04	1.167386472e-11
-9.000000000e-03	2.321665801e-01	-4.538371530e-04	1.597853595e-11
-9.100000000e-03	2.321665824e-01	-4.514807888e-04	1.961960498e-11
-9.200000000e-03	2.321665845e-01	-4.491244246e-04	3.991640398e-11
-9.300000000e-03	2.321665866e-01	-4.467680604e-04	7.683657030e-12
-9.400000000e-03	2.321665887e-01	-4.444116962e-04	4.183669310e-12
-9.500000000e-03	2.321665906e-01	-4.420553319e-04	9.886542979e-12
-9.600000000e-03	2.321665925e-01	-4.396989676e-04	7.586321008e-12
-9.700000000e-03	2.321665943e-01	-4.373426033e-04	4.155876596e-12
-9.800000000e-03	2.321665961e-01	-4.349862390e-04	1.393725294e-11
-9.900000000e-03	2.321665978e-01	-4.326298747e-04	1.618797774e-11
-1.000000000e-02	2.321665994e-01	-4.302735104e-04	2.785995100e-11
-1.010000000e-02	2.321666009e-01	-4.279171460e-04	1.162228138e-11
-1.020000000e-02	2.321666023e-01	-4.255607817e-04	6.294250526e-11
-1.030000000e-02	2.321666037e-01	-4.232044174e-04	3.600135739e-12
-1.040000000e-02	2.321666050e-01	-4.208480531e-04	1.471248580e-11
-1.050000000e-02	2.321666063e-01	-4.184916888e-04	1.211266381e-11
-1.060000000e-02	2.321666075e-01	-4.161353245e-04	1.140766566e-11
-1.070000000e-02	2.321666086e-01	-4.137789602e-04	1.456545548e-11
-1.080000000e-02	2.321666096e-01	-4.114225960e-04	1.957045172e-11
-1.090000000e-02	2.321666105e-01	-4.090662318e-04	1.479752288e-11
-1.100000000e-02	2.321666114e-01	-4.067098676e-04	1.253115590e-11
-1.110000000e-02	2.321666122e-01	-4.043535034e-04	1.230955926e-11
-1.120000000e-02	2.321666130e-01	-4.019971393e-04	7.360401183e-12
-1.130000000e-02	2.321666137e-01	-3.996407752e-04	3.529236303e-11
-1.140000000e-02	2.321666143e-01	-3.972844112e-04	6.284569522e-12
-1.150000000e-02	2.321666148e-01	-3.949280472e-04	1.093335914e-11
-1.160000000e-02	2.321666152e-01	-3.925716833e-04	1.164778947e-11
-1.170000000e-02	2.321666156e-01	-3.902153194e-04	6.203381842e-11
-1.180000000e-02	2.321666159e-01	-3.878589556e-04	5.001413319e-12
-1.190000000e-02	2.321666162e-01	-3.855025919e-04	1.809569881e-11
-1.200000000e-02	2.321666163e-01	-3.831462282e-04	1.890555020e-11
-1.210000000e-02	2.321666164e-01	-3.807898646e-04	1.292860091e-11
-1.220000000e-02	2.321666165e-01	-3.784335011e-04	5.508602309e-12
-1.230000000e-02	2.321666164e-01	-3.760771376e-04	1.022265735e-11
-1.240000000e-02	2.321666163e-01	-3.737207742e-04	7.839003246e-12
-1.250000000e-02	2.321666161e-01	-3.713644109e-04	1.431464051e-11
-1.260000000e-02	2.321666158e-01	-3.690080477e-04	2.473930055e-11
-1.270000000e-02	2.321666155e-01	-3.666516846e-04	1.735690195e-11
-1.280000000e-02	2.321666151e-01	-3.642953216e-04	2.230032656e-11
-1.290000000e-02	2.321666146e-01	-3.619389587e-04	1.111844221e-11
-1.300000000e-02	2.321666141e-01	-3.595825959e-04	2.421523532e-11
-1.310000000e-02	2.321666134e-01	-3.572262332e-04	1.925819019e-11
-1.320000000e-02	2.321666128e-01	-3.548698706e-04	1.794658001e-12
-1.330000000e-02	2.321666120e-01	-3.525135081e-04	1.057163784e-11
-1.340000000e-02	2.321666111e-01	-3.501571458e-04	1.385234668e-11
-1.350000000e-02	2.321666102e-01	-3.478007835e-04	6.044415666e-12
-1.360000000e-02	2.321666093e-01	-3.454444214e-04	6.405535599e-12
-1.370000000e-02	2.321666082e-01	-3.430880594e-04	1.816617272e-11
-1.380000000e-02	2.321666071e-01	-3.407316976e-04	1.609312225e-11
-1.390000000e-02	2.321666059e-01	-3.383753359e-04	1.937291681e-11
-1.400000000e-02	2.321666046e-01	-3.360189743e-04	2.215306536e-11
-1.410000000e-02	2.321666033e-01	-3.336626129e-04	2.515367878e-11
-1.420000000e-02	2.321666019e-01	-3.313062516e-04	1.073410793e-10
-1.430000000e-02	2.321666004e-01	-3.289498905e-04	1.201647992e-11
-1.440000000e-02	2.321665988e-01	-3.265935295e-04	5.445269800e-11
-1.450000000e-02	2.321665972e-01	-3.242371687e-04	1.169481571e-11
-1.460000000e-02	2.321665955e-01	-3.218808080e-04	2.811206835e-11
-1.470000000e-02	2.321665938e-01	-3.195244475e-04	7.723665542e-12
-1.480000000e-02	2.321665919e-01	-3.171680872e-04	1.278300594e-11
-1.490000000e-02	2.321665900e-01	-3.148117270e-04	5.721274523e-11
-1.500000000e-02	2.321665880e-01	-3.124553671e-04	9.801483005e-12
-1.510000000e-02	2.321665860e-01	-3.100990073e-04	7.261215469e-11
-1.520000000e-02	2.321665838e-01	-3.077426476e-04	5.499219801e-12
-1.530000000e-02	2.321665816e-01	-3.053862882e-04	8.309750404e-12
-1.540000000e-02	2.321665794e-01	-3.030299290e-04	1.302264522e-11
-1.550000000e-02	2.321665770e-01	-3.006735699e-04	1.056460597e-11
-1.560000000e-02	2.321665746e-01	-2.983172111e-04	1.615089764e-11
-1.570000000e-02	2.321665721e-01	-2.959608525e-04	2.265284097e-11
-1.580000000e-02	2.321665696e-01	-2.936044940e-04	7.634574111e-12
-1.590000000e-02	2.321665669e-01	-2.912481358e-04	9.187277742e-12
-1.600000000e-02	2.321665642e-01	-2.888917778e-04	2.420781578e-11
-1.610000000e-02	2.321665615e-01	-2.865354200e-04	1.313288115e-11
-1.620000000e-02	2.321665586e-01	-2.841790624e-04	9.795222262e-12
-1.630000000e-02	2.321665557e-01	-2.818227050e-04	1.397859578e-11
-1.640000000e-02	2.321665527e-01	-2.794663479e-04	1.139550829e-11
-1.650000000e-02	2.321665497e-01	-2.771099910e-04	2.652953237e-11
-1.660000000e-02	2.321665465e-01	-2.747536344e-04	2.237126934e-11
-1.670000000e-02	2.321665433e-01	-2.723972779e-04	5.392654642e-12
-1.680000000e-02	2.321665400e-01	-2.700409217e-04	1.261743188e-11
-1.690000000e-02	2.321665367e-01	-2.676845658e-04	1.431798848e-11
-1.700000000e-02	2.321665333e-01	-2.653282101e-04	1.938508622e-11
-1.710000000e-02	2.321665298e-01	-2.629718547e-04	1.441691554e-11
-1.720000000e-02	2.321665262e-01	-2.606154995e-04	1.743735897e-11
-1.730000000e-02	2.321665226e-01	-2.582591446e-04	1.827619331e-11
-1.740000000e-02	2.321665189e-01	-2.559027899e-04	4.760106134e-11
-1.750000000e-02	2.321665151e-01	-2.535464355e-04	4.974921130e-12
-1.760000000e-02	2.321665113e-01	-2.511900814e-04	1.228960381e-11
-1.770000000e-02	2.321665074e-01	-2.488337275e-04	2.263986091e-11
-1.780000000e-02	2.321665034e-01	-2.464773740e-04	1.858463339e-11
-1.790000000e-02	2.321664993e-01	-2.441210207e-04	2.354705315e-11
-1.800000000e-02	2.321664952e-01	-2.417646677e-04	1.062444884e-11
-1.810000000e-02	2.321664910e-01	-2.394083150e-04	7.072612506e-12
-1.820000000e-02	2.321664867e-01	-2.370519626e-04	2.199858765e-11
-1.830000000e-02	2.321664823e-01	-2.346956104e-04	2.339228971e-11
-1.840000000e-02	2.321664779e-01	-2.323392586e-04	7.869661954e-12
-1.850000000e-02	2.321664734e-01	-2.299829071e-04	1.082280826e-11
-1.860000000e-02	2.321664688e-01	-2.276265559e-04	1.878361714e-11
-1.870000000e-02	2.321664642e-01	-2.252702050e-04	6.595086458e-11
-1.880000000e-02	2.321664595e-01	-2.229138544e-04	7.326144125e-12
-1.890000000e-02	2.321664547e-01	-2.205575041e-04	1.399885439e-11
-1.900000000e-02	2.321664499e-01	-2.182011541e-04	1.253054630e-11
-1.910000000e-02	2.321664449e-01	-2.158448045e-04	2.043470618e-11
-1.920000000e-02	2.321664399e-01	-2.134884552e-04	5.492108970e-12
-1.930000000e-02	2.321664349e-01	-2.111321063e-04	6.846124704e-12
-1.940000000e-02	2.321664297e-01	-2.087757576e-04	8.753810717e-12
-1.950000000e-02	2.321664245e-01	-2.064194093e-04	3.512902294e-11
-1.960000000e-02	2.321664193e-01	-2.040630614e-04	1.136319024e-11
-1.970000000e-02	2.321664139e-01	-2.017067138e-04	1.940153879e-11
-1.980000000e-02	2.321664085e-01	-1.993503666e-04	8.583690586e-12
-1.990000000e-02	2.321664030e-01	-1.969940197e-04	2.072452397e-11
-2.000000000e-02	2.321663974e-01	-1.946376731e-04	8.572408561e-12
-2.010000000e-02	2.321663918e-01	-1.922813270e-04	1.358744293e-11
-2.020000000e-02	2.321663861e-01	-1.899249811e-04	1.085683905e-11
-2.030000000e-02	2.321663803e-01	-1.875686357e-04	1.561527150e-11
-2.040000000e-02	2.321663744e-01	-1.852122906e-04	1.363048063e-11
-2.050000000e-02	2.321663685e-01	-1.828559459e-04	4.983209583e-12
-2.060000000e-02	2.321663625e-01	-1.804996016e-04	1.693552300e-11
-2.070000000e-02	2.321663564e-01	-1.781432577e-04	9.873134474e-12
-2.080000000e-02	2.321663503e-01	-1.757869142e-04	7.419718596e-12
-2.090000000e-02	2.321663441e-01	-1.734305710e-04	7.094464682e-12
-2.100000000e-02	2.321663378e-01	-1.710742283e-04	2.150595179e-11
-2.110000000e-02	2.321663314e-01	-1.687178859e-04	9.960325752e-12
-2.120000000e-02	2.321663250e-01	-1.663615439e-04	1.658933818e-11
-2.130000000e-02	2.321663185e-01	-1.640052024e-04	2.330364998e-11
-2.140000000e-02	2.321663119e-01	-1.616488612e-04	1.459527782e-11
-2.150000000e-02	2.321663053e-01	-1.592925205e-04	1.284001254e-11
-2.160000000e-02	2.321662985e-01	-1.569361802e-04	3.837976517e-11
-2.170000000e-02	2.321662918e-01	-1.545798403e-04	1.091215194e-11
-2.180000000e-02	2.321662849e-01	-1.522235008e-04	9.105463243e-12
-2.190000000e-02	2.321662780e-01	-1.498671618e-04	8.032401502e-12
-2.200000000e-02	2.321662710e-01	-1.475108232e-04	1.828379163e-11
-2.210000000e-02	2.321662639e-01	-1.451544850e-04	1.116847197e-11
-2.220000000e-02	2.321662567e-01	-1.427981473e-04	2.121230279e-11
-2.230000000e-02	2.321662495e-01	-1.404418100e-04	2.117198865e-11
-2.240000000e-02	2.321662422e-01	-1.380854731e-04	8.254765916e-12
-2.250000000e-02	2.321662349e-01	-1.357291367e-04	4.928984212e-12
-2.260000000e-02	2.321662274e-01	-1.333728007e-04	2.301916009e-11
-2.270000000e-02	2.321662199e-01	-1.310164652e-04	3.348675837e-11
-2.280000000e-02	2.321662124e-01	-1.286601302e-04	2.639010460e-11
-2.290000000e-02	2.321662047e-01	-1.263037956e-04	5.657847163e-12
-2.300000000e-02	2.321661970e-01	-1.239474615e-04	1.317205017e-11
-2.310000000e-02	2.321661892e-01	-1.215911279e-04	2.340342684e-11
-2.320000000e-02	2.321661813e-01	-1.192347947e-04	1.223272665e-11
-2.330000000e-02	2.321661734e-01	-1.168784620e-04	2.261577386e-11
-2.340000000e-02	2.321661654e-01	-1.145221298e-04	1.372657970e-11
-2.350000000e-02	2.321661573e-01	-1.121657981e-04	1.194052043e-11
-2.360000000e-02	2.321661492e-01	-1.098094669e-04	8.585377008e-12
-2.370000000e-02	2.321661409e-01	-1.074531361e-04	5.531589617e-11
-2.380000000e-02	2.321661326e-01	-1.050968059e-04	2.268975811e-11
-2.390000000e-02	2.321661243e-01	-1.027404762e-04	1.924986788e-11
-2.400000000e-02	2.321661158e-01	-1.003841469e-04	8.901783614e-12
-2.410000000e-02	2.321661073e-01	-9.802781819e-05	1.191345394e-11
-2.420000000e-02	2.321660987e-01	-9.567148997e-05	6.573668737e-12
-2.430000000e-02	2.321660901e-01	-9.331516226e-05	1.402984341e-11
-2.440000000e-02	2.321660814e-01	-9.095883507e-05	7.085649368e-12
-2.450000000e-02	2.321660726e-01	-8.860250840e-05	6.526993563e-12
-2.460000000e-02	2.321660637e-01	-8.624618226e-05	1.681258143e-11
-2.470000000e-02	2.321660548e-01	-8.388985665e-05	2.624073849e-11
-2.480000000e-02	2.321660458e-01	-8.153353156e-05	4.734862999e-12
-2.490000000e-02	2.321660367e-01	-7.917720702e-05	8.294064679e-12
-2.500000000e-02	2.321660275e-01	-7.682088301e-05	5.702451051e-12
-2.510000000e-02	2.321660183e-01	-7.446455955e-05	1.274524007e-11
-2.520000000e-02	2.321660090e-01	-7.210823663e-05	3.039215686e-12
-2.530000000e-02	2.321659996e-01	-6.975191427e-05	1.734271595e-11
-2.540000000e-02	2.321659902e-01	-6.739559246e-05	9.613339345e-12
-2.550000000e-02	2.321659807e-01	-6.503927121e-05	8.746169592e-12
-2.560000000e-02	2.321659711e-01	-6.268295051e-05	1.676809433e-11
-2.570000000e-02	2.321659614e-01	-6.032663039e-05	1.124955993e-11
-2.580000000e-02	2.321659517e-01	-5.797031083e-05	8.880397296e-12
-2.590000000e-02	2.321659419e-01	-5.561399185e-05	4.380485236e-12
-2.600000000e-02	2.321659320e-01	-5.325767344e-05	8.012864435e-12
-2.610000000e-02	2.321659221e-01	-5.090135561e-05	5.700769793e-12
-2.620000000e-02	2.321659121e-01	-4.854503836e-05	2.202173405e-11
-2.630000000e-02	2.321659020e-01	-4.618872170e-05	1.725011007e-11
-2.640000000e-02	2.321658918e-01	-4.383240563e-05	2.222683890e-11
-2.650000000e-02	2.321658816e-01	-4.147609016e-05	2.541525175e-12
-2.660000000e-02	2.321658713e-01	-3.911977528e-05	1.474935382e-11
-2.670000000e-02	2.321658609e-01	-3.676346101e-05	2.449763516e-11
-2.680000000e-02	2.321658505e-01	-3.440714733e-05	1.554131193e-11
-2.690000000e-02	2.321658400e-01	-3.205083427e-05	2.703066338e-11
-2.700000000e-02	2.321658294e-01	-2.969452182e-05	2.352742643e-11
-2.710000000e-02	2.321658187e-01	-2.733820999e-05	2.082995532e-11
-2.720000000e-02	2.321658080e-01	-2.498189878e-05	1.948605498e-11
-2.730000000e-02	2.321657972e-01	-2.262558819e-05	7.765475793e-12
-2.740000000e-02	2.321657863e-01	-2.026927822e-05	2.398850868e-11
-2.750000000e-02	2.321657753e-01	-1.791296889e-05	1.197712662e-11
-2.760000000e-02	2.321657643e-01	-1.555666019e-05	2.133532997e-11
-2.770000000e-02	2.321657532e-01	-1.320035213e-05	1.462954611e-11
-2.780000000e-02	2.321657421e-01	-1.084404471e-05	1.348300090e-11
-2.790000000e-02	2.321657308e-01	-8.487737936e-06	1.549280429e-11
-2.800000000e-02	2.321657195e-01	-6.131431810e-06	5.710878331e-12
-2.810000000e-02	2.321657082e-01	-3.775126337e-06	1.825846946e-11
-2.820000000e-02	2.321656967e-01	-1.418821519e-06	1.328810963e-11
-2.830000000e-02	2.321656852e-01	9.374826387e-07	8.660121723e-12
-2.840000000e-02	2.321656736e-01	3.293786133e-06	2.805307666e-11
-2.850000000e-02	2.321656619e-01	5.650088961e-06	2.154648210e-11
-2.860000000e-02	2.321656502e-01	8.006391118e-06	1.765953598e-11
-2.870000000e-02	2.321656384e-01	1.036269260e-05	5.400793674e-12
-2.880000000e-02	2.321656265e-01	1.271899341e-05	4.563292368e-11
-2.890000000e-02	2.321656146e-01	1.507529353e-05	4.413037734e-12
-2.900000000e-02	2.321656025e-01	1.743159297e-05	1.204311089e-11
-2.910000000e-02	2.321655904e-01	1.978789172e-05	8.714735513e-12
-2.920000000e-02	2.321655783e-01	2.214418978e-05	2.758117270e-11
-2.930000000e-02	2.321655660e-01	2.450048714e-05	8.832811698e-12
-2.940000000e-02	2.321655537e-01	2.685678380e-05	2.594721449e-11
-2.950000000e-02	2.321655413e-01	2.921307976e-05	5.339510201e-12
-2.960000000e-02	2.321655289e-01	3.156937501e-05	1.335688107e-11
-2.970000000e-02	2.321655164e-01	3.392566955e-05	1.700333163e-11
-2.980000000e-02	2.321655038e-01	3.628196338e-05	1.455824448e-11
-2.990000000e-02	2.321654911e-01	3.863825649e-05	1.669207798e-11
-3.000000000e-02	2.321654784e-01	4.099454888e-05	2.416843821e-11
