# Im(epsi1)     Re(omega/c)      Im(omega/c)      Eq(det).Opt det CON kz, R=0.5 \mum, mu_c=0.3, Re(epsi1)=3.90solve_det_conkz_vs_kz.py
0.000000000e+00	2.321362716e-01	-6.657988586e-04	8.405132132e-12
-1.000000000e-04	2.321362803e-01	-6.634427273e-04	1.162491385e-11
-2.000000000e-04	2.321362889e-01	-6.610865957e-04	8.417002529e-12
-3.000000000e-04	2.321362975e-01	-6.587304637e-04	1.085932641e-11
-4.000000000e-04	2.321363059e-01	-6.563743313e-04	1.600744417e-11
-5.000000000e-04	2.321363143e-01	-6.540181986e-04	8.469074237e-12
-6.000000000e-04	2.321363227e-01	-6.516620656e-04	7.670081076e-12
-7.000000000e-04	2.321363310e-01	-6.493059322e-04	1.951824806e-11
-8.000000000e-04	2.321363392e-01	-6.469497985e-04	7.989361656e-12
-9.000000000e-04	2.321363473e-01	-6.445936644e-04	4.403850062e-12
-1.000000000e-03	2.321363553e-01	-6.422375300e-04	1.259450244e-11
-1.100000000e-03	2.321363633e-01	-6.398813953e-04	1.363525192e-11
-1.200000000e-03	2.321363712e-01	-6.375252602e-04	9.236040228e-12
-1.300000000e-03	2.321363791e-01	-6.351691249e-04	1.249479261e-11
-1.400000000e-03	2.321363868e-01	-6.328129892e-04	2.336085973e-11
-1.500000000e-03	2.321363945e-01	-6.304568532e-04	1.162173158e-11
-1.600000000e-03	2.321364022e-01	-6.281007169e-04	9.093063444e-12
-1.700000000e-03	2.321364097e-01	-6.257445802e-04	7.324504806e-12
-1.800000000e-03	2.321364172e-01	-6.233884433e-04	1.343309190e-11
-1.900000000e-03	2.321364246e-01	-6.210323061e-04	1.594860630e-11
-2.000000000e-03	2.321364319e-01	-6.186761685e-04	2.751571828e-11
-2.100000000e-03	2.321364392e-01	-6.163200307e-04	4.750196876e-11
-2.200000000e-03	2.321364464e-01	-6.139638926e-04	1.545685417e-11
-2.300000000e-03	2.321364535e-01	-6.116077542e-04	2.776830628e-11
-2.400000000e-03	2.321364606e-01	-6.092516155e-04	8.100920657e-12
-2.500000000e-03	2.321364675e-01	-6.068954766e-04	1.056086434e-11
-2.600000000e-03	2.321364744e-01	-6.045393374e-04	9.988534259e-12
-2.700000000e-03	2.321364813e-01	-6.021831979e-04	8.767928751e-12
-2.800000000e-03	2.321364880e-01	-5.998270581e-04	4.982834357e-11
-2.900000000e-03	2.321364947e-01	-5.974709181e-04	1.081399238e-11
-3.000000000e-03	2.321365014e-01	-5.951147778e-04	2.666090242e-11
-3.100000000e-03	2.321365079e-01	-5.927586372e-04	1.113598564e-11
-3.200000000e-03	2.321365144e-01	-5.904024964e-04	1.759756121e-11
-3.300000000e-03	2.321365208e-01	-5.880463554e-04	5.163626320e-11
-3.400000000e-03	2.321365271e-01	-5.856902141e-04	9.577175997e-12
-3.500000000e-03	2.321365334e-01	-5.833340726e-04	1.647552799e-11
-3.600000000e-03	2.321365396e-01	-5.809779308e-04	1.354372206e-11
-3.700000000e-03	2.321365457e-01	-5.786217888e-04	9.687218055e-12
-3.800000000e-03	2.321365517e-01	-5.762656465e-04	2.383119809e-11
-3.900000000e-03	2.321365577e-01	-5.739095041e-04	8.865869437e-12
-4.000000000e-03	2.321365636e-01	-5.715533614e-04	1.651236433e-11
-4.100000000e-03	2.321365694e-01	-5.691972185e-04	1.299776766e-11
-4.200000000e-03	2.321365752e-01	-5.668410753e-04	1.030068220e-11
-4.300000000e-03	2.321365809e-01	-5.644849320e-04	9.087278177e-12
-4.400000000e-03	2.321365865e-01	-5.621287885e-04	4.969762555e-12
-4.500000000e-03	2.321365920e-01	-5.597726447e-04	1.658474097e-11
-4.600000000e-03	2.321365975e-01	-5.574165007e-04	1.035028586e-11
-4.700000000e-03	2.321366029e-01	-5.550603566e-04	2.971855669e-11
-4.800000000e-03	2.321366082e-01	-5.527042122e-04	1.218971763e-11
-4.900000000e-03	2.321366135e-01	-5.503480677e-04	5.081360339e-11
-5.000000000e-03	2.321366187e-01	-5.479919230e-04	1.241546353e-11
-5.100000000e-03	2.321366238e-01	-5.456357781e-04	1.159104056e-11
-5.200000000e-03	2.321366288e-01	-5.432796330e-04	7.925113877e-12
-5.300000000e-03	2.321366338e-01	-5.409234877e-04	2.074632114e-11
-5.400000000e-03	2.321366387e-01	-5.385673423e-04	1.132178109e-11
-5.500000000e-03	2.321366435e-01	-5.362111966e-04	7.897560909e-12
-5.600000000e-03	2.321366483e-01	-5.338550509e-04	2.012251457e-11
-5.700000000e-03	2.321366530e-01	-5.314989049e-04	1.012074472e-11
-5.800000000e-03	2.321366576e-01	-5.291427588e-04	2.559415037e-11
-5.900000000e-03	2.321366621e-01	-5.267866126e-04	1.321170857e-11
-6.000000000e-03	2.321366666e-01	-5.244304662e-04	1.785116376e-11
-6.100000000e-03	2.321366710e-01	-5.220743196e-04	3.575108429e-11
-6.200000000e-03	2.321366753e-01	-5.197181729e-04	7.094294944e-12
-6.300000000e-03	2.321366796e-01	-5.173620261e-04	1.160011188e-11
-6.400000000e-03	2.321366838e-01	-5.150058791e-04	9.040101887e-12
-6.500000000e-03	2.321366879e-01	-5.126497320e-04	1.713649351e-11
-6.600000000e-03	2.321366919e-01	-5.102935848e-04	6.026810334e-12
-6.700000000e-03	2.321366959e-01	-5.079374375e-04	1.561160291e-11
-6.800000000e-03	2.321366998e-01	-5.055812900e-04	1.229240924e-11
-6.900000000e-03	2.321367036e-01	-5.032251424e-04	1.544000140e-11
-7.000000000e-03	2.321367073e-01	-5.008689947e-04	3.245577656e-11
-7.100000000e-03	2.321367110e-01	-4.985128468e-04	1.164211850e-11
-7.200000000e-03	2.321367146e-01	-4.961566989e-04	1.551323586e-11
-7.300000000e-03	2.321367182e-01	-4.938005509e-04	1.058224103e-11
-7.400000000e-03	2.321367216e-01	-4.914444027e-04	9.176328169e-12
-7.500000000e-03	2.321367250e-01	-4.890882545e-04	7.389964995e-11
-7.600000000e-03	2.321367283e-01	-4.867321062e-04	2.457753626e-11
-7.700000000e-03	2.321367316e-01	-4.843759578e-04	1.314487290e-11
-7.800000000e-03	2.321367348e-01	-4.820198093e-04	1.167130773e-11
-7.900000000e-03	2.321367379e-01	-4.796636607e-04	1.257991689e-11
-8.000000000e-03	2.321367409e-01	-4.773075121e-04	1.356944793e-10
-8.100000000e-03	2.321367439e-01	-4.749513633e-04	7.577404671e-12
-8.200000000e-03	2.321367468e-01	-4.725952145e-04	3.081652350e-11
-8.300000000e-03	2.321367496e-01	-4.702390656e-04	3.348517698e-11
-8.400000000e-03	2.321367523e-01	-4.678829167e-04	1.310784042e-11
-8.500000000e-03	2.321367550e-01	-4.655267677e-04	1.701258208e-11
-8.600000000e-03	2.321367576e-01	-4.631706187e-04	2.756034344e-11
-8.700000000e-03	2.321367601e-01	-4.608144695e-04	7.558890583e-12
-8.800000000e-03	2.321367626e-01	-4.584583204e-04	2.589237892e-11
-8.900000000e-03	2.321367650e-01	-4.561021712e-04	2.161484473e-11
-9.000000000e-03	2.321367673e-01	-4.537460220e-04	2.873923315e-11
-9.100000000e-03	2.321367696e-01	-4.513898727e-04	2.059156217e-11
-9.200000000e-03	2.321367717e-01	-4.490337234e-04	7.521498265e-12
-9.300000000e-03	2.321367738e-01	-4.466775740e-04	8.746637712e-12
-9.400000000e-03	2.321367759e-01	-4.443214246e-04	1.270789506e-10
-9.500000000e-03	2.321367778e-01	-4.419652752e-04	1.422912427e-11
-9.600000000e-03	2.321367797e-01	-4.396091258e-04	1.023113498e-11
-9.700000000e-03	2.321367815e-01	-4.372529764e-04	1.629123050e-11
-9.800000000e-03	2.321367833e-01	-4.348968269e-04	2.106612122e-11
-9.900000000e-03	2.321367849e-01	-4.325406775e-04	1.402551991e-11
-1.000000000e-02	2.321367865e-01	-4.301845280e-04	9.797826050e-12
-1.010000000e-02	2.321367881e-01	-4.278283786e-04	1.040508996e-11
-1.020000000e-02	2.321367895e-01	-4.254722291e-04	1.256039089e-10
-1.030000000e-02	2.321367909e-01	-4.231160797e-04	2.074256852e-11
-1.040000000e-02	2.321367922e-01	-4.207599302e-04	1.140683946e-11
-1.050000000e-02	2.321367935e-01	-4.184037808e-04	2.261501010e-11
-1.060000000e-02	2.321367946e-01	-4.160476314e-04	2.656115666e-10
-1.070000000e-02	2.321367957e-01	-4.136914820e-04	1.329410377e-11
-1.080000000e-02	2.321367968e-01	-4.113353326e-04	1.064536096e-11
-1.090000000e-02	2.321367977e-01	-4.089791832e-04	2.113023020e-11
-1.100000000e-02	2.321367986e-01	-4.066230339e-04	6.024486967e-12
-1.110000000e-02	2.321367994e-01	-4.042668846e-04	1.350630835e-11
-1.120000000e-02	2.321368002e-01	-4.019107354e-04	2.099077276e-10
-1.130000000e-02	2.321368008e-01	-3.995545862e-04	7.321261402e-11
-1.140000000e-02	2.321368014e-01	-3.971984370e-04	2.401788696e-11
-1.150000000e-02	2.321368019e-01	-3.948422879e-04	1.839200519e-11
-1.160000000e-02	2.321368024e-01	-3.924861389e-04	6.449096334e-11
-1.170000000e-02	2.321368028e-01	-3.901299899e-04	9.557603631e-12
-1.180000000e-02	2.321368031e-01	-3.877738409e-04	1.170098710e-11
-1.190000000e-02	2.321368033e-01	-3.854176921e-04	7.686171851e-12
-1.200000000e-02	2.321368035e-01	-3.830615432e-04	1.379119675e-11
-1.210000000e-02	2.321368036e-01	-3.807053945e-04	6.316954902e-12
-1.220000000e-02	2.321368036e-01	-3.783492458e-04	1.104229664e-11
-1.230000000e-02	2.321368036e-01	-3.759930973e-04	1.529030169e-11
-1.240000000e-02	2.321368034e-01	-3.736369488e-04	8.844440805e-12
-1.250000000e-02	2.321368032e-01	-3.712808003e-04	1.873233005e-11
-1.260000000e-02	2.321368030e-01	-3.689246520e-04	1.879106208e-11
-1.270000000e-02	2.321368026e-01	-3.665685038e-04	8.361021131e-12
-1.280000000e-02	2.321368022e-01	-3.642123556e-04	2.849415187e-11
-1.290000000e-02	2.321368018e-01	-3.618562076e-04	2.224155727e-11
-1.300000000e-02	2.321368012e-01	-3.595000596e-04	3.965532877e-11
-1.310000000e-02	2.321368006e-01	-3.571439118e-04	9.019639528e-12
-1.320000000e-02	2.321367999e-01	-3.547877641e-04	7.176263522e-10
-1.330000000e-02	2.321367991e-01	-3.524316165e-04	3.236570246e-11
-1.340000000e-02	2.321367983e-01	-3.500754690e-04	1.638904655e-11
-1.350000000e-02	2.321367974e-01	-3.477193216e-04	2.468312516e-11
-1.360000000e-02	2.321367964e-01	-3.453631744e-04	3.949213018e-11
-1.370000000e-02	2.321367953e-01	-3.430070273e-04	1.936759798e-11
-1.380000000e-02	2.321367942e-01	-3.406508803e-04	2.063142085e-11
-1.390000000e-02	2.321367930e-01	-3.382947335e-04	1.305900188e-11
-1.400000000e-02	2.321367918e-01	-3.359385868e-04	6.877099234e-12
-1.410000000e-02	2.321367904e-01	-3.335824402e-04	8.207401763e-12
-1.420000000e-02	2.321367890e-01	-3.312262938e-04	2.187012927e-11
-1.430000000e-02	2.321367875e-01	-3.288701475e-04	1.305008025e-11
-1.440000000e-02	2.321367860e-01	-3.265140014e-04	1.568510458e-11
-1.450000000e-02	2.321367843e-01	-3.241578555e-04	5.450481286e-11
-1.460000000e-02	2.321367826e-01	-3.218017097e-04	7.137123468e-12
-1.470000000e-02	2.321367809e-01	-3.194455641e-04	1.929792397e-11
-1.480000000e-02	2.321367790e-01	-3.170894186e-04	3.697539044e-12
-1.490000000e-02	2.321367771e-01	-3.147332733e-04	1.501252698e-11
-1.500000000e-02	2.321367751e-01	-3.123771282e-04	1.889468363e-11
-1.510000000e-02	2.321367731e-01	-3.100209833e-04	1.049875078e-11
-1.520000000e-02	2.321367709e-01	-3.076648386e-04	5.069009367e-11
-1.530000000e-02	2.321367687e-01	-3.053086940e-04	2.420309705e-11
-1.540000000e-02	2.321367665e-01	-3.029525496e-04	1.336766808e-11
-1.550000000e-02	2.321367641e-01	-3.005964055e-04	1.260673660e-11
-1.560000000e-02	2.321367617e-01	-2.982402615e-04	2.446035470e-11
-1.570000000e-02	2.321367592e-01	-2.958841177e-04	1.728381288e-11
-1.580000000e-02	2.321367567e-01	-2.935279742e-04	2.473352532e-11
-1.590000000e-02	2.321367540e-01	-2.911718308e-04	1.021024209e-11
-1.600000000e-02	2.321367513e-01	-2.888156877e-04	7.254163783e-12
-1.610000000e-02	2.321367486e-01	-2.864595447e-04	9.182861828e-12
-1.620000000e-02	2.321367457e-01	-2.841034020e-04	2.451548961e-11
-1.630000000e-02	2.321367428e-01	-2.817472595e-04	8.301251681e-12
-1.640000000e-02	2.321367398e-01	-2.793911173e-04	1.541294207e-11
-1.650000000e-02	2.321367367e-01	-2.770349753e-04	1.943625010e-11
-1.660000000e-02	2.321367336e-01	-2.746788335e-04	1.172395334e-11
-1.670000000e-02	2.321367304e-01	-2.723226919e-04	8.661898078e-12
-1.680000000e-02	2.321367271e-01	-2.699665506e-04	1.153637716e-10
-1.690000000e-02	2.321367238e-01	-2.676104095e-04	5.043167491e-12
-1.700000000e-02	2.321367204e-01	-2.652542687e-04	5.460959214e-11
-1.710000000e-02	2.321367169e-01	-2.628981282e-04	9.809991391e-12
-1.720000000e-02	2.321367133e-01	-2.605419878e-04	1.204649443e-11
-1.730000000e-02	2.321367097e-01	-2.581858478e-04	7.640562022e-12
-1.740000000e-02	2.321367060e-01	-2.558297080e-04	3.710586469e-11
-1.750000000e-02	2.321367022e-01	-2.534735685e-04	1.000442418e-11
-1.760000000e-02	2.321366983e-01	-2.511174292e-04	2.045828459e-11
-1.770000000e-02	2.321366944e-01	-2.487612903e-04	2.504436187e-11
-1.780000000e-02	2.321366904e-01	-2.464051516e-04	1.818982019e-11
-1.790000000e-02	2.321366864e-01	-2.440490132e-04	7.467563368e-11
-1.800000000e-02	2.321366822e-01	-2.416928750e-04	1.560219496e-11
-1.810000000e-02	2.321366780e-01	-2.393367372e-04	1.000528297e-11
-1.820000000e-02	2.321366737e-01	-2.369805996e-04	8.033771304e-12
-1.830000000e-02	2.321366694e-01	-2.346244624e-04	1.029801028e-11
-1.840000000e-02	2.321366650e-01	-2.322683254e-04	1.755553575e-11
-1.850000000e-02	2.321366605e-01	-2.299121888e-04	1.618787232e-11
-1.860000000e-02	2.321366559e-01	-2.275560525e-04	9.811021916e-12
-1.870000000e-02	2.321366513e-01	-2.251999164e-04	1.969733846e-11
-1.880000000e-02	2.321366466e-01	-2.228437807e-04	2.135840529e-11
-1.890000000e-02	2.321366418e-01	-2.204876453e-04	6.934153909e-12
-1.900000000e-02	2.321366369e-01	-2.181315102e-04	6.764735338e-11
-1.910000000e-02	2.321366320e-01	-2.157753755e-04	1.022309943e-11
-1.920000000e-02	2.321366270e-01	-2.134192411e-04	9.619715945e-12
-1.930000000e-02	2.321366219e-01	-2.110631070e-04	6.309644689e-12
-1.940000000e-02	2.321366168e-01	-2.087069732e-04	4.673658139e-11
-1.950000000e-02	2.321366116e-01	-2.063508398e-04	1.297711577e-11
-1.960000000e-02	2.321366063e-01	-2.039947067e-04	1.682561159e-11
-1.970000000e-02	2.321366009e-01	-2.016385740e-04	4.351881511e-11
-1.980000000e-02	2.321365955e-01	-1.992824416e-04	2.709242838e-11
-1.990000000e-02	2.321365900e-01	-1.969263096e-04	1.517184647e-11
-2.000000000e-02	2.321365844e-01	-1.945701780e-04	6.939250368e-12
-2.010000000e-02	2.321365788e-01	-1.922140467e-04	4.611011630e-11
-2.020000000e-02	2.321365731e-01	-1.898579157e-04	2.783703909e-11
-2.030000000e-02	2.321365673e-01	-1.875017852e-04	1.459629459e-11
-2.040000000e-02	2.321365614e-01	-1.851456550e-04	1.093169779e-11
-2.050000000e-02	2.321365555e-01	-1.827895251e-04	1.077843747e-11
-2.060000000e-02	2.321365495e-01	-1.804333957e-04	1.430412585e-11
-2.070000000e-02	2.321365434e-01	-1.780772667e-04	1.472980014e-11
-2.080000000e-02	2.321365373e-01	-1.757211380e-04	1.012713528e-11
-2.090000000e-02	2.321365311e-01	-1.733650097e-04	1.322702064e-11
-2.100000000e-02	2.321365248e-01	-1.710088818e-04	7.616856830e-12
-2.110000000e-02	2.321365184e-01	-1.686527544e-04	4.764479996e-12
-2.120000000e-02	2.321365120e-01	-1.662966273e-04	2.841430910e-11
-2.130000000e-02	2.321365055e-01	-1.639405006e-04	1.672722754e-11
-2.140000000e-02	2.321364989e-01	-1.615843743e-04	1.967720889e-11
-2.150000000e-02	2.321364923e-01	-1.592282485e-04	1.536047775e-11
-2.160000000e-02	2.321364856e-01	-1.568721230e-04	1.012578988e-11
-2.170000000e-02	2.321364788e-01	-1.545159980e-04	5.625056985e-12
-2.180000000e-02	2.321364719e-01	-1.521598734e-04	1.326656919e-11
-2.190000000e-02	2.321364650e-01	-1.498037492e-04	2.496091517e-11
-2.200000000e-02	2.321364580e-01	-1.474476255e-04	1.176281888e-11
-2.210000000e-02	2.321364509e-01	-1.450915022e-04	1.469266964e-11
-2.220000000e-02	2.321364438e-01	-1.427353793e-04	5.722146440e-11
-2.230000000e-02	2.321364365e-01	-1.403792569e-04	2.950699222e-11
-2.240000000e-02	2.321364292e-01	-1.380231349e-04	6.940382079e-12
-2.250000000e-02	2.321364219e-01	-1.356670134e-04	1.359865977e-11
-2.260000000e-02	2.321364144e-01	-1.333108923e-04	5.016646738e-12
-2.270000000e-02	2.321364069e-01	-1.309547717e-04	6.768439883e-12
-2.280000000e-02	2.321363994e-01	-1.285986515e-04	1.168002592e-11
-2.290000000e-02	2.321363917e-01	-1.262425318e-04	2.096505167e-11
-2.300000000e-02	2.321363840e-01	-1.238864126e-04	6.704622187e-12
-2.310000000e-02	2.321363762e-01	-1.215302939e-04	1.805302837e-11
-2.320000000e-02	2.321363683e-01	-1.191741756e-04	1.607582481e-11
-2.330000000e-02	2.321363604e-01	-1.168180578e-04	1.664303654e-11
-2.340000000e-02	2.321363524e-01	-1.144619404e-04	4.920251042e-11
-2.350000000e-02	2.321363443e-01	-1.121058236e-04	9.476216522e-12
-2.360000000e-02	2.321363362e-01	-1.097497072e-04	1.497528415e-11
-2.370000000e-02	2.321363279e-01	-1.073935914e-04	6.820064027e-12
-2.380000000e-02	2.321363196e-01	-1.050374760e-04	5.128904443e-11
-2.390000000e-02	2.321363113e-01	-1.026813611e-04	1.078431119e-11
-2.400000000e-02	2.321363028e-01	-1.003252468e-04	8.790658714e-12
-2.410000000e-02	2.321362943e-01	-9.796913293e-05	7.183014146e-12
-2.420000000e-02	2.321362857e-01	-9.561301959e-05	1.488769847e-11
-2.430000000e-02	2.321362771e-01	-9.325690676e-05	1.917129441e-11
-2.440000000e-02	2.321362684e-01	-9.090079445e-05	2.727851855e-11
-2.450000000e-02	2.321362596e-01	-8.854468266e-05	1.408024947e-11
-2.460000000e-02	2.321362507e-01	-8.618857139e-05	1.346208337e-11
-2.470000000e-02	2.321362418e-01	-8.383246066e-05	1.036261606e-11
-2.480000000e-02	2.321362327e-01	-8.147635045e-05	1.313863378e-11
-2.490000000e-02	2.321362237e-01	-7.912024078e-05	1.827963853e-11
-2.500000000e-02	2.321362145e-01	-7.676413166e-05	7.486786123e-12
-2.510000000e-02	2.321362053e-01	-7.440802307e-05	3.220547356e-11
-2.520000000e-02	2.321361960e-01	-7.205191503e-05	1.343025338e-11
-2.530000000e-02	2.321361866e-01	-6.969580755e-05	2.654710553e-11
-2.540000000e-02	2.321361772e-01	-6.733970061e-05	1.118596457e-11
-2.550000000e-02	2.321361676e-01	-6.498359424e-05	1.786988538e-11
-2.560000000e-02	2.321361581e-01	-6.262748842e-05	1.136228526e-11
-2.570000000e-02	2.321361484e-01	-6.027138318e-05	6.258883591e-12
-2.580000000e-02	2.321361387e-01	-5.791527849e-05	1.922626828e-11
-2.590000000e-02	2.321361289e-01	-5.555917440e-05	6.909361024e-11
-2.600000000e-02	2.321361190e-01	-5.320307086e-05	2.121918002e-11
-2.610000000e-02	2.321361091e-01	-5.084696791e-05	5.046516837e-12
-2.620000000e-02	2.321360990e-01	-4.849086554e-05	6.430014301e-12
-2.630000000e-02	2.321360890e-01	-4.613476376e-05	7.995993459e-12
-2.640000000e-02	2.321360788e-01	-4.377866257e-05	9.254152725e-12
-2.650000000e-02	2.321360686e-01	-4.142256197e-05	2.953042736e-11
-2.660000000e-02	2.321360583e-01	-3.906646197e-05	7.851438811e-12
-2.670000000e-02	2.321360479e-01	-3.671036258e-05	2.417739162e-11
-2.680000000e-02	2.321360374e-01	-3.435426379e-05	1.266267243e-11
-2.690000000e-02	2.321360269e-01	-3.199816560e-05	1.521028246e-11
-2.700000000e-02	2.321360163e-01	-2.964206803e-05	1.598244803e-11
-2.710000000e-02	2.321360057e-01	-2.728597108e-05	2.215890918e-11
-2.720000000e-02	2.321359949e-01	-2.492987474e-05	2.046320086e-11
-2.730000000e-02	2.321359841e-01	-2.257377903e-05	1.400568006e-11
-2.740000000e-02	2.321359733e-01	-2.021768395e-05	1.237391489e-11
-2.750000000e-02	2.321359623e-01	-1.786158949e-05	1.762647512e-11
-2.760000000e-02	2.321359513e-01	-1.550549567e-05	9.614921207e-12
-2.770000000e-02	2.321359402e-01	-1.314940249e-05	2.160045803e-11
-2.780000000e-02	2.321359290e-01	-1.079330995e-05	8.395561419e-12
-2.790000000e-02	2.321359178e-01	-8.437218058e-06	9.182775366e-12
-2.800000000e-02	2.321359065e-01	-6.081126813e-06	1.483016168e-11
-2.810000000e-02	2.321358951e-01	-3.725036217e-06	2.809950654e-11
-2.820000000e-02	2.321358837e-01	-1.368946281e-06	1.080245437e-11
-2.830000000e-02	2.321358721e-01	9.871429972e-07	2.699451829e-11
-2.840000000e-02	2.321358605e-01	3.343231613e-06	1.929228732e-11
-2.850000000e-02	2.321358489e-01	5.699319561e-06	1.347822797e-11
-2.860000000e-02	2.321358371e-01	8.055406839e-06	5.792166628e-12
-2.870000000e-02	2.321358253e-01	1.041149344e-05	6.290726658e-12
-2.880000000e-02	2.321358135e-01	1.276757937e-05	5.826092314e-11
-2.890000000e-02	2.321358015e-01	1.512366461e-05	2.026464366e-11
-2.900000000e-02	2.321357895e-01	1.747974917e-05	7.649348047e-12
-2.910000000e-02	2.321357774e-01	1.983583304e-05	1.659382204e-11
-2.920000000e-02	2.321357652e-01	2.219191622e-05	2.136624854e-11
-2.930000000e-02	2.321357530e-01	2.454799870e-05	1.630035630e-11
-2.940000000e-02	2.321357407e-01	2.690408048e-05	1.243057724e-11
-2.950000000e-02	2.321357283e-01	2.926016156e-05	2.207515178e-11
-2.960000000e-02	2.321357158e-01	3.161624193e-05	1.446157003e-11
-2.970000000e-02	2.321357033e-01	3.397232159e-05	1.057888982e-11
-2.980000000e-02	2.321356907e-01	3.632840054e-05	1.748090485e-11
-2.990000000e-02	2.321356780e-01	3.868447877e-05	1.721405590e-11
-3.000000000e-02	2.321356653e-01	4.104055627e-05	3.665939756e-11
