# Im(epsi1)     Re(omega/c)      Im(omega/c)      Eq(det).Opt det CON kz, R=0.5 \mum, mu_c=0.3, Re(epsi1)=3.90solve_det_conkz_vs_kz.py
0.000000000e+00	2.321638053e-01	-6.659008839e-04	7.142790774e-12
-1.000000000e-04	2.321638140e-01	-6.635445542e-04	2.856931162e-11
-2.000000000e-04	2.321638227e-01	-6.611882241e-04	3.038514886e-11
-3.000000000e-04	2.321638312e-01	-6.588318937e-04	1.909349292e-11
-4.000000000e-04	2.321638397e-01	-6.564755629e-04	1.109256855e-11
-5.000000000e-04	2.321638481e-01	-6.541192318e-04	3.215867410e-11
-6.000000000e-04	2.321638565e-01	-6.517629003e-04	4.149796606e-11
-7.000000000e-04	2.321638647e-01	-6.494065685e-04	8.900728434e-12
-8.000000000e-04	2.321638729e-01	-6.470502363e-04	9.142373195e-12
-9.000000000e-04	2.321638811e-01	-6.446939038e-04	2.550711028e-11
-1.000000000e-03	2.321638891e-01	-6.423375710e-04	7.199422344e-12
-1.100000000e-03	2.321638971e-01	-6.399812378e-04	1.068235605e-11
-1.200000000e-03	2.321639050e-01	-6.376249044e-04	2.773037761e-11
-1.300000000e-03	2.321639129e-01	-6.352685706e-04	2.404603069e-11
-1.400000000e-03	2.321639206e-01	-6.329122364e-04	1.413466777e-11
-1.500000000e-03	2.321639283e-01	-6.305559020e-04	9.950033963e-12
-1.600000000e-03	2.321639360e-01	-6.281995672e-04	1.501394740e-10
-1.700000000e-03	2.321639435e-01	-6.258432322e-04	1.018834126e-11
-1.800000000e-03	2.321639510e-01	-6.234868968e-04	1.196798927e-11
-1.900000000e-03	2.321639584e-01	-6.211305612e-04	1.439018994e-11
-2.000000000e-03	2.321639657e-01	-6.187742252e-04	1.161583516e-11
-2.100000000e-03	2.321639730e-01	-6.164178889e-04	5.513576914e-10
-2.200000000e-03	2.321639802e-01	-6.140615524e-04	1.727994706e-11
-2.300000000e-03	2.321639873e-01	-6.117052156e-04	1.386418818e-11
-2.400000000e-03	2.321639944e-01	-6.093488785e-04	2.357026429e-11
-2.500000000e-03	2.321640014e-01	-6.069925411e-04	9.769646526e-12
-2.600000000e-03	2.321640083e-01	-6.046362034e-04	1.803797613e-11
-2.700000000e-03	2.321640151e-01	-6.022798655e-04	1.573019369e-11
-2.800000000e-03	2.321640219e-01	-5.999235273e-04	9.629401054e-12
-2.900000000e-03	2.321640286e-01	-5.975671888e-04	6.475909536e-11
-3.000000000e-03	2.321640352e-01	-5.952108501e-04	4.021819808e-12
-3.100000000e-03	2.321640417e-01	-5.928545111e-04	1.316959092e-11
-3.200000000e-03	2.321640482e-01	-5.904981719e-04	1.424211931e-11
-3.300000000e-03	2.321640546e-01	-5.881418324e-04	7.828887540e-12
-3.400000000e-03	2.321640609e-01	-5.857854927e-04	1.522394910e-11
-3.500000000e-03	2.321640672e-01	-5.834291527e-04	1.999821304e-11
-3.600000000e-03	2.321640734e-01	-5.810728125e-04	2.228378537e-11
-3.700000000e-03	2.321640795e-01	-5.787164721e-04	1.881008481e-11
-3.800000000e-03	2.321640856e-01	-5.763601314e-04	1.601007146e-11
-3.900000000e-03	2.321640915e-01	-5.740037905e-04	4.510635479e-11
-4.000000000e-03	2.321640975e-01	-5.716474494e-04	1.033186614e-11
-4.100000000e-03	2.321641033e-01	-5.692911080e-04	1.630701717e-11
-4.200000000e-03	2.321641090e-01	-5.669347665e-04	1.428496072e-11
-4.300000000e-03	2.321641147e-01	-5.645784247e-04	2.363880845e-11
-4.400000000e-03	2.321641204e-01	-5.622220827e-04	1.457107960e-11
-4.500000000e-03	2.321641259e-01	-5.598657405e-04	3.098131827e-11
-4.600000000e-03	2.321641314e-01	-5.575093981e-04	1.960553305e-11
-4.700000000e-03	2.321641368e-01	-5.551530555e-04	2.034889903e-11
-4.800000000e-03	2.321641421e-01	-5.527967127e-04	1.456971328e-11
-4.900000000e-03	2.321641474e-01	-5.504403698e-04	1.126095440e-11
-5.000000000e-03	2.321641526e-01	-5.480840266e-04	2.060988368e-11
-5.100000000e-03	2.321641577e-01	-5.457276833e-04	8.532962027e-12
-5.200000000e-03	2.321641627e-01	-5.433713397e-04	2.227240981e-11
-5.300000000e-03	2.321641677e-01	-5.410149960e-04	2.435595763e-11
-5.400000000e-03	2.321641726e-01	-5.386586522e-04	1.431490794e-11
-5.500000000e-03	2.321641774e-01	-5.363023081e-04	1.425623341e-11
-5.600000000e-03	2.321641822e-01	-5.339459639e-04	1.254287675e-11
-5.700000000e-03	2.321641869e-01	-5.315896195e-04	8.665597309e-12
-5.800000000e-03	2.321641915e-01	-5.292332750e-04	1.021137856e-11
-5.900000000e-03	2.321641960e-01	-5.268769303e-04	1.440103432e-11
-6.000000000e-03	2.321642005e-01	-5.245205855e-04	2.064836227e-11
-6.100000000e-03	2.321642049e-01	-5.221642405e-04	1.210311248e-11
-6.200000000e-03	2.321642092e-01	-5.198078954e-04	1.128876792e-11
-6.300000000e-03	2.321642135e-01	-5.174515501e-04	1.621736658e-11
-6.400000000e-03	2.321642176e-01	-5.150952047e-04	1.913679813e-11
-6.500000000e-03	2.321642218e-01	-5.127388591e-04	1.090107702e-11
-6.600000000e-03	2.321642258e-01	-5.103825135e-04	1.981842684e-11
-6.700000000e-03	2.321642298e-01	-5.080261677e-04	2.120442758e-11
-6.800000000e-03	2.321642337e-01	-5.056698218e-04	1.622417270e-11
-6.900000000e-03	2.321642375e-01	-5.033134757e-04	2.869367973e-11
-7.000000000e-03	2.321642412e-01	-5.009571296e-04	3.473706522e-11
-7.100000000e-03	2.321642449e-01	-4.986007833e-04	5.845831469e-12
-7.200000000e-03	2.321642485e-01	-4.962444370e-04	1.284280253e-11
-7.300000000e-03	2.321642521e-01	-4.938880905e-04	3.324640945e-12
-7.400000000e-03	2.321642555e-01	-4.915317439e-04	3.953401232e-12
-7.500000000e-03	2.321642589e-01	-4.891753973e-04	7.440026930e-12
-7.600000000e-03	2.321642623e-01	-4.868190505e-04	1.015858721e-11
-7.700000000e-03	2.321642655e-01	-4.844627037e-04	2.207801841e-11
-7.800000000e-03	2.321642687e-01	-4.821063567e-04	1.217834600e-11
-7.900000000e-03	2.321642718e-01	-4.797500097e-04	7.290317856e-12
-8.000000000e-03	2.321642748e-01	-4.773936626e-04	9.758575833e-12
-8.100000000e-03	2.321642778e-01	-4.750373154e-04	4.934176882e-12
-8.200000000e-03	2.321642807e-01	-4.726809682e-04	2.623485096e-11
-8.300000000e-03	2.321642835e-01	-4.703246209e-04	2.142297208e-11
-8.400000000e-03	2.321642863e-01	-4.679682735e-04	2.983217529e-11
-8.500000000e-03	2.321642889e-01	-4.656119261e-04	9.946924787e-12
-8.600000000e-03	2.321642915e-01	-4.632555786e-04	1.887963312e-11
-8.700000000e-03	2.321642941e-01	-4.608992311e-04	1.850170870e-11
-8.800000000e-03	2.321642965e-01	-4.585428835e-04	1.432239851e-11
-8.900000000e-03	2.321642989e-01	-4.561865358e-04	1.045753595e-11
-9.000000000e-03	2.321643012e-01	-4.538301881e-04	1.387439693e-11
-9.100000000e-03	2.321643035e-01	-4.514738404e-04	1.445699124e-11
-9.200000000e-03	2.321643057e-01	-4.491174927e-04	1.762852710e-11
-9.300000000e-03	2.321643078e-01	-4.467611449e-04	1.304712325e-11
-9.400000000e-03	2.321643098e-01	-4.444047971e-04	1.207506250e-11
-9.500000000e-03	2.321643118e-01	-4.420484493e-04	2.020745312e-11
-9.600000000e-03	2.321643136e-01	-4.396921014e-04	1.471303720e-11
-9.700000000e-03	2.321643155e-01	-4.373357535e-04	2.649607182e-11
-9.800000000e-03	2.321643172e-01	-4.349794056e-04	2.113622541e-11
-9.900000000e-03	2.321643189e-01	-4.326230578e-04	3.688547560e-12
-1.000000000e-02	2.321643205e-01	-4.302667099e-04	1.406812392e-11
-1.010000000e-02	2.321643220e-01	-4.279103620e-04	1.189553994e-10
-1.020000000e-02	2.321643235e-01	-4.255540141e-04	6.142133657e-12
-1.030000000e-02	2.321643249e-01	-4.231976662e-04	9.805898533e-12
-1.040000000e-02	2.321643262e-01	-4.208413183e-04	8.260576961e-12
-1.050000000e-02	2.321643274e-01	-4.184849704e-04	8.709325400e-12
-1.060000000e-02	2.321643286e-01	-4.161286225e-04	1.679390409e-11
-1.070000000e-02	2.321643297e-01	-4.137722747e-04	8.080950649e-12
-1.080000000e-02	2.321643307e-01	-4.114159269e-04	3.600044944e-12
-1.090000000e-02	2.321643317e-01	-4.090595791e-04	9.836008193e-12
-1.100000000e-02	2.321643326e-01	-4.067032314e-04	7.994311217e-12
-1.110000000e-02	2.321643334e-01	-4.043468836e-04	2.730411823e-11
-1.120000000e-02	2.321643341e-01	-4.019905360e-04	7.401266015e-12
-1.130000000e-02	2.321643348e-01	-3.996341883e-04	8.023193577e-12
-1.140000000e-02	2.321643354e-01	-3.972778407e-04	7.937267480e-11
-1.150000000e-02	2.321643359e-01	-3.949214932e-04	7.378361769e-12
-1.160000000e-02	2.321643364e-01	-3.925651457e-04	1.563322555e-11
-1.170000000e-02	2.321643367e-01	-3.902087982e-04	1.506740556e-11
-1.180000000e-02	2.321643371e-01	-3.878524509e-04	1.226803072e-11
-1.190000000e-02	2.321643373e-01	-3.854961035e-04	1.391691971e-11
-1.200000000e-02	2.321643375e-01	-3.831397563e-04	3.831299647e-11
-1.210000000e-02	2.321643376e-01	-3.807834091e-04	1.776158263e-11
-1.220000000e-02	2.321643376e-01	-3.784270620e-04	1.666982094e-11
-1.230000000e-02	2.321643375e-01	-3.760707150e-04	1.223585445e-11
-1.240000000e-02	2.321643374e-01	-3.737143680e-04	7.912657259e-12
-1.250000000e-02	2.321643372e-01	-3.713580212e-04	2.235681020e-10
-1.260000000e-02	2.321643370e-01	-3.690016744e-04	1.185124892e-11
-1.270000000e-02	2.321643366e-01	-3.666453277e-04	1.204164378e-11
-1.280000000e-02	2.321643362e-01	-3.642889812e-04	2.478275395e-11
-1.290000000e-02	2.321643357e-01	-3.619326347e-04	1.205485986e-11
-1.300000000e-02	2.321643352e-01	-3.595762883e-04	1.569200793e-11
-1.310000000e-02	2.321643346e-01	-3.572199420e-04	1.324899750e-11
-1.320000000e-02	2.321643339e-01	-3.548635959e-04	1.047264523e-11
-1.330000000e-02	2.321643331e-01	-3.525072498e-04	9.083156381e-12
-1.340000000e-02	2.321643323e-01	-3.501509039e-04	2.966662018e-11
-1.350000000e-02	2.321643314e-01	-3.477945581e-04	1.229044797e-11
-1.360000000e-02	2.321643304e-01	-3.454382124e-04	6.326942146e-12
-1.370000000e-02	2.321643293e-01	-3.430818669e-04	1.352932081e-11
-1.380000000e-02	2.321643282e-01	-3.407255214e-04	3.304209717e-11
-1.390000000e-02	2.321643270e-01	-3.383691761e-04	1.535014857e-10
-1.400000000e-02	2.321643258e-01	-3.360128310e-04	6.684169881e-12
-1.410000000e-02	2.321643244e-01	-3.336564860e-04	9.480256261e-12
-1.420000000e-02	2.321643230e-01	-3.313001412e-04	9.331172047e-12
-1.430000000e-02	2.321643215e-01	-3.289437965e-04	2.814816875e-11
-1.440000000e-02	2.321643200e-01	-3.265874519e-04	3.172789683e-11
-1.450000000e-02	2.321643183e-01	-3.242311075e-04	2.350636459e-11
-1.460000000e-02	2.321643166e-01	-3.218747633e-04	3.068895747e-11
-1.470000000e-02	2.321643149e-01	-3.195184192e-04	2.354928227e-11
-1.480000000e-02	2.321643130e-01	-3.171620753e-04	1.051208212e-11
-1.490000000e-02	2.321643111e-01	-3.148057316e-04	9.501598517e-12
-1.500000000e-02	2.321643091e-01	-3.124493881e-04	3.649410149e-12
-1.510000000e-02	2.321643071e-01	-3.100930447e-04	4.474249214e-11
-1.520000000e-02	2.321643050e-01	-3.077367015e-04	1.835112350e-11
-1.530000000e-02	2.321643028e-01	-3.053803585e-04	8.425606491e-12
-1.540000000e-02	2.321643005e-01	-3.030240157e-04	1.422645681e-11
-1.550000000e-02	2.321642982e-01	-3.006676731e-04	4.664211522e-11
-1.560000000e-02	2.321642957e-01	-2.983113307e-04	3.666893744e-12
-1.570000000e-02	2.321642933e-01	-2.959549885e-04	1.504499567e-11
-1.580000000e-02	2.321642907e-01	-2.935986465e-04	1.400537133e-11
-1.590000000e-02	2.321642881e-01	-2.912423047e-04	2.016504740e-11
-1.600000000e-02	2.321642854e-01	-2.888859631e-04	1.339359505e-11
-1.610000000e-02	2.321642826e-01	-2.865296217e-04	8.190984292e-12
-1.620000000e-02	2.321642797e-01	-2.841732806e-04	6.308054344e-11
-1.630000000e-02	2.321642768e-01	-2.818169396e-04	4.407479457e-11
-1.640000000e-02	2.321642738e-01	-2.794605989e-04	1.631813356e-11
-1.650000000e-02	2.321642708e-01	-2.771042585e-04	8.856458946e-12
-1.660000000e-02	2.321642677e-01	-2.747479182e-04	1.766606694e-11
-1.670000000e-02	2.321642644e-01	-2.723915782e-04	4.472310073e-11
-1.680000000e-02	2.321642612e-01	-2.700352385e-04	1.742128063e-11
-1.690000000e-02	2.321642578e-01	-2.676788990e-04	2.593133143e-11
-1.700000000e-02	2.321642544e-01	-2.653225597e-04	1.098648435e-11
-1.710000000e-02	2.321642509e-01	-2.629662207e-04	6.381242851e-12
-1.720000000e-02	2.321642474e-01	-2.606098820e-04	5.399991338e-12
-1.730000000e-02	2.321642437e-01	-2.582535435e-04	5.113028562e-12
-1.740000000e-02	2.321642400e-01	-2.558972052e-04	5.363630318e-12
-1.750000000e-02	2.321642362e-01	-2.535408673e-04	1.899200051e-11
-1.760000000e-02	2.321642324e-01	-2.511845296e-04	2.779383706e-11
-1.770000000e-02	2.321642285e-01	-2.488281922e-04	1.160749067e-11
-1.780000000e-02	2.321642245e-01	-2.464718550e-04	1.723657542e-11
-1.790000000e-02	2.321642204e-01	-2.441155182e-04	4.545749477e-12
-1.800000000e-02	2.321642163e-01	-2.417591816e-04	7.821929600e-12
-1.810000000e-02	2.321642121e-01	-2.394028453e-04	1.624238179e-11
-1.820000000e-02	2.321642078e-01	-2.370465093e-04	7.715158395e-12
-1.830000000e-02	2.321642035e-01	-2.346901736e-04	1.153465326e-11
-1.840000000e-02	2.321641990e-01	-2.323338382e-04	2.262859078e-11
-1.850000000e-02	2.321641945e-01	-2.299775032e-04	4.287714204e-11
-1.860000000e-02	2.321641900e-01	-2.276211684e-04	1.246364979e-11
-1.870000000e-02	2.321641853e-01	-2.252648339e-04	3.819500958e-11
-1.880000000e-02	2.321641806e-01	-2.229084997e-04	6.200495064e-12
-1.890000000e-02	2.321641758e-01	-2.205521659e-04	2.494439360e-11
-1.900000000e-02	2.321641710e-01	-2.181958324e-04	7.471304741e-11
-1.910000000e-02	2.321641661e-01	-2.158394992e-04	8.170106069e-11
-1.920000000e-02	2.321641611e-01	-2.134831663e-04	5.162147796e-12
-1.930000000e-02	2.321641560e-01	-2.111268338e-04	7.972977191e-12
-1.940000000e-02	2.321641509e-01	-2.087705016e-04	1.190127742e-10
-1.950000000e-02	2.321641457e-01	-2.064141697e-04	1.957951871e-11
-1.960000000e-02	2.321641404e-01	-2.040578382e-04	1.313120014e-11
-1.970000000e-02	2.321641350e-01	-2.017015070e-04	7.144845585e-12
-1.980000000e-02	2.321641296e-01	-1.993451762e-04	2.212551190e-11
-1.990000000e-02	2.321641241e-01	-1.969888458e-04	2.737979680e-11
-2.000000000e-02	2.321641185e-01	-1.946325157e-04	1.134122387e-11
-2.010000000e-02	2.321641129e-01	-1.922761859e-04	1.908068912e-12
-2.020000000e-02	2.321641072e-01	-1.899198565e-04	1.053371177e-11
-2.030000000e-02	2.321641014e-01	-1.875635275e-04	1.048606123e-11
-2.040000000e-02	2.321640955e-01	-1.852071989e-04	1.882542826e-11
-2.050000000e-02	2.321640896e-01	-1.828508706e-04	1.446562197e-11
-2.060000000e-02	2.321640836e-01	-1.804945428e-04	1.164840915e-11
-2.070000000e-02	2.321640775e-01	-1.781382153e-04	1.075955680e-11
-2.080000000e-02	2.321640714e-01	-1.757818882e-04	8.260581697e-12
-2.090000000e-02	2.321640652e-01	-1.734255614e-04	2.307571923e-11
-2.100000000e-02	2.321640589e-01	-1.710692351e-04	6.382914214e-12
-2.110000000e-02	2.321640525e-01	-1.687129092e-04	2.103346383e-11
-2.120000000e-02	2.321640461e-01	-1.663565837e-04	1.051034564e-11
-2.130000000e-02	2.321640396e-01	-1.640002585e-04	1.091216126e-11
-2.140000000e-02	2.321640330e-01	-1.616439338e-04	9.905511558e-12
-2.150000000e-02	2.321640264e-01	-1.592876095e-04	4.531409547e-12
-2.160000000e-02	2.321640197e-01	-1.569312856e-04	5.922554780e-12
-2.170000000e-02	2.321640129e-01	-1.545749622e-04	1.280565325e-11
-2.180000000e-02	2.321640060e-01	-1.522186391e-04	5.957021474e-12
-2.190000000e-02	2.321639991e-01	-1.498623165e-04	3.140580431e-11
-2.200000000e-02	2.321639921e-01	-1.475059943e-04	4.451098729e-11
-2.210000000e-02	2.321639850e-01	-1.451496726e-04	2.128115975e-11
-2.220000000e-02	2.321639779e-01	-1.427933513e-04	1.516268513e-11
-2.230000000e-02	2.321639706e-01	-1.404370304e-04	1.204823374e-11
-2.240000000e-02	2.321639634e-01	-1.380807100e-04	3.165421646e-11
-2.250000000e-02	2.321639560e-01	-1.357243900e-04	1.289686636e-11
-2.260000000e-02	2.321639486e-01	-1.333680705e-04	6.417986539e-12
-2.270000000e-02	2.321639411e-01	-1.310117514e-04	1.240615978e-11
-2.280000000e-02	2.321639335e-01	-1.286554328e-04	6.535536098e-12
-2.290000000e-02	2.321639258e-01	-1.262991147e-04	6.232980329e-12
-2.300000000e-02	2.321639181e-01	-1.239427970e-04	4.154702174e-12
-2.310000000e-02	2.321639103e-01	-1.215864798e-04	1.430478840e-11
-2.320000000e-02	2.321639024e-01	-1.192301630e-04	8.911458584e-12
-2.330000000e-02	2.321638945e-01	-1.168738468e-04	6.810381131e-12
-2.340000000e-02	2.321638865e-01	-1.145175310e-04	9.634838561e-12
-2.350000000e-02	2.321638784e-01	-1.121612157e-04	8.209862574e-12
-2.360000000e-02	2.321638703e-01	-1.098049009e-04	2.033072195e-11
-2.370000000e-02	2.321638621e-01	-1.074485866e-04	1.472600989e-11
-2.380000000e-02	2.321638538e-01	-1.050922728e-04	6.434478974e-12
-2.390000000e-02	2.321638454e-01	-1.027359595e-04	8.807729788e-12
-2.400000000e-02	2.321638370e-01	-1.003796467e-04	2.217114496e-11
-2.410000000e-02	2.321638284e-01	-9.802333439e-05	3.962842459e-12
-2.420000000e-02	2.321638199e-01	-9.566702260e-05	1.394169061e-11
-2.430000000e-02	2.321638112e-01	-9.331071133e-05	4.309163680e-11
-2.440000000e-02	2.321638025e-01	-9.095440057e-05	1.062359980e-11
-2.450000000e-02	2.321637937e-01	-8.859809033e-05	3.249310831e-11
-2.460000000e-02	2.321637848e-01	-8.624178062e-05	3.172665423e-11
-2.470000000e-02	2.321637759e-01	-8.388547144e-05	2.214042302e-11
-2.480000000e-02	2.321637669e-01	-8.152916279e-05	6.150040224e-12
-2.490000000e-02	2.321637578e-01	-7.917285467e-05	2.160442791e-11
-2.500000000e-02	2.321637486e-01	-7.681654710e-05	1.175321962e-11
-2.510000000e-02	2.321637394e-01	-7.446024007e-05	3.269318232e-12
-2.520000000e-02	2.321637301e-01	-7.210393358e-05	7.246805762e-12
-2.530000000e-02	2.321637207e-01	-6.974762765e-05	1.463869898e-11
-2.540000000e-02	2.321637113e-01	-6.739132227e-05	8.661159723e-12
-2.550000000e-02	2.321637018e-01	-6.503501745e-05	9.191165575e-12
-2.560000000e-02	2.321636922e-01	-6.267871319e-05	2.131191185e-11
-2.570000000e-02	2.321636825e-01	-6.032240949e-05	9.539953235e-12
-2.580000000e-02	2.321636728e-01	-5.796610637e-05	6.810357148e-12
-2.590000000e-02	2.321636630e-01	-5.560980381e-05	1.576491243e-11
-2.600000000e-02	2.321636531e-01	-5.325350183e-05	7.354210223e-12
-2.610000000e-02	2.321636432e-01	-5.089720043e-05	8.850760249e-12
-2.620000000e-02	2.321636332e-01	-4.854089962e-05	8.121393379e-12
-2.630000000e-02	2.321636231e-01	-4.618459939e-05	1.240106593e-11
-2.640000000e-02	2.321636129e-01	-4.382829975e-05	3.936351202e-12
-2.650000000e-02	2.321636027e-01	-4.147200071e-05	6.307542108e-11
-2.660000000e-02	2.321635924e-01	-3.911570226e-05	1.391591650e-11
-2.670000000e-02	2.321635820e-01	-3.675940442e-05	2.155290751e-11
-2.680000000e-02	2.321635716e-01	-3.440310718e-05	1.659051862e-11
-2.690000000e-02	2.321635611e-01	-3.204681055e-05	5.472098885e-12
-2.700000000e-02	2.321635505e-01	-2.969051453e-05	9.909077708e-12
-2.710000000e-02	2.321635398e-01	-2.733421913e-05	6.164628973e-11
-2.720000000e-02	2.321635291e-01	-2.497792435e-05	1.420076372e-11
-2.730000000e-02	2.321635183e-01	-2.262163019e-05	5.955977253e-12
-2.740000000e-02	2.321635074e-01	-2.026533666e-05	1.466536506e-11
-2.750000000e-02	2.321634965e-01	-1.790904375e-05	1.274410827e-11
-2.760000000e-02	2.321634854e-01	-1.555275149e-05	1.347771875e-11
-2.770000000e-02	2.321634744e-01	-1.319645986e-05	8.365533835e-12
-2.780000000e-02	2.321634632e-01	-1.084016887e-05	1.219297542e-11
-2.790000000e-02	2.321634520e-01	-8.483878525e-06	8.310650506e-12
-2.800000000e-02	2.321634407e-01	-6.127588830e-06	7.542857920e-12
-2.810000000e-02	2.321634293e-01	-3.771299788e-06	3.989827426e-12
-2.820000000e-02	2.321634178e-01	-1.415011402e-06	1.353966650e-11
-2.830000000e-02	2.321634063e-01	9.412763234e-07	5.364377132e-11
-2.840000000e-02	2.321633947e-01	3.297563388e-06	7.469641498e-12
-2.850000000e-02	2.321633830e-01	5.653849785e-06	9.256121863e-12
-2.860000000e-02	2.321633713e-01	8.010135511e-06	2.380281508e-11
-2.870000000e-02	2.321633595e-01	1.036642056e-05	9.412467215e-12
-2.880000000e-02	2.321633476e-01	1.272270494e-05	1.136966962e-11
-2.890000000e-02	2.321633357e-01	1.507898863e-05	4.088854005e-11
-2.900000000e-02	2.321633236e-01	1.743527164e-05	7.715767307e-12
-2.910000000e-02	2.321633116e-01	1.979155395e-05	1.140553353e-11
-2.920000000e-02	2.321632994e-01	2.214783558e-05	2.323553633e-11
-2.930000000e-02	2.321632871e-01	2.450411651e-05	1.616200252e-11
-2.940000000e-02	2.321632748e-01	2.686039674e-05	1.044553920e-11
-2.950000000e-02	2.321632625e-01	2.921667627e-05	9.086092182e-12
-2.960000000e-02	2.321632500e-01	3.157295509e-05	2.057036116e-11
-2.970000000e-02	2.321632375e-01	3.392923320e-05	1.289930461e-11
-2.980000000e-02	2.321632249e-01	3.628551060e-05	3.235751656e-11
-2.990000000e-02	2.321632122e-01	3.864178728e-05	8.739183850e-12
-3.000000000e-02	2.321631995e-01	4.099806323e-05	8.023586702e-12
