# Im(epsi1)     Re(omega/c)      Im(omega/c)      Eq(det).Opt det CON kz, R=0.5 \mum, mu_c=0.3, Re(epsi1)=3.90solve_det_conkz_vs_kz.py
0.000000000e+00	2.321375758e-01	-6.658036921e-04	1.868992422e-11
-1.000000000e-04	2.321375845e-01	-6.634475515e-04	8.953900803e-12
-2.000000000e-04	2.321375931e-01	-6.610914104e-04	3.075624640e-11
-3.000000000e-04	2.321376017e-01	-6.587352691e-04	1.138189665e-11
-4.000000000e-04	2.321376101e-01	-6.563791273e-04	2.937454373e-11
-5.000000000e-04	2.321376186e-01	-6.540229852e-04	1.032752018e-11
-6.000000000e-04	2.321376269e-01	-6.516668428e-04	2.703854397e-11
-7.000000000e-04	2.321376352e-01	-6.493107000e-04	1.435622854e-11
-8.000000000e-04	2.321376434e-01	-6.469545569e-04	4.390444301e-11
-9.000000000e-04	2.321376515e-01	-6.445984134e-04	1.093578610e-11
-1.000000000e-03	2.321376595e-01	-6.422422696e-04	4.609857460e-12
-1.100000000e-03	2.321376675e-01	-6.398861255e-04	1.019232108e-11
-1.200000000e-03	2.321376754e-01	-6.375299810e-04	1.311997950e-11
-1.300000000e-03	2.321376833e-01	-6.351738363e-04	1.167025756e-11
-1.400000000e-03	2.321376910e-01	-6.328176912e-04	5.617695199e-12
-1.500000000e-03	2.321376987e-01	-6.304615458e-04	9.888887745e-12
-1.600000000e-03	2.321377064e-01	-6.281054001e-04	1.094081070e-11
-1.700000000e-03	2.321377139e-01	-6.257492540e-04	6.231872024e-12
-1.800000000e-03	2.321377214e-01	-6.233931077e-04	1.127283835e-11
-1.900000000e-03	2.321377288e-01	-6.210369611e-04	1.929490684e-11
-2.000000000e-03	2.321377361e-01	-6.186808142e-04	4.360992196e-11
-2.100000000e-03	2.321377434e-01	-6.163246670e-04	2.726653551e-11
-2.200000000e-03	2.321377506e-01	-6.139685195e-04	3.617080527e-11
-2.300000000e-03	2.321377577e-01	-6.116123717e-04	1.143851739e-11
-2.400000000e-03	2.321377648e-01	-6.092562236e-04	3.009210763e-11
-2.500000000e-03	2.321377717e-01	-6.069000753e-04	9.611509508e-12
-2.600000000e-03	2.321377787e-01	-6.045439266e-04	2.679393889e-11
-2.700000000e-03	2.321377855e-01	-6.021877777e-04	2.382107809e-11
-2.800000000e-03	2.321377923e-01	-5.998316286e-04	5.798608728e-11
-2.900000000e-03	2.321377989e-01	-5.974754791e-04	1.186043394e-11
-3.000000000e-03	2.321378056e-01	-5.951193295e-04	9.711988359e-12
-3.100000000e-03	2.321378121e-01	-5.927631795e-04	1.409317611e-11
-3.200000000e-03	2.321378186e-01	-5.904070293e-04	1.673636884e-11
-3.300000000e-03	2.321378250e-01	-5.880508789e-04	1.346548178e-11
-3.400000000e-03	2.321378313e-01	-5.856947282e-04	7.670737947e-12
-3.500000000e-03	2.321378376e-01	-5.833385773e-04	1.359271577e-11
-3.600000000e-03	2.321378438e-01	-5.809824261e-04	9.458139202e-12
-3.700000000e-03	2.321378499e-01	-5.786262747e-04	6.901096670e-12
-3.800000000e-03	2.321378559e-01	-5.762701230e-04	1.967278881e-11
-3.900000000e-03	2.321378619e-01	-5.739139712e-04	7.419062054e-12
-4.000000000e-03	2.321378678e-01	-5.715578191e-04	9.329153153e-12
-4.100000000e-03	2.321378736e-01	-5.692016668e-04	1.258809910e-11
-4.200000000e-03	2.321378794e-01	-5.668455143e-04	4.956428470e-12
-4.300000000e-03	2.321378851e-01	-5.644893615e-04	1.253651516e-11
-4.400000000e-03	2.321378907e-01	-5.621332086e-04	3.246686973e-11
-4.500000000e-03	2.321378963e-01	-5.597770554e-04	1.614172810e-11
-4.600000000e-03	2.321379017e-01	-5.574209021e-04	9.015616031e-12
-4.700000000e-03	2.321379071e-01	-5.550647485e-04	1.216102249e-11
-4.800000000e-03	2.321379125e-01	-5.527085948e-04	3.741746733e-11
-4.900000000e-03	2.321379177e-01	-5.503524408e-04	1.077013366e-11
-5.000000000e-03	2.321379229e-01	-5.479962867e-04	1.379155907e-11
-5.100000000e-03	2.321379280e-01	-5.456401324e-04	2.539227483e-10
-5.200000000e-03	2.321379331e-01	-5.432839779e-04	1.037383418e-11
-5.300000000e-03	2.321379380e-01	-5.409278233e-04	1.358932506e-11
-5.400000000e-03	2.321379429e-01	-5.385716684e-04	2.482941799e-11
-5.500000000e-03	2.321379478e-01	-5.362155134e-04	1.025808281e-11
-5.600000000e-03	2.321379525e-01	-5.338593582e-04	1.252362058e-11
-5.700000000e-03	2.321379572e-01	-5.315032029e-04	3.597347544e-11
-5.800000000e-03	2.321379618e-01	-5.291470474e-04	1.665682069e-11
-5.900000000e-03	2.321379663e-01	-5.267908918e-04	1.514684219e-11
-6.000000000e-03	2.321379708e-01	-5.244347360e-04	3.093276385e-11
-6.100000000e-03	2.321379752e-01	-5.220785800e-04	1.034506022e-11
-6.200000000e-03	2.321379795e-01	-5.197224239e-04	1.681768529e-11
-6.300000000e-03	2.321379838e-01	-5.173662677e-04	1.635838382e-11
-6.400000000e-03	2.321379880e-01	-5.150101114e-04	2.528235257e-11
-6.500000000e-03	2.321379921e-01	-5.126539549e-04	9.844430307e-12
-6.600000000e-03	2.321379961e-01	-5.102977982e-04	5.614172049e-11
-6.700000000e-03	2.321380001e-01	-5.079416415e-04	2.525586940e-11
-6.800000000e-03	2.321380040e-01	-5.055854846e-04	1.173212862e-11
-6.900000000e-03	2.321380078e-01	-5.032293276e-04	4.415391015e-11
-7.000000000e-03	2.321380116e-01	-5.008731705e-04	1.401065208e-11
-7.100000000e-03	2.321380152e-01	-4.985170133e-04	8.102910275e-12
-7.200000000e-03	2.321380188e-01	-4.961608560e-04	2.328786719e-11
-7.300000000e-03	2.321380224e-01	-4.938046985e-04	2.510777142e-11
-7.400000000e-03	2.321380258e-01	-4.914485410e-04	1.648379037e-11
-7.500000000e-03	2.321380292e-01	-4.890923834e-04	1.087067883e-11
-7.600000000e-03	2.321380326e-01	-4.867362256e-04	1.231818391e-11
-7.700000000e-03	2.321380358e-01	-4.843800678e-04	3.088966802e-11
-7.800000000e-03	2.321380390e-01	-4.820239099e-04	1.020238436e-11
-7.900000000e-03	2.321380421e-01	-4.796677520e-04	3.315372497e-11
-8.000000000e-03	2.321380451e-01	-4.773115939e-04	5.780592021e-12
-8.100000000e-03	2.321380481e-01	-4.749554358e-04	8.475578875e-12
-8.200000000e-03	2.321380510e-01	-4.725992776e-04	7.132995159e-12
-8.300000000e-03	2.321380538e-01	-4.702431193e-04	1.144340799e-11
-8.400000000e-03	2.321380565e-01	-4.678869610e-04	1.348587564e-11
-8.500000000e-03	2.321380592e-01	-4.655308026e-04	1.114781786e-11
-8.600000000e-03	2.321380618e-01	-4.631746441e-04	2.192040249e-11
-8.700000000e-03	2.321380644e-01	-4.608184856e-04	4.711287354e-11
-8.800000000e-03	2.321380668e-01	-4.584623271e-04	7.765413600e-12
-8.900000000e-03	2.321380692e-01	-4.561061685e-04	8.381183622e-12
-9.000000000e-03	2.321380715e-01	-4.537500099e-04	6.600756436e-12
-9.100000000e-03	2.321380738e-01	-4.513938512e-04	8.790164461e-12
-9.200000000e-03	2.321380759e-01	-4.490376925e-04	2.731409523e-11
-9.300000000e-03	2.321380781e-01	-4.466815337e-04	1.961154961e-11
-9.400000000e-03	2.321380801e-01	-4.443253750e-04	3.480769782e-11
-9.500000000e-03	2.321380820e-01	-4.419692162e-04	6.614989183e-12
-9.600000000e-03	2.321380839e-01	-4.396130574e-04	1.424350750e-11
-9.700000000e-03	2.321380857e-01	-4.372568985e-04	9.348339733e-12
-9.800000000e-03	2.321380875e-01	-4.349007397e-04	1.465560678e-11
-9.900000000e-03	2.321380892e-01	-4.325445808e-04	1.527954548e-11
-1.000000000e-02	2.321380908e-01	-4.301884220e-04	1.253341676e-11
-1.010000000e-02	2.321380923e-01	-4.278322631e-04	1.661827228e-11
-1.020000000e-02	2.321380937e-01	-4.254761043e-04	2.646258427e-11
-1.030000000e-02	2.321380951e-01	-4.231199454e-04	3.395226765e-11
-1.040000000e-02	2.321380964e-01	-4.207637866e-04	4.915616282e-11
-1.050000000e-02	2.321380977e-01	-4.184076277e-04	1.517531740e-11
-1.060000000e-02	2.321380989e-01	-4.160514689e-04	6.454240900e-12
-1.070000000e-02	2.321381000e-01	-4.136953101e-04	1.079969254e-11
-1.080000000e-02	2.321381010e-01	-4.113391514e-04	2.812635782e-11
-1.090000000e-02	2.321381019e-01	-4.089829926e-04	1.327291116e-11
-1.100000000e-02	2.321381028e-01	-4.066268339e-04	1.054583030e-11
-1.110000000e-02	2.321381036e-01	-4.042706752e-04	4.428667777e-11
-1.120000000e-02	2.321381044e-01	-4.019145166e-04	9.121080516e-12
-1.130000000e-02	2.321381050e-01	-3.995583580e-04	9.990181694e-12
-1.140000000e-02	2.321381056e-01	-3.972021994e-04	1.934204737e-11
-1.150000000e-02	2.321381062e-01	-3.948460409e-04	1.654075097e-11
-1.160000000e-02	2.321381066e-01	-3.924898825e-04	1.671737213e-11
-1.170000000e-02	2.321381070e-01	-3.901337241e-04	1.194309316e-11
-1.180000000e-02	2.321381073e-01	-3.877775657e-04	1.241405698e-11
-1.190000000e-02	2.321381075e-01	-3.854214075e-04	1.401376629e-11
-1.200000000e-02	2.321381077e-01	-3.830652493e-04	8.952083908e-12
-1.210000000e-02	2.321381078e-01	-3.807090911e-04	2.068393308e-11
-1.220000000e-02	2.321381078e-01	-3.783529331e-04	6.062742276e-12
-1.230000000e-02	2.321381078e-01	-3.759967751e-04	2.978329297e-11
-1.240000000e-02	2.321381077e-01	-3.736406172e-04	1.012858555e-11
-1.250000000e-02	2.321381075e-01	-3.712844594e-04	3.191338919e-11
-1.260000000e-02	2.321381072e-01	-3.689283016e-04	1.814611513e-11
-1.270000000e-02	2.321381069e-01	-3.665721440e-04	7.392735813e-12
-1.280000000e-02	2.321381065e-01	-3.642159865e-04	1.257099338e-11
-1.290000000e-02	2.321381060e-01	-3.618598290e-04	1.569555111e-11
-1.300000000e-02	2.321381054e-01	-3.595036717e-04	2.474797911e-11
-1.310000000e-02	2.321381048e-01	-3.571475145e-04	1.693497045e-11
-1.320000000e-02	2.321381041e-01	-3.547913574e-04	1.075800705e-11
-1.330000000e-02	2.321381033e-01	-3.524352004e-04	1.843724128e-11
-1.340000000e-02	2.321381025e-01	-3.500790435e-04	2.662990138e-11
-1.350000000e-02	2.321381016e-01	-3.477228867e-04	9.147520365e-12
-1.360000000e-02	2.321381006e-01	-3.453667301e-04	2.561480759e-11
-1.370000000e-02	2.321380996e-01	-3.430105736e-04	7.913380435e-12
-1.380000000e-02	2.321380984e-01	-3.406544172e-04	7.269703689e-12
-1.390000000e-02	2.321380972e-01	-3.382982610e-04	1.574120030e-11
-1.400000000e-02	2.321380960e-01	-3.359421049e-04	4.545173433e-11
-1.410000000e-02	2.321380946e-01	-3.335859489e-04	4.218095382e-11
-1.420000000e-02	2.321380932e-01	-3.312297931e-04	1.488501673e-11
-1.430000000e-02	2.321380917e-01	-3.288736374e-04	7.698110405e-12
-1.440000000e-02	2.321380902e-01	-3.265174819e-04	1.645103809e-11
-1.450000000e-02	2.321380886e-01	-3.241613266e-04	1.139561810e-11
-1.460000000e-02	2.321380869e-01	-3.218051714e-04	7.468274934e-12
-1.470000000e-02	2.321380851e-01	-3.194490164e-04	1.294090885e-11
-1.480000000e-02	2.321380832e-01	-3.170928615e-04	1.372146840e-11
-1.490000000e-02	2.321380813e-01	-3.147367069e-04	1.199090337e-11
-1.500000000e-02	2.321380793e-01	-3.123805524e-04	8.232070915e-12
-1.510000000e-02	2.321380773e-01	-3.100243980e-04	1.975094754e-11
-1.520000000e-02	2.321380752e-01	-3.076682439e-04	1.442817053e-11
-1.530000000e-02	2.321380730e-01	-3.053120899e-04	2.125977585e-11
-1.540000000e-02	2.321380707e-01	-3.029559362e-04	1.428140967e-11
-1.550000000e-02	2.321380683e-01	-3.005997826e-04	1.225194446e-11
-1.560000000e-02	2.321380659e-01	-2.982436292e-04	1.850135213e-11
-1.570000000e-02	2.321380634e-01	-2.958874761e-04	2.615280692e-11
-1.580000000e-02	2.321380609e-01	-2.935313231e-04	1.926782272e-11
-1.590000000e-02	2.321380583e-01	-2.911751704e-04	1.056749513e-11
-1.600000000e-02	2.321380556e-01	-2.888190178e-04	2.098235324e-11
-1.610000000e-02	2.321380528e-01	-2.864628655e-04	5.367001658e-12
-1.620000000e-02	2.321380499e-01	-2.841067134e-04	1.744910029e-11
-1.630000000e-02	2.321380470e-01	-2.817505615e-04	2.470355359e-11
-1.640000000e-02	2.321380440e-01	-2.793944099e-04	9.554005781e-12
-1.650000000e-02	2.321380410e-01	-2.770382584e-04	3.984082334e-11
-1.660000000e-02	2.321380378e-01	-2.746821073e-04	2.597329630e-11
-1.670000000e-02	2.321380346e-01	-2.723259563e-04	1.430021957e-11
-1.680000000e-02	2.321380314e-01	-2.699698056e-04	2.462397933e-11
-1.690000000e-02	2.321380280e-01	-2.676136551e-04	1.038961693e-11
-1.700000000e-02	2.321380246e-01	-2.652575049e-04	6.983085223e-12
-1.710000000e-02	2.321380211e-01	-2.629013550e-04	1.630532786e-11
-1.720000000e-02	2.321380175e-01	-2.605452053e-04	1.449583584e-11
-1.730000000e-02	2.321380139e-01	-2.581890558e-04	3.492856423e-11
-1.740000000e-02	2.321380102e-01	-2.558329066e-04	1.217302559e-11
-1.750000000e-02	2.321380064e-01	-2.534767577e-04	5.121247410e-11
-1.760000000e-02	2.321380026e-01	-2.511206091e-04	2.241182954e-11
-1.770000000e-02	2.321379986e-01	-2.487644607e-04	1.826101178e-11
-1.780000000e-02	2.321379947e-01	-2.464083126e-04	4.819880163e-11
-1.790000000e-02	2.321379906e-01	-2.440521648e-04	2.602613857e-11
-1.800000000e-02	2.321379865e-01	-2.416960173e-04	1.144800509e-11
-1.810000000e-02	2.321379822e-01	-2.393398700e-04	1.848474354e-11
-1.820000000e-02	2.321379780e-01	-2.369837231e-04	1.558162496e-11
-1.830000000e-02	2.321379736e-01	-2.346275764e-04	1.013110084e-11
-1.840000000e-02	2.321379692e-01	-2.322714301e-04	1.096921842e-11
-1.850000000e-02	2.321379647e-01	-2.299152840e-04	7.945789018e-12
-1.860000000e-02	2.321379601e-01	-2.275591383e-04	1.121949512e-11
-1.870000000e-02	2.321379555e-01	-2.252029929e-04	1.146700644e-11
-1.880000000e-02	2.321379508e-01	-2.228468478e-04	1.204139263e-11
-1.890000000e-02	2.321379460e-01	-2.204907030e-04	9.956679148e-12
-1.900000000e-02	2.321379411e-01	-2.181345585e-04	2.129591325e-11
-1.910000000e-02	2.321379362e-01	-2.157784144e-04	2.130386663e-11
-1.920000000e-02	2.321379312e-01	-2.134222705e-04	8.438156675e-12
-1.930000000e-02	2.321379262e-01	-2.110661271e-04	5.533183832e-11
-1.940000000e-02	2.321379210e-01	-2.087099839e-04	1.619230731e-11
-1.950000000e-02	2.321379158e-01	-2.063538411e-04	1.064521106e-11
-1.960000000e-02	2.321379105e-01	-2.039976986e-04	1.131635021e-11
-1.970000000e-02	2.321379052e-01	-2.016415565e-04	8.725232498e-12
-1.980000000e-02	2.321378997e-01	-1.992854147e-04	2.235980060e-11
-1.990000000e-02	2.321378942e-01	-1.969292733e-04	1.913758150e-11
-2.000000000e-02	2.321378887e-01	-1.945731323e-04	2.580767038e-11
-2.010000000e-02	2.321378830e-01	-1.922169916e-04	6.678677340e-12
-2.020000000e-02	2.321378773e-01	-1.898608512e-04	6.570024318e-12
-2.030000000e-02	2.321378715e-01	-1.875047113e-04	4.528951972e-11
-2.040000000e-02	2.321378657e-01	-1.851485717e-04	3.186314788e-11
-2.050000000e-02	2.321378597e-01	-1.827924325e-04	2.126001579e-11
-2.060000000e-02	2.321378537e-01	-1.804362936e-04	1.741672533e-11
-2.070000000e-02	2.321378477e-01	-1.780801552e-04	9.871610193e-12
-2.080000000e-02	2.321378415e-01	-1.757240171e-04	1.265487847e-11
-2.090000000e-02	2.321378353e-01	-1.733678795e-04	1.469856781e-11
-2.100000000e-02	2.321378290e-01	-1.710117422e-04	1.568883825e-11
-2.110000000e-02	2.321378227e-01	-1.686556053e-04	7.804664012e-12
-2.120000000e-02	2.321378162e-01	-1.662994688e-04	1.367120628e-11
-2.130000000e-02	2.321378097e-01	-1.639433327e-04	1.438082085e-11
-2.140000000e-02	2.321378032e-01	-1.615871971e-04	9.481731940e-12
-2.150000000e-02	2.321377965e-01	-1.592310618e-04	1.206236470e-11
-2.160000000e-02	2.321377898e-01	-1.568749270e-04	1.838670949e-11
-2.170000000e-02	2.321377830e-01	-1.545187926e-04	1.486096253e-11
-2.180000000e-02	2.321377761e-01	-1.521626586e-04	6.072778995e-12
-2.190000000e-02	2.321377692e-01	-1.498065250e-04	2.052951225e-11
-2.200000000e-02	2.321377622e-01	-1.474503919e-04	1.294075283e-11
-2.210000000e-02	2.321377551e-01	-1.450942592e-04	1.761170095e-11
-2.220000000e-02	2.321377480e-01	-1.427381269e-04	2.652616506e-11
-2.230000000e-02	2.321377408e-01	-1.403819951e-04	2.853359498e-11
-2.240000000e-02	2.321377335e-01	-1.380258637e-04	1.261969182e-11
-2.250000000e-02	2.321377261e-01	-1.356697328e-04	5.395380627e-11
-2.260000000e-02	2.321377187e-01	-1.333136023e-04	6.852187612e-12
-2.270000000e-02	2.321377112e-01	-1.309574723e-04	9.954680083e-12
-2.280000000e-02	2.321377036e-01	-1.286013428e-04	7.699251970e-12
-2.290000000e-02	2.321376959e-01	-1.262452137e-04	5.828619575e-12
-2.300000000e-02	2.321376882e-01	-1.238890850e-04	1.125480215e-10
-2.310000000e-02	2.321376804e-01	-1.215329569e-04	1.128430661e-11
-2.320000000e-02	2.321376726e-01	-1.191768292e-04	1.169235821e-11
-2.330000000e-02	2.321376646e-01	-1.168207020e-04	4.812243395e-11
-2.340000000e-02	2.321376566e-01	-1.144645753e-04	6.623159057e-12
-2.350000000e-02	2.321376485e-01	-1.121084490e-04	1.430742131e-11
-2.360000000e-02	2.321376404e-01	-1.097523233e-04	9.790130161e-12
-2.370000000e-02	2.321376322e-01	-1.073961980e-04	6.644637568e-11
-2.380000000e-02	2.321376239e-01	-1.050400733e-04	1.656494413e-11
-2.390000000e-02	2.321376155e-01	-1.026839490e-04	6.031997931e-12
-2.400000000e-02	2.321376071e-01	-1.003278252e-04	1.819198019e-11
-2.410000000e-02	2.321375985e-01	-9.797170198e-05	1.446626843e-11
-2.420000000e-02	2.321375900e-01	-9.561557924e-05	1.442259757e-11
-2.430000000e-02	2.321375813e-01	-9.325945701e-05	2.189464269e-11
-2.440000000e-02	2.321375726e-01	-9.090333531e-05	1.875174612e-11
-2.450000000e-02	2.321375638e-01	-8.854721412e-05	1.646629765e-11
-2.460000000e-02	2.321375549e-01	-8.619109346e-05	1.456761067e-11
-2.470000000e-02	2.321375460e-01	-8.383497332e-05	1.189724652e-11
-2.480000000e-02	2.321375370e-01	-8.147885372e-05	8.599861202e-12
-2.490000000e-02	2.321375279e-01	-7.912273466e-05	1.181443614e-11
-2.500000000e-02	2.321375187e-01	-7.676661613e-05	8.447883170e-12
-2.510000000e-02	2.321375095e-01	-7.441049815e-05	1.958073716e-11
-2.520000000e-02	2.321375002e-01	-7.205438072e-05	8.321277085e-12
-2.530000000e-02	2.321374908e-01	-6.969826384e-05	1.901770239e-11
-2.540000000e-02	2.321374814e-01	-6.734214750e-05	1.455184058e-11
-2.550000000e-02	2.321374719e-01	-6.498603173e-05	8.139123111e-11
-2.560000000e-02	2.321374623e-01	-6.262991652e-05	1.312663565e-11
-2.570000000e-02	2.321374526e-01	-6.027380188e-05	8.017836394e-12
-2.580000000e-02	2.321374429e-01	-5.791768780e-05	1.085176994e-11
-2.590000000e-02	2.321374331e-01	-5.556157430e-05	9.954917870e-12
-2.600000000e-02	2.321374232e-01	-5.320546137e-05	1.341668251e-11
-2.610000000e-02	2.321374133e-01	-5.084934903e-05	1.353027330e-10
-2.620000000e-02	2.321374033e-01	-4.849323726e-05	6.624989411e-12
-2.630000000e-02	2.321373932e-01	-4.613712608e-05	1.026952843e-11
-2.640000000e-02	2.321373830e-01	-4.378101549e-05	1.597427845e-11
-2.650000000e-02	2.321373728e-01	-4.142490550e-05	1.268640015e-11
-2.660000000e-02	2.321373625e-01	-3.906879611e-05	1.588888242e-11
-2.670000000e-02	2.321373521e-01	-3.671268731e-05	1.888307272e-11
-2.680000000e-02	2.321373417e-01	-3.435657912e-05	4.813543422e-11
-2.690000000e-02	2.321373311e-01	-3.200047155e-05	3.425904540e-11
-2.700000000e-02	2.321373206e-01	-2.964436458e-05	1.528765452e-11
-2.710000000e-02	2.321373099e-01	-2.728825823e-05	2.113935298e-11
-2.720000000e-02	2.321372992e-01	-2.493215250e-05	1.658140760e-11
-2.730000000e-02	2.321372884e-01	-2.257604739e-05	1.011821296e-11
-2.740000000e-02	2.321372775e-01	-2.021994291e-05	2.646636651e-11
-2.750000000e-02	2.321372665e-01	-1.786383906e-05	3.814897237e-12
-2.760000000e-02	2.321372555e-01	-1.550773584e-05	1.384587696e-11
-2.770000000e-02	2.321372444e-01	-1.315163326e-05	9.251143954e-12
-2.780000000e-02	2.321372333e-01	-1.079553132e-05	1.235292184e-11
-2.790000000e-02	2.321372220e-01	-8.439430029e-06	8.476670520e-11
-2.800000000e-02	2.321372107e-01	-6.083329390e-06	1.043757005e-11
-2.810000000e-02	2.321371993e-01	-3.727229400e-06	8.508203198e-12
-2.820000000e-02	2.321371879e-01	-1.371130066e-06	1.697022756e-11
-2.830000000e-02	2.321371764e-01	9.849686098e-07	1.461962490e-11
-2.840000000e-02	2.321371648e-01	3.341066623e-06	9.483542117e-12
-2.850000000e-02	2.321371531e-01	5.697163967e-06	1.868412852e-11
-2.860000000e-02	2.321371414e-01	8.053260641e-06	6.488850083e-12
-2.870000000e-02	2.321371296e-01	1.040935664e-05	1.307054249e-11
-2.880000000e-02	2.321371177e-01	1.276545196e-05	1.472076025e-11
-2.890000000e-02	2.321371057e-01	1.512154660e-05	1.336292977e-11
-2.900000000e-02	2.321370937e-01	1.747764056e-05	1.507670796e-11
-2.910000000e-02	2.321370816e-01	1.983373382e-05	3.761033103e-11
-2.920000000e-02	2.321370694e-01	2.218982640e-05	9.215166156e-12
-2.930000000e-02	2.321370572e-01	2.454591828e-05	9.117759544e-12
-2.940000000e-02	2.321370449e-01	2.690200946e-05	1.042686960e-11
-2.950000000e-02	2.321370325e-01	2.925809993e-05	1.196631759e-11
-2.960000000e-02	2.321370201e-01	3.161418970e-05	1.472367188e-11
-2.970000000e-02	2.321370075e-01	3.397027876e-05	2.311978681e-11
-2.980000000e-02	2.321369949e-01	3.632636710e-05	8.208713261e-12
-2.990000000e-02	2.321369823e-01	3.868245473e-05	1.822720715e-11
-3.000000000e-02	2.321369695e-01	4.103854163e-05	1.116218306e-11
