# Im(epsi1)     Re(omega/c)      Im(omega/c)      Eq(det).Opt det CON kz, R=0.5 \mum, mu_c=0.3, Re(epsi1)=3.90solve_det_conkz_vs_kz.py
0.000000000e+00	2.321357647e-01	-6.657969799e-04	7.949530343e-12
-1.000000000e-04	2.321357734e-01	-6.634408523e-04	3.706026817e-11
-2.000000000e-04	2.321357820e-01	-6.610847243e-04	1.304379718e-11
-3.000000000e-04	2.321357905e-01	-6.587285960e-04	1.416546845e-11
-4.000000000e-04	2.321357990e-01	-6.563724673e-04	6.859487082e-12
-5.000000000e-04	2.321358074e-01	-6.540163382e-04	6.686357430e-12
-6.000000000e-04	2.321358158e-01	-6.516602088e-04	1.213889575e-11
-7.000000000e-04	2.321358241e-01	-6.493040791e-04	2.145492195e-11
-8.000000000e-04	2.321358323e-01	-6.469479490e-04	9.579518321e-12
-9.000000000e-04	2.321358404e-01	-6.445918186e-04	1.616970112e-11
-1.000000000e-03	2.321358484e-01	-6.422356879e-04	4.534634319e-11
-1.100000000e-03	2.321358564e-01	-6.398795568e-04	2.336345279e-11
-1.200000000e-03	2.321358643e-01	-6.375234254e-04	1.642297917e-11
-1.300000000e-03	2.321358722e-01	-6.351672937e-04	5.863936602e-12
-1.400000000e-03	2.321358799e-01	-6.328111616e-04	2.501503268e-11
-1.500000000e-03	2.321358876e-01	-6.304550293e-04	1.209752458e-11
-1.600000000e-03	2.321358952e-01	-6.280988966e-04	1.092678703e-11
-1.700000000e-03	2.321359028e-01	-6.257427636e-04	1.392432390e-11
-1.800000000e-03	2.321359103e-01	-6.233866304e-04	3.048335706e-11
-1.900000000e-03	2.321359177e-01	-6.210304968e-04	2.339472331e-11
-2.000000000e-03	2.321359250e-01	-6.186743629e-04	1.000490281e-11
-2.100000000e-03	2.321359323e-01	-6.163182287e-04	1.201150266e-11
-2.200000000e-03	2.321359395e-01	-6.139620943e-04	1.252305024e-11
-2.300000000e-03	2.321359466e-01	-6.116059595e-04	1.456203370e-11
-2.400000000e-03	2.321359537e-01	-6.092498245e-04	1.346659805e-11
-2.500000000e-03	2.321359606e-01	-6.068936892e-04	6.105031254e-12
-2.600000000e-03	2.321359675e-01	-6.045375536e-04	2.061824303e-11
-2.700000000e-03	2.321359744e-01	-6.021814178e-04	1.440580104e-11
-2.800000000e-03	2.321359811e-01	-5.998252817e-04	1.536315240e-11
-2.900000000e-03	2.321359878e-01	-5.974691453e-04	9.690850981e-12
-3.000000000e-03	2.321359945e-01	-5.951130087e-04	5.337479420e-11
-3.100000000e-03	2.321360010e-01	-5.927568718e-04	3.859566963e-11
-3.200000000e-03	2.321360075e-01	-5.904007346e-04	2.324332038e-11
-3.300000000e-03	2.321360139e-01	-5.880445972e-04	1.461480646e-11
-3.400000000e-03	2.321360202e-01	-5.856884596e-04	8.332464203e-12
-3.500000000e-03	2.321360265e-01	-5.833323217e-04	8.647477537e-12
-3.600000000e-03	2.321360327e-01	-5.809761836e-04	1.034938690e-11
-3.700000000e-03	2.321360388e-01	-5.786200452e-04	9.052650367e-12
-3.800000000e-03	2.321360448e-01	-5.762639066e-04	1.872781679e-11
-3.900000000e-03	2.321360508e-01	-5.739077678e-04	6.139904668e-12
-4.000000000e-03	2.321360567e-01	-5.715516288e-04	3.449095889e-11
-4.100000000e-03	2.321360625e-01	-5.691954895e-04	1.360009753e-11
-4.200000000e-03	2.321360683e-01	-5.668393500e-04	9.536087594e-12
-4.300000000e-03	2.321360740e-01	-5.644832104e-04	2.377911901e-11
-4.400000000e-03	2.321360796e-01	-5.621270705e-04	2.025057152e-11
-4.500000000e-03	2.321360851e-01	-5.597709304e-04	3.329951517e-11
-4.600000000e-03	2.321360906e-01	-5.574147900e-04	1.283281437e-11
-4.700000000e-03	2.321360960e-01	-5.550586495e-04	2.620394022e-11
-4.800000000e-03	2.321361013e-01	-5.527025088e-04	3.325013210e-11
-4.900000000e-03	2.321361066e-01	-5.503463680e-04	8.051645303e-12
-5.000000000e-03	2.321361118e-01	-5.479902269e-04	9.659931593e-12
-5.100000000e-03	2.321361169e-01	-5.456340856e-04	2.943513013e-11
-5.200000000e-03	2.321361219e-01	-5.432779442e-04	9.833647290e-12
-5.300000000e-03	2.321361269e-01	-5.409218026e-04	1.594099636e-11
-5.400000000e-03	2.321361318e-01	-5.385656608e-04	8.922703946e-12
-5.500000000e-03	2.321361366e-01	-5.362095188e-04	2.013609989e-11
-5.600000000e-03	2.321361414e-01	-5.338533767e-04	1.139006637e-11
-5.700000000e-03	2.321361461e-01	-5.314972344e-04	1.097968240e-11
-5.800000000e-03	2.321361507e-01	-5.291410920e-04	6.720177633e-12
-5.900000000e-03	2.321361552e-01	-5.267849494e-04	1.453561362e-11
-6.000000000e-03	2.321361597e-01	-5.244288066e-04	7.189298187e-12
-6.100000000e-03	2.321361641e-01	-5.220726637e-04	1.687538282e-11
-6.200000000e-03	2.321361684e-01	-5.197165207e-04	4.588291117e-11
-6.300000000e-03	2.321361727e-01	-5.173603775e-04	3.730846264e-11
-6.400000000e-03	2.321361769e-01	-5.150042342e-04	1.607281327e-11
-6.500000000e-03	2.321361810e-01	-5.126480907e-04	1.496005570e-11
-6.600000000e-03	2.321361850e-01	-5.102919472e-04	2.557566490e-11
-6.700000000e-03	2.321361890e-01	-5.079358034e-04	7.833142052e-12
-6.800000000e-03	2.321361929e-01	-5.055796596e-04	6.710314648e-12
-6.900000000e-03	2.321361967e-01	-5.032235157e-04	7.150824108e-11
-7.000000000e-03	2.321362004e-01	-5.008673716e-04	1.237300266e-11
-7.100000000e-03	2.321362041e-01	-4.985112274e-04	5.226395353e-12
-7.200000000e-03	2.321362077e-01	-4.961550832e-04	3.897161465e-11
-7.300000000e-03	2.321362113e-01	-4.937989388e-04	2.505101938e-11
-7.400000000e-03	2.321362147e-01	-4.914427943e-04	2.144675315e-11
-7.500000000e-03	2.321362181e-01	-4.890866497e-04	2.794746627e-11
-7.600000000e-03	2.321362214e-01	-4.867305051e-04	2.697625669e-11
-7.700000000e-03	2.321362247e-01	-4.843743603e-04	1.713183418e-11
-7.800000000e-03	2.321362279e-01	-4.820182154e-04	8.328626326e-12
-7.900000000e-03	2.321362310e-01	-4.796620705e-04	2.312933664e-11
-8.000000000e-03	2.321362340e-01	-4.773059255e-04	1.391078113e-11
-8.100000000e-03	2.321362370e-01	-4.749497804e-04	2.700475018e-11
-8.200000000e-03	2.321362399e-01	-4.725936353e-04	1.721414048e-11
-8.300000000e-03	2.321362427e-01	-4.702374901e-04	1.244029801e-11
-8.400000000e-03	2.321362454e-01	-4.678813448e-04	9.607039909e-12
-8.500000000e-03	2.321362481e-01	-4.655251994e-04	9.242792353e-11
-8.600000000e-03	2.321362507e-01	-4.631690540e-04	3.242486356e-11
-8.700000000e-03	2.321362532e-01	-4.608129086e-04	1.146939366e-11
-8.800000000e-03	2.321362557e-01	-4.584567631e-04	8.415251015e-12
-8.900000000e-03	2.321362581e-01	-4.561006175e-04	9.106558094e-12
-9.000000000e-03	2.321362604e-01	-4.537444719e-04	1.148683672e-11
-9.100000000e-03	2.321362627e-01	-4.513883263e-04	1.566634671e-11
-9.200000000e-03	2.321362648e-01	-4.490321807e-04	1.006821578e-11
-9.300000000e-03	2.321362669e-01	-4.466760350e-04	2.548979713e-11
-9.400000000e-03	2.321362690e-01	-4.443198892e-04	5.286395776e-12
-9.500000000e-03	2.321362709e-01	-4.419637435e-04	3.605377430e-11
-9.600000000e-03	2.321362728e-01	-4.396075977e-04	1.101716991e-11
-9.700000000e-03	2.321362746e-01	-4.372514520e-04	6.452237175e-11
-9.800000000e-03	2.321362764e-01	-4.348953062e-04	1.895806041e-11
-9.900000000e-03	2.321362780e-01	-4.325391604e-04	1.492965929e-11
-1.000000000e-02	2.321362796e-01	-4.301830145e-04	2.044062355e-11
-1.010000000e-02	2.321362812e-01	-4.278268687e-04	1.513288824e-11
-1.020000000e-02	2.321362826e-01	-4.254707229e-04	6.345210952e-12
-1.030000000e-02	2.321362840e-01	-4.231145771e-04	1.034944262e-11
-1.040000000e-02	2.321362853e-01	-4.207584313e-04	6.463760738e-12
-1.050000000e-02	2.321362866e-01	-4.184022855e-04	5.772123987e-12
-1.060000000e-02	2.321362877e-01	-4.160461398e-04	8.819126340e-12
-1.070000000e-02	2.321362888e-01	-4.136899940e-04	8.663918838e-12
-1.080000000e-02	2.321362899e-01	-4.113338483e-04	1.947870775e-11
-1.090000000e-02	2.321362908e-01	-4.089777026e-04	1.772306545e-11
-1.100000000e-02	2.321362917e-01	-4.066215569e-04	1.150598707e-11
-1.110000000e-02	2.321362925e-01	-4.042654113e-04	8.577865164e-12
-1.120000000e-02	2.321362932e-01	-4.019092657e-04	8.220667106e-12
-1.130000000e-02	2.321362939e-01	-3.995531202e-04	9.521269619e-12
-1.140000000e-02	2.321362945e-01	-3.971969747e-04	6.193126338e-12
-1.150000000e-02	2.321362950e-01	-3.948408292e-04	2.012500277e-11
-1.160000000e-02	2.321362955e-01	-3.924846838e-04	1.418194781e-11
-1.170000000e-02	2.321362959e-01	-3.901285385e-04	2.135162988e-11
-1.180000000e-02	2.321362962e-01	-3.877723932e-04	8.391625305e-12
-1.190000000e-02	2.321362964e-01	-3.854162480e-04	1.570437633e-11
-1.200000000e-02	2.321362966e-01	-3.830601028e-04	2.122416499e-11
-1.210000000e-02	2.321362967e-01	-3.807039577e-04	2.016459417e-11
-1.220000000e-02	2.321362967e-01	-3.783478127e-04	4.833458083e-12
-1.230000000e-02	2.321362967e-01	-3.759916678e-04	7.178963442e-11
-1.240000000e-02	2.321362965e-01	-3.736355229e-04	8.646649538e-12
-1.250000000e-02	2.321362963e-01	-3.712793781e-04	7.622949278e-12
-1.260000000e-02	2.321362961e-01	-3.689232335e-04	8.181977671e-12
-1.270000000e-02	2.321362957e-01	-3.665670889e-04	7.348982716e-12
-1.280000000e-02	2.321362953e-01	-3.642109444e-04	7.907243949e-12
-1.290000000e-02	2.321362949e-01	-3.618548000e-04	9.373633545e-12
-1.300000000e-02	2.321362943e-01	-3.594986557e-04	8.953387313e-12
-1.310000000e-02	2.321362937e-01	-3.571425115e-04	1.173629148e-11
-1.320000000e-02	2.321362930e-01	-3.547863675e-04	8.166243182e-12
-1.330000000e-02	2.321362922e-01	-3.524302235e-04	1.163518541e-11
-1.340000000e-02	2.321362914e-01	-3.500740797e-04	1.221884990e-11
-1.350000000e-02	2.321362905e-01	-3.477179360e-04	1.024867914e-11
-1.360000000e-02	2.321362895e-01	-3.453617924e-04	8.244602385e-12
-1.370000000e-02	2.321362884e-01	-3.430056489e-04	9.973206820e-12
-1.380000000e-02	2.321362873e-01	-3.406495056e-04	1.359609998e-11
-1.390000000e-02	2.321362861e-01	-3.382933624e-04	7.927864223e-12
-1.400000000e-02	2.321362848e-01	-3.359372193e-04	1.603376409e-11
-1.410000000e-02	2.321362835e-01	-3.335810764e-04	8.284947062e-12
-1.420000000e-02	2.321362821e-01	-3.312249337e-04	1.416830260e-11
-1.430000000e-02	2.321362806e-01	-3.288687911e-04	1.268528816e-10
-1.440000000e-02	2.321362791e-01	-3.265126486e-04	8.073958681e-12
-1.450000000e-02	2.321362774e-01	-3.241565063e-04	7.462520070e-12
-1.460000000e-02	2.321362757e-01	-3.218003642e-04	7.028975760e-12
-1.470000000e-02	2.321362740e-01	-3.194442222e-04	1.951312496e-11
-1.480000000e-02	2.321362721e-01	-3.170880804e-04	2.513168029e-11
-1.490000000e-02	2.321362702e-01	-3.147319388e-04	1.481617678e-11
-1.500000000e-02	2.321362682e-01	-3.123757973e-04	1.450749813e-11
-1.510000000e-02	2.321362662e-01	-3.100196561e-04	3.612353617e-11
-1.520000000e-02	2.321362640e-01	-3.076635150e-04	4.966885812e-12
-1.530000000e-02	2.321362618e-01	-3.053073741e-04	5.310695211e-11
-1.540000000e-02	2.321362596e-01	-3.029512333e-04	1.461825917e-11
-1.550000000e-02	2.321362572e-01	-3.005950928e-04	9.945557955e-12
-1.560000000e-02	2.321362548e-01	-2.982389525e-04	1.429061281e-11
-1.570000000e-02	2.321362523e-01	-2.958828124e-04	1.249824816e-11
-1.580000000e-02	2.321362498e-01	-2.935266725e-04	1.708062644e-11
-1.590000000e-02	2.321362471e-01	-2.911705328e-04	1.125605205e-11
-1.600000000e-02	2.321362444e-01	-2.888143933e-04	1.045070248e-11
-1.610000000e-02	2.321362417e-01	-2.864582540e-04	8.688735422e-12
-1.620000000e-02	2.321362388e-01	-2.841021150e-04	2.208022457e-11
-1.630000000e-02	2.321362359e-01	-2.817459761e-04	1.250111250e-11
-1.640000000e-02	2.321362329e-01	-2.793898375e-04	1.966460031e-11
-1.650000000e-02	2.321362298e-01	-2.770336991e-04	9.263526771e-12
-1.660000000e-02	2.321362267e-01	-2.746775610e-04	1.440622532e-11
-1.670000000e-02	2.321362235e-01	-2.723214231e-04	1.241047942e-11
-1.680000000e-02	2.321362202e-01	-2.699652854e-04	2.671960304e-11
-1.690000000e-02	2.321362169e-01	-2.676091480e-04	1.057625471e-11
-1.700000000e-02	2.321362135e-01	-2.652530109e-04	1.535385320e-11
-1.710000000e-02	2.321362100e-01	-2.628968740e-04	4.719325450e-12
-1.720000000e-02	2.321362064e-01	-2.605407373e-04	1.101438853e-11
-1.730000000e-02	2.321362028e-01	-2.581846009e-04	2.381321110e-11
-1.740000000e-02	2.321361991e-01	-2.558284648e-04	1.412538999e-11
-1.750000000e-02	2.321361953e-01	-2.534723289e-04	1.753761410e-11
-1.760000000e-02	2.321361914e-01	-2.511161933e-04	1.240779828e-11
-1.770000000e-02	2.321361875e-01	-2.487600580e-04	9.941802975e-11
-1.780000000e-02	2.321361835e-01	-2.464039229e-04	8.287128780e-12
-1.790000000e-02	2.321361795e-01	-2.440477882e-04	3.638918325e-11
-1.800000000e-02	2.321361753e-01	-2.416916537e-04	1.507303461e-11
-1.810000000e-02	2.321361711e-01	-2.393355195e-04	8.889209451e-12
-1.820000000e-02	2.321361668e-01	-2.369793856e-04	6.431646694e-12
-1.830000000e-02	2.321361625e-01	-2.346232520e-04	2.307120900e-11
-1.840000000e-02	2.321361581e-01	-2.322671187e-04	4.039597553e-11
-1.850000000e-02	2.321361536e-01	-2.299109857e-04	4.810315628e-11
-1.860000000e-02	2.321361490e-01	-2.275548530e-04	6.908321240e-12
-1.870000000e-02	2.321361444e-01	-2.251987206e-04	2.544335686e-11
-1.880000000e-02	2.321361397e-01	-2.228425886e-04	2.041141095e-11
-1.890000000e-02	2.321361349e-01	-2.204864568e-04	9.654471731e-12
-1.900000000e-02	2.321361300e-01	-2.181303254e-04	8.630398463e-12
-1.910000000e-02	2.321361251e-01	-2.157741943e-04	1.818312963e-11
-1.920000000e-02	2.321361201e-01	-2.134180635e-04	1.708481532e-11
-1.930000000e-02	2.321361150e-01	-2.110619331e-04	2.400226475e-11
-1.940000000e-02	2.321361099e-01	-2.087058030e-04	6.005938995e-11
-1.950000000e-02	2.321361047e-01	-2.063496732e-04	7.811181467e-12
-1.960000000e-02	2.321360994e-01	-2.039935438e-04	8.344638365e-12
-1.970000000e-02	2.321360940e-01	-2.016374148e-04	2.087487929e-11
-1.980000000e-02	2.321360886e-01	-1.992812860e-04	1.143896838e-11
-1.990000000e-02	2.321360831e-01	-1.969251577e-04	2.833969286e-11
-2.000000000e-02	2.321360775e-01	-1.945690297e-04	2.111415030e-11
-2.010000000e-02	2.321360719e-01	-1.922129020e-04	6.263601636e-11
-2.020000000e-02	2.321360662e-01	-1.898567747e-04	1.406933633e-11
-2.030000000e-02	2.321360604e-01	-1.875006478e-04	7.781529865e-11
-2.040000000e-02	2.321360545e-01	-1.851445213e-04	1.961787471e-11
-2.050000000e-02	2.321360486e-01	-1.827883951e-04	7.783039983e-12
-2.060000000e-02	2.321360426e-01	-1.804322693e-04	2.927546570e-11
-2.070000000e-02	2.321360365e-01	-1.780761439e-04	1.164109490e-11
-2.080000000e-02	2.321360304e-01	-1.757200189e-04	2.847684247e-11
-2.090000000e-02	2.321360242e-01	-1.733638943e-04	1.852315741e-11
-2.100000000e-02	2.321360179e-01	-1.710077701e-04	1.889475558e-11
-2.110000000e-02	2.321360115e-01	-1.686516462e-04	1.661162719e-11
-2.120000000e-02	2.321360051e-01	-1.662955228e-04	6.677457036e-12
-2.130000000e-02	2.321359986e-01	-1.639393998e-04	1.483854799e-11
-2.140000000e-02	2.321359920e-01	-1.615832772e-04	1.313715592e-11
-2.150000000e-02	2.321359854e-01	-1.592271550e-04	2.200062961e-11
-2.160000000e-02	2.321359787e-01	-1.568710332e-04	6.236482191e-12
-2.170000000e-02	2.321359719e-01	-1.545149118e-04	8.201729252e-12
-2.180000000e-02	2.321359650e-01	-1.521587909e-04	1.715281317e-11
-2.190000000e-02	2.321359581e-01	-1.498026703e-04	9.183488937e-12
-2.200000000e-02	2.321359511e-01	-1.474465503e-04	1.760835430e-11
-2.210000000e-02	2.321359440e-01	-1.450904306e-04	1.032881631e-11
-2.220000000e-02	2.321359368e-01	-1.427343114e-04	1.075791372e-10
-2.230000000e-02	2.321359296e-01	-1.403781926e-04	2.268324230e-11
-2.240000000e-02	2.321359223e-01	-1.380220743e-04	3.285977676e-11
-2.250000000e-02	2.321359150e-01	-1.356659564e-04	1.144369544e-10
-2.260000000e-02	2.321359075e-01	-1.333098390e-04	2.486983547e-11
-2.270000000e-02	2.321359000e-01	-1.309537220e-04	1.581147587e-11
-2.280000000e-02	2.321358925e-01	-1.285976055e-04	2.865929729e-11
-2.290000000e-02	2.321358848e-01	-1.262414895e-04	1.706047251e-11
-2.300000000e-02	2.321358771e-01	-1.238853739e-04	3.188438609e-11
-2.310000000e-02	2.321358693e-01	-1.215292588e-04	5.573160062e-11
-2.320000000e-02	2.321358614e-01	-1.191731441e-04	6.107776898e-12
-2.330000000e-02	2.321358535e-01	-1.168170300e-04	1.594535747e-11
-2.340000000e-02	2.321358455e-01	-1.144609163e-04	1.329088521e-11
-2.350000000e-02	2.321358374e-01	-1.121048031e-04	6.959139608e-12
-2.360000000e-02	2.321358292e-01	-1.097486904e-04	4.726286415e-11
-2.370000000e-02	2.321358210e-01	-1.073925782e-04	1.114778734e-11
-2.380000000e-02	2.321358127e-01	-1.050364665e-04	2.151897051e-11
-2.390000000e-02	2.321358044e-01	-1.026803553e-04	4.299043408e-11
-2.400000000e-02	2.321357959e-01	-1.003242446e-04	8.814978644e-12
-2.410000000e-02	2.321357874e-01	-9.796813437e-05	8.414055714e-12
-2.420000000e-02	2.321357788e-01	-9.561202468e-05	6.758499732e-12
-2.430000000e-02	2.321357702e-01	-9.325591550e-05	1.050007217e-11
-2.440000000e-02	2.321357615e-01	-9.089980684e-05	1.310794213e-11
-2.450000000e-02	2.321357527e-01	-8.854369870e-05	1.392212955e-11
-2.460000000e-02	2.321357438e-01	-8.618759109e-05	1.712193214e-11
-2.470000000e-02	2.321357348e-01	-8.383148401e-05	1.149877301e-11
-2.480000000e-02	2.321357258e-01	-8.147537745e-05	8.585225540e-12
-2.490000000e-02	2.321357167e-01	-7.911927144e-05	1.264619055e-11
-2.500000000e-02	2.321357076e-01	-7.676316596e-05	1.927328079e-11
-2.510000000e-02	2.321356984e-01	-7.440706103e-05	1.088856533e-11
-2.520000000e-02	2.321356891e-01	-7.205095664e-05	2.687009905e-11
-2.530000000e-02	2.321356797e-01	-6.969485281e-05	1.743868902e-11
-2.540000000e-02	2.321356703e-01	-6.733874953e-05	1.695212781e-11
-2.550000000e-02	2.321356607e-01	-6.498264680e-05	1.198596723e-11
-2.560000000e-02	2.321356512e-01	-6.262654464e-05	5.690258498e-12
-2.570000000e-02	2.321356415e-01	-6.027044305e-05	8.513512859e-12
-2.580000000e-02	2.321356318e-01	-5.791434202e-05	2.784393811e-11
-2.590000000e-02	2.321356220e-01	-5.555824157e-05	2.694341063e-11
-2.600000000e-02	2.321356121e-01	-5.320214168e-05	2.060786103e-11
-2.610000000e-02	2.321356021e-01	-5.084604239e-05	1.566543355e-11
-2.620000000e-02	2.321355921e-01	-4.848994367e-05	1.100027810e-11
-2.630000000e-02	2.321355820e-01	-4.613384554e-05	5.954366925e-11
-2.640000000e-02	2.321355719e-01	-4.377774801e-05	1.128530683e-11
-2.650000000e-02	2.321355617e-01	-4.142165106e-05	1.106575295e-11
-2.660000000e-02	2.321355514e-01	-3.906555471e-05	8.070853599e-12
-2.670000000e-02	2.321355410e-01	-3.670945897e-05	1.073593929e-11
-2.680000000e-02	2.321355305e-01	-3.435336383e-05	8.541074378e-12
-2.690000000e-02	2.321355200e-01	-3.199726930e-05	1.233764482e-11
-2.700000000e-02	2.321355094e-01	-2.964117538e-05	3.742053041e-11
-2.710000000e-02	2.321354988e-01	-2.728508208e-05	2.919620355e-11
-2.720000000e-02	2.321354880e-01	-2.492898940e-05	6.308000436e-11
-2.730000000e-02	2.321354772e-01	-2.257289734e-05	1.811327529e-11
-2.740000000e-02	2.321354663e-01	-2.021680591e-05	6.817502393e-12
-2.750000000e-02	2.321354554e-01	-1.786071510e-05	3.558338321e-11
-2.760000000e-02	2.321354444e-01	-1.550462494e-05	3.376143778e-11
-2.770000000e-02	2.321354333e-01	-1.314853541e-05	2.091092851e-11
-2.780000000e-02	2.321354221e-01	-1.079244653e-05	7.046829080e-11
-2.790000000e-02	2.321354109e-01	-8.436358277e-06	1.009192758e-11
-2.800000000e-02	2.321353996e-01	-6.080270681e-06	1.231719631e-11
-2.810000000e-02	2.321353882e-01	-3.724183739e-06	1.335659826e-11
-2.820000000e-02	2.321353768e-01	-1.368097455e-06	7.961560238e-12
-2.830000000e-02	2.321353652e-01	9.879881711e-07	1.284228793e-11
-2.840000000e-02	2.321353536e-01	3.344073133e-06	1.494421035e-11
-2.850000000e-02	2.321353420e-01	5.700157431e-06	1.368883536e-11
-2.860000000e-02	2.321353302e-01	8.056241054e-06	2.220526230e-11
-2.870000000e-02	2.321353184e-01	1.041232401e-05	1.525435504e-11
-2.880000000e-02	2.321353065e-01	1.276840628e-05	9.013404719e-12
-2.890000000e-02	2.321352946e-01	1.512448787e-05	1.066057040e-11
-2.900000000e-02	2.321352826e-01	1.748056878e-05	6.406157526e-11
-2.910000000e-02	2.321352705e-01	1.983664899e-05	8.752837791e-12
-2.920000000e-02	2.321352583e-01	2.219272853e-05	5.241290862e-11
-2.930000000e-02	2.321352461e-01	2.454880735e-05	8.950669825e-12
-2.940000000e-02	2.321352338e-01	2.690488548e-05	2.936873504e-11
-2.950000000e-02	2.321352214e-01	2.926096291e-05	9.791372474e-12
-2.960000000e-02	2.321352089e-01	3.161703963e-05	1.034098519e-11
-2.970000000e-02	2.321351964e-01	3.397311563e-05	9.927937092e-12
-2.980000000e-02	2.321351838e-01	3.632919093e-05	1.731618769e-11
-2.990000000e-02	2.321351711e-01	3.868526551e-05	8.433941406e-12
-3.000000000e-02	2.321351584e-01	4.104133936e-05	9.736862744e-12
