# Im(epsi1)     Re(omega/c)      Im(omega/c)      Eq(det).Opt det CON kz, R=0.5 \mum, mu_c=0.3, Re(epsi1)=3.90solve_det_conkz_vs_kz.py
0.000000000e+00	2.321484367e-01	-6.658439396e-04	1.453450745e-11
-1.000000000e-04	2.321484454e-01	-6.634877207e-04	2.812514581e-11
-2.000000000e-04	2.321484540e-01	-6.611315014e-04	1.357566783e-11
-3.000000000e-04	2.321484626e-01	-6.587752817e-04	3.038633796e-11
-4.000000000e-04	2.321484711e-01	-6.564190617e-04	2.246700282e-11
-5.000000000e-04	2.321484795e-01	-6.540628414e-04	9.304371777e-12
-6.000000000e-04	2.321484878e-01	-6.517066207e-04	9.267058194e-11
-7.000000000e-04	2.321484961e-01	-6.493503996e-04	2.620452361e-11
-8.000000000e-04	2.321485043e-01	-6.469941782e-04	1.770047847e-11
-9.000000000e-04	2.321485124e-01	-6.446379565e-04	1.177978093e-11
-1.000000000e-03	2.321485205e-01	-6.422817345e-04	2.075616215e-11
-1.100000000e-03	2.321485284e-01	-6.399255121e-04	4.077811636e-11
-1.200000000e-03	2.321485364e-01	-6.375692894e-04	1.588847351e-11
-1.300000000e-03	2.321485442e-01	-6.352130664e-04	6.585687488e-12
-1.400000000e-03	2.321485520e-01	-6.328568430e-04	1.160005531e-11
-1.500000000e-03	2.321485597e-01	-6.305006193e-04	1.518925171e-11
-1.600000000e-03	2.321485673e-01	-6.281443954e-04	8.655834028e-12
-1.700000000e-03	2.321485748e-01	-6.257881711e-04	1.103505358e-11
-1.800000000e-03	2.321485823e-01	-6.234319465e-04	1.755133158e-11
-1.900000000e-03	2.321485897e-01	-6.210757216e-04	8.771206630e-12
-2.000000000e-03	2.321485971e-01	-6.187194964e-04	1.101856240e-11
-2.100000000e-03	2.321486043e-01	-6.163632710e-04	1.661988119e-11
-2.200000000e-03	2.321486115e-01	-6.140070452e-04	8.764201391e-12
-2.300000000e-03	2.321486186e-01	-6.116508192e-04	4.379990230e-11
-2.400000000e-03	2.321486257e-01	-6.092945928e-04	7.766325917e-10
-2.500000000e-03	2.321486327e-01	-6.069383662e-04	1.255267085e-11
-2.600000000e-03	2.321486396e-01	-6.045821393e-04	1.427412730e-11
-2.700000000e-03	2.321486464e-01	-6.022259122e-04	7.181053184e-12
-2.800000000e-03	2.321486532e-01	-5.998696848e-04	1.176305716e-11
-2.900000000e-03	2.321486599e-01	-5.975134571e-04	1.992935060e-11
-3.000000000e-03	2.321486665e-01	-5.951572291e-04	1.273668204e-11
-3.100000000e-03	2.321486730e-01	-5.928010009e-04	1.193613235e-11
-3.200000000e-03	2.321486795e-01	-5.904447725e-04	1.056579562e-11
-3.300000000e-03	2.321486859e-01	-5.880885438e-04	1.926122176e-11
-3.400000000e-03	2.321486923e-01	-5.857323148e-04	6.449781144e-12
-3.500000000e-03	2.321486985e-01	-5.833760856e-04	8.830553040e-12
-3.600000000e-03	2.321487047e-01	-5.810198562e-04	3.201865902e-11
-3.700000000e-03	2.321487108e-01	-5.786636265e-04	7.646271575e-12
-3.800000000e-03	2.321487169e-01	-5.763073967e-04	2.229745988e-11
-3.900000000e-03	2.321487229e-01	-5.739511665e-04	1.038220065e-11
-4.000000000e-03	2.321487288e-01	-5.715949362e-04	2.103339684e-11
-4.100000000e-03	2.321487346e-01	-5.692387056e-04	1.828622645e-11
-4.200000000e-03	2.321487403e-01	-5.668824748e-04	1.177701644e-11
-4.300000000e-03	2.321487460e-01	-5.645262438e-04	9.262996098e-12
-4.400000000e-03	2.321487517e-01	-5.621700126e-04	1.099374949e-11
-4.500000000e-03	2.321487572e-01	-5.598137812e-04	2.102718859e-11
-4.600000000e-03	2.321487627e-01	-5.574575496e-04	9.925097364e-12
-4.700000000e-03	2.321487681e-01	-5.551013178e-04	9.634898407e-12
-4.800000000e-03	2.321487734e-01	-5.527450858e-04	1.484267687e-11
-4.900000000e-03	2.321487787e-01	-5.503888536e-04	2.455944400e-11
-5.000000000e-03	2.321487838e-01	-5.480326212e-04	1.841457153e-11
-5.100000000e-03	2.321487890e-01	-5.456763887e-04	8.018456958e-12
-5.200000000e-03	2.321487940e-01	-5.433201559e-04	4.535422783e-11
-5.300000000e-03	2.321487990e-01	-5.409639230e-04	1.311327395e-11
-5.400000000e-03	2.321488039e-01	-5.386076899e-04	2.190062175e-11
-5.500000000e-03	2.321488087e-01	-5.362514566e-04	1.514211459e-11
-5.600000000e-03	2.321488135e-01	-5.338952232e-04	3.340120021e-11
-5.700000000e-03	2.321488181e-01	-5.315389896e-04	3.196535852e-11
-5.800000000e-03	2.321488228e-01	-5.291827558e-04	1.554157333e-11
-5.900000000e-03	2.321488273e-01	-5.268265219e-04	9.511900196e-12
-6.000000000e-03	2.321488318e-01	-5.244702879e-04	1.528276264e-11
-6.100000000e-03	2.321488362e-01	-5.221140537e-04	1.843986345e-11
-6.200000000e-03	2.321488405e-01	-5.197578193e-04	1.795399880e-11
-6.300000000e-03	2.321488447e-01	-5.174015848e-04	2.040201556e-11
-6.400000000e-03	2.321488489e-01	-5.150453502e-04	1.286687808e-11
-6.500000000e-03	2.321488530e-01	-5.126891155e-04	1.376078519e-11
-6.600000000e-03	2.321488571e-01	-5.103328806e-04	1.202255699e-11
-6.700000000e-03	2.321488610e-01	-5.079766456e-04	2.772048076e-11
-6.800000000e-03	2.321488649e-01	-5.056204104e-04	1.660240278e-11
-6.900000000e-03	2.321488688e-01	-5.032641752e-04	2.072889818e-11
-7.000000000e-03	2.321488725e-01	-5.009079398e-04	9.848802380e-12
-7.100000000e-03	2.321488762e-01	-4.985517043e-04	8.318459688e-12
-7.200000000e-03	2.321488798e-01	-4.961954687e-04	4.462518769e-11
-7.300000000e-03	2.321488833e-01	-4.938392330e-04	3.863839107e-11
-7.400000000e-03	2.321488868e-01	-4.914829973e-04	1.287143411e-11
-7.500000000e-03	2.321488902e-01	-4.891267614e-04	2.225428039e-11
-7.600000000e-03	2.321488935e-01	-4.867705254e-04	1.291305064e-11
-7.700000000e-03	2.321488968e-01	-4.844142893e-04	8.904794643e-12
-7.800000000e-03	2.321489000e-01	-4.820580532e-04	1.830187468e-11
-7.900000000e-03	2.321489031e-01	-4.797018169e-04	5.231112818e-11
-8.000000000e-03	2.321489061e-01	-4.773455806e-04	6.555787708e-12
-8.100000000e-03	2.321489091e-01	-4.749893442e-04	1.491115473e-11
-8.200000000e-03	2.321489119e-01	-4.726331078e-04	8.573309932e-12
-8.300000000e-03	2.321489148e-01	-4.702768712e-04	1.864005988e-11
-8.400000000e-03	2.321489175e-01	-4.679206346e-04	1.078123912e-11
-8.500000000e-03	2.321489202e-01	-4.655643980e-04	5.680633364e-12
-8.600000000e-03	2.321489228e-01	-4.632081613e-04	1.477852308e-11
-8.700000000e-03	2.321489253e-01	-4.608519245e-04	2.288583633e-11
-8.800000000e-03	2.321489278e-01	-4.584956877e-04	1.746755159e-11
-8.900000000e-03	2.321489302e-01	-4.561394509e-04	9.254054936e-12
-9.000000000e-03	2.321489325e-01	-4.537832140e-04	8.361410005e-12
-9.100000000e-03	2.321489347e-01	-4.514269770e-04	1.043024607e-11
-9.200000000e-03	2.321489369e-01	-4.490707400e-04	1.131993150e-11
-9.300000000e-03	2.321489390e-01	-4.467145030e-04	3.812335715e-11
-9.400000000e-03	2.321489411e-01	-4.443582660e-04	1.374145448e-11
-9.500000000e-03	2.321489430e-01	-4.420020290e-04	1.390331879e-11
-9.600000000e-03	2.321489449e-01	-4.396457919e-04	1.146285221e-10
-9.700000000e-03	2.321489467e-01	-4.372895548e-04	7.267572264e-12
-9.800000000e-03	2.321489485e-01	-4.349333177e-04	1.626124734e-11
-9.900000000e-03	2.321489501e-01	-4.325770806e-04	1.618479798e-11
-1.000000000e-02	2.321489517e-01	-4.302208435e-04	7.881187229e-12
-1.010000000e-02	2.321489533e-01	-4.278646063e-04	1.926302691e-11
-1.020000000e-02	2.321489547e-01	-4.255083692e-04	1.497514271e-11
-1.030000000e-02	2.321489561e-01	-4.231521321e-04	1.061996682e-11
-1.040000000e-02	2.321489574e-01	-4.207958950e-04	1.103377554e-11
-1.050000000e-02	2.321489587e-01	-4.184396579e-04	2.895082051e-11
-1.060000000e-02	2.321489598e-01	-4.160834208e-04	7.871252702e-12
-1.070000000e-02	2.321489609e-01	-4.137271838e-04	1.331184972e-11
-1.080000000e-02	2.321489620e-01	-4.113709468e-04	8.119829743e-12
-1.090000000e-02	2.321489629e-01	-4.090147098e-04	5.890746449e-12
-1.100000000e-02	2.321489638e-01	-4.066584728e-04	1.107633887e-11
-1.110000000e-02	2.321489646e-01	-4.043022358e-04	1.882033689e-11
-1.120000000e-02	2.321489654e-01	-4.019459989e-04	1.401043437e-11
-1.130000000e-02	2.321489660e-01	-3.995897621e-04	2.463017267e-11
-1.140000000e-02	2.321489666e-01	-3.972335253e-04	1.088230866e-11
-1.150000000e-02	2.321489671e-01	-3.948772885e-04	2.433482509e-11
-1.160000000e-02	2.321489676e-01	-3.925210518e-04	1.729769378e-11
-1.170000000e-02	2.321489680e-01	-3.901648151e-04	3.372658662e-11
-1.180000000e-02	2.321489683e-01	-3.878085785e-04	7.971252613e-12
-1.190000000e-02	2.321489685e-01	-3.854523420e-04	1.119126906e-11
-1.200000000e-02	2.321489687e-01	-3.830961055e-04	1.395930626e-11
-1.210000000e-02	2.321489688e-01	-3.807398691e-04	1.985427293e-11
-1.220000000e-02	2.321489688e-01	-3.783836328e-04	4.572146424e-11
-1.230000000e-02	2.321489688e-01	-3.760273966e-04	3.156802827e-11
-1.240000000e-02	2.321489686e-01	-3.736711604e-04	1.672188454e-11
-1.250000000e-02	2.321489685e-01	-3.713149243e-04	1.563393084e-11
-1.260000000e-02	2.321489682e-01	-3.689586883e-04	1.132126709e-11
-1.270000000e-02	2.321489679e-01	-3.666024525e-04	6.548835763e-11
-1.280000000e-02	2.321489674e-01	-3.642462167e-04	8.633748286e-12
-1.290000000e-02	2.321489670e-01	-3.618899810e-04	1.124862377e-11
-1.300000000e-02	2.321489664e-01	-3.595337454e-04	1.059735045e-11
-1.310000000e-02	2.321489658e-01	-3.571775099e-04	6.778650247e-11
-1.320000000e-02	2.321489651e-01	-3.548212745e-04	3.253044885e-11
-1.330000000e-02	2.321489643e-01	-3.524650392e-04	1.041414626e-10
-1.340000000e-02	2.321489635e-01	-3.501088041e-04	2.408805734e-11
-1.350000000e-02	2.321489626e-01	-3.477525691e-04	2.020010145e-11
-1.360000000e-02	2.321489616e-01	-3.453963342e-04	9.837132288e-12
-1.370000000e-02	2.321489606e-01	-3.430400994e-04	8.572148230e-12
-1.380000000e-02	2.321489594e-01	-3.406838648e-04	4.526636124e-11
-1.390000000e-02	2.321489582e-01	-3.383276303e-04	4.081920848e-11
-1.400000000e-02	2.321489570e-01	-3.359713959e-04	4.356712246e-11
-1.410000000e-02	2.321489556e-01	-3.336151617e-04	1.479107520e-11
-1.420000000e-02	2.321489542e-01	-3.312589276e-04	2.984555971e-11
-1.430000000e-02	2.321489527e-01	-3.289026937e-04	1.264917066e-11
-1.440000000e-02	2.321489512e-01	-3.265464599e-04	8.235604480e-12
-1.450000000e-02	2.321489496e-01	-3.241902263e-04	9.049624963e-12
-1.460000000e-02	2.321489479e-01	-3.218339929e-04	1.352903724e-11
-1.470000000e-02	2.321489461e-01	-3.194777596e-04	9.566310812e-12
-1.480000000e-02	2.321489443e-01	-3.171215265e-04	1.178787160e-11
-1.490000000e-02	2.321489423e-01	-3.147652935e-04	1.061265232e-11
-1.500000000e-02	2.321489404e-01	-3.124090608e-04	1.195720280e-11
-1.510000000e-02	2.321489383e-01	-3.100528282e-04	6.136909152e-12
-1.520000000e-02	2.321489362e-01	-3.076965958e-04	7.501448371e-12
-1.530000000e-02	2.321489340e-01	-3.053403636e-04	1.697395944e-11
-1.540000000e-02	2.321489317e-01	-3.029841315e-04	2.001837942e-11
-1.550000000e-02	2.321489294e-01	-3.006278997e-04	1.213682629e-11
-1.560000000e-02	2.321489269e-01	-2.982716681e-04	1.291042440e-11
-1.570000000e-02	2.321489245e-01	-2.959154367e-04	9.581608440e-12
-1.580000000e-02	2.321489219e-01	-2.935592054e-04	1.103893226e-11
-1.590000000e-02	2.321489193e-01	-2.912029744e-04	6.102445064e-12
-1.600000000e-02	2.321489166e-01	-2.888467436e-04	2.038216686e-11
-1.610000000e-02	2.321489138e-01	-2.864905130e-04	9.131666586e-12
-1.620000000e-02	2.321489109e-01	-2.841342827e-04	4.804307508e-12
-1.630000000e-02	2.321489080e-01	-2.817780525e-04	1.438671837e-11
-1.640000000e-02	2.321489050e-01	-2.794218226e-04	2.936622037e-11
-1.650000000e-02	2.321489020e-01	-2.770655929e-04	2.478572030e-11
-1.660000000e-02	2.321488989e-01	-2.747093635e-04	1.073193255e-11
-1.670000000e-02	2.321488956e-01	-2.723531343e-04	1.481094734e-11
-1.680000000e-02	2.321488924e-01	-2.699969053e-04	1.832389576e-11
-1.690000000e-02	2.321488890e-01	-2.676406766e-04	1.143421379e-10
-1.700000000e-02	2.321488856e-01	-2.652844481e-04	8.979710792e-11
-1.710000000e-02	2.321488821e-01	-2.629282199e-04	1.197021897e-11
-1.720000000e-02	2.321488786e-01	-2.605719919e-04	2.379040778e-11
-1.730000000e-02	2.321488749e-01	-2.582157642e-04	3.818986499e-11
-1.740000000e-02	2.321488712e-01	-2.558595367e-04	2.922821656e-11
-1.750000000e-02	2.321488674e-01	-2.535033096e-04	1.667720767e-11
-1.760000000e-02	2.321488636e-01	-2.511470827e-04	9.262188808e-12
-1.770000000e-02	2.321488597e-01	-2.487908560e-04	6.205264972e-12
-1.780000000e-02	2.321488557e-01	-2.464346297e-04	2.835740029e-11
-1.790000000e-02	2.321488516e-01	-2.440784036e-04	3.776499289e-11
-1.800000000e-02	2.321488475e-01	-2.417221778e-04	1.290703469e-11
-1.810000000e-02	2.321488433e-01	-2.393659523e-04	1.202695927e-11
-1.820000000e-02	2.321488390e-01	-2.370097271e-04	2.005052910e-11
-1.830000000e-02	2.321488346e-01	-2.346535022e-04	2.807778878e-11
-1.840000000e-02	2.321488302e-01	-2.322972776e-04	1.115766923e-11
-1.850000000e-02	2.321488257e-01	-2.299410533e-04	1.467684496e-11
-1.860000000e-02	2.321488212e-01	-2.275848293e-04	1.663406694e-11
-1.870000000e-02	2.321488165e-01	-2.252286056e-04	1.225257650e-11
-1.880000000e-02	2.321488118e-01	-2.228723822e-04	5.786648889e-12
-1.890000000e-02	2.321488070e-01	-2.205161592e-04	1.017842693e-11
-1.900000000e-02	2.321488022e-01	-2.181599364e-04	9.406900743e-12
-1.910000000e-02	2.321487972e-01	-2.158037140e-04	1.276292776e-11
-1.920000000e-02	2.321487923e-01	-2.134474919e-04	2.658394054e-11
-1.930000000e-02	2.321487872e-01	-2.110912702e-04	1.086609178e-11
-1.940000000e-02	2.321487820e-01	-2.087350488e-04	3.615905059e-11
-1.950000000e-02	2.321487768e-01	-2.063788277e-04	8.095152928e-12
-1.960000000e-02	2.321487716e-01	-2.040226070e-04	1.485610459e-11
-1.970000000e-02	2.321487662e-01	-2.016663866e-04	9.203770329e-12
-1.980000000e-02	2.321487608e-01	-1.993101665e-04	1.244651836e-11
-1.990000000e-02	2.321487553e-01	-1.969539469e-04	7.517608644e-12
-2.000000000e-02	2.321487497e-01	-1.945977275e-04	1.789902106e-11
-2.010000000e-02	2.321487441e-01	-1.922415086e-04	7.321369797e-11
-2.020000000e-02	2.321487383e-01	-1.898852900e-04	3.121738455e-11
-2.030000000e-02	2.321487326e-01	-1.875290718e-04	1.512405019e-11
-2.040000000e-02	2.321487267e-01	-1.851728539e-04	9.713969625e-12
-2.050000000e-02	2.321487208e-01	-1.828166364e-04	2.121745466e-11
-2.060000000e-02	2.321487148e-01	-1.804604193e-04	1.532142060e-11
-2.070000000e-02	2.321487087e-01	-1.781042026e-04	2.023166560e-11
-2.080000000e-02	2.321487026e-01	-1.757479863e-04	5.179280840e-12
-2.090000000e-02	2.321486963e-01	-1.733917704e-04	6.386273457e-12
-2.100000000e-02	2.321486901e-01	-1.710355548e-04	1.152771306e-11
-2.110000000e-02	2.321486837e-01	-1.686793397e-04	6.796675995e-12
-2.120000000e-02	2.321486773e-01	-1.663231249e-04	2.215141272e-11
-2.130000000e-02	2.321486708e-01	-1.639669106e-04	2.522965663e-11
-2.140000000e-02	2.321486642e-01	-1.616106967e-04	1.684682935e-11
-2.150000000e-02	2.321486575e-01	-1.592544832e-04	3.023324023e-11
-2.160000000e-02	2.321486508e-01	-1.568982701e-04	1.614111205e-11
-2.170000000e-02	2.321486440e-01	-1.545420574e-04	7.848321795e-12
-2.180000000e-02	2.321486372e-01	-1.521858451e-04	7.922263043e-12
-2.190000000e-02	2.321486302e-01	-1.498296333e-04	1.396334545e-11
-2.200000000e-02	2.321486232e-01	-1.474734219e-04	8.510614823e-12
-2.210000000e-02	2.321486162e-01	-1.451172109e-04	1.891280436e-11
-2.220000000e-02	2.321486090e-01	-1.427610004e-04	4.004577594e-11
-2.230000000e-02	2.321486018e-01	-1.404047903e-04	3.122981352e-11
-2.240000000e-02	2.321485945e-01	-1.380485807e-04	9.034680336e-12
-2.250000000e-02	2.321485871e-01	-1.356923715e-04	1.854168052e-11
-2.260000000e-02	2.321485797e-01	-1.333361628e-04	9.816896271e-12
-2.270000000e-02	2.321485722e-01	-1.309799545e-04	9.036685029e-12
-2.280000000e-02	2.321485646e-01	-1.286237467e-04	1.081330878e-11
-2.290000000e-02	2.321485570e-01	-1.262675393e-04	3.954466440e-11
-2.300000000e-02	2.321485493e-01	-1.239113324e-04	6.502414577e-12
-2.310000000e-02	2.321485415e-01	-1.215551260e-04	8.999138785e-12
-2.320000000e-02	2.321485336e-01	-1.191989200e-04	8.466695545e-12
-2.330000000e-02	2.321485257e-01	-1.168427146e-04	1.692482380e-11
-2.340000000e-02	2.321485177e-01	-1.144865096e-04	2.685386137e-11
-2.350000000e-02	2.321485096e-01	-1.121303051e-04	9.807326891e-12
-2.360000000e-02	2.321485014e-01	-1.097741011e-04	1.168021963e-11
-2.370000000e-02	2.321484932e-01	-1.074178975e-04	1.146414469e-11
-2.380000000e-02	2.321484849e-01	-1.050616945e-04	8.999058153e-12
-2.390000000e-02	2.321484765e-01	-1.027054920e-04	1.534962723e-11
-2.400000000e-02	2.321484681e-01	-1.003492900e-04	7.245441684e-12
-2.410000000e-02	2.321484596e-01	-9.799308846e-05	1.335705405e-11
-2.420000000e-02	2.321484510e-01	-9.563688745e-05	8.932718202e-12
-2.430000000e-02	2.321484424e-01	-9.328068696e-05	1.407769532e-11
-2.440000000e-02	2.321484336e-01	-9.092448699e-05	6.684106970e-12
-2.450000000e-02	2.321484248e-01	-8.856828754e-05	2.323501941e-11
-2.460000000e-02	2.321484160e-01	-8.621208862e-05	1.832463303e-11
-2.470000000e-02	2.321484070e-01	-8.385589022e-05	7.148136635e-12
-2.480000000e-02	2.321483980e-01	-8.149969235e-05	1.395904283e-11
-2.490000000e-02	2.321483889e-01	-7.914349503e-05	1.523136991e-11
-2.500000000e-02	2.321483798e-01	-7.678729824e-05	4.685429314e-11
-2.510000000e-02	2.321483706e-01	-7.443110199e-05	8.104821073e-12
-2.520000000e-02	2.321483613e-01	-7.207490629e-05	1.592188786e-11
-2.530000000e-02	2.321483519e-01	-6.971871114e-05	1.888361085e-11
-2.540000000e-02	2.321483424e-01	-6.736251655e-05	2.516019688e-11
-2.550000000e-02	2.321483329e-01	-6.500632251e-05	2.777901893e-11
-2.560000000e-02	2.321483233e-01	-6.265012904e-05	2.063782551e-11
-2.570000000e-02	2.321483137e-01	-6.029393613e-05	6.436472877e-12
-2.580000000e-02	2.321483040e-01	-5.793774379e-05	3.766877764e-11
-2.590000000e-02	2.321482942e-01	-5.558155202e-05	1.325778622e-11
-2.600000000e-02	2.321482843e-01	-5.322536083e-05	2.298206649e-11
-2.610000000e-02	2.321482743e-01	-5.086917022e-05	2.813202558e-11
-2.620000000e-02	2.321482643e-01	-4.851298019e-05	1.609067101e-11
-2.630000000e-02	2.321482542e-01	-4.615679075e-05	1.477821021e-11
-2.640000000e-02	2.321482441e-01	-4.380060189e-05	1.352012963e-11
-2.650000000e-02	2.321482338e-01	-4.144441364e-05	7.257315423e-12
-2.660000000e-02	2.321482235e-01	-3.908822598e-05	1.398772083e-11
-2.670000000e-02	2.321482132e-01	-3.673203892e-05	9.708935100e-12
-2.680000000e-02	2.321482027e-01	-3.437585247e-05	1.834561602e-11
-2.690000000e-02	2.321481922e-01	-3.201966662e-05	1.307902219e-11
-2.700000000e-02	2.321481816e-01	-2.966348139e-05	2.239424779e-11
-2.710000000e-02	2.321481710e-01	-2.730729678e-05	1.301387036e-11
-2.720000000e-02	2.321481602e-01	-2.495111278e-05	3.252079944e-11
-2.730000000e-02	2.321481494e-01	-2.259492941e-05	1.517576927e-11
-2.740000000e-02	2.321481385e-01	-2.023874666e-05	1.026937963e-11
-2.750000000e-02	2.321481276e-01	-1.788256455e-05	5.602610308e-12
-2.760000000e-02	2.321481166e-01	-1.552638306e-05	1.723740728e-11
-2.770000000e-02	2.321481055e-01	-1.317020222e-05	9.423762689e-12
-2.780000000e-02	2.321480943e-01	-1.081402202e-05	1.780781746e-11
-2.790000000e-02	2.321480831e-01	-8.457842463e-06	1.503036815e-11
-2.800000000e-02	2.321480718e-01	-6.101663554e-06	3.352821511e-11
-2.810000000e-02	2.321480604e-01	-3.745485301e-06	2.164974038e-11
-2.820000000e-02	2.321480490e-01	-1.389307700e-06	1.871196349e-11
-2.830000000e-02	2.321480374e-01	9.668692382e-07	1.822157929e-11
-2.840000000e-02	2.321480258e-01	3.323045516e-06	6.192477283e-12
-2.850000000e-02	2.321480142e-01	5.679221126e-06	1.248229329e-11
-2.860000000e-02	2.321480024e-01	8.035396064e-06	5.697688621e-12
-2.870000000e-02	2.321479906e-01	1.039157033e-05	1.093183460e-11
-2.880000000e-02	2.321479787e-01	1.274774392e-05	1.383912094e-11
-2.890000000e-02	2.321479668e-01	1.510391682e-05	6.936380092e-12
-2.900000000e-02	2.321479548e-01	1.746008904e-05	5.768697340e-12
-2.910000000e-02	2.321479427e-01	1.981626057e-05	9.193122165e-12
-2.920000000e-02	2.321479305e-01	2.217243142e-05	9.940736637e-11
-2.930000000e-02	2.321479183e-01	2.452860156e-05	1.378477647e-11
-2.940000000e-02	2.321479060e-01	2.688477100e-05	7.297792533e-12
-2.950000000e-02	2.321478936e-01	2.924093974e-05	1.710898912e-11
-2.960000000e-02	2.321478811e-01	3.159710778e-05	3.694374196e-11
-2.970000000e-02	2.321478686e-01	3.395327510e-05	1.127623498e-11
-2.980000000e-02	2.321478560e-01	3.630944171e-05	4.530453536e-12
-2.990000000e-02	2.321478433e-01	3.866560760e-05	6.465175689e-12
-3.000000000e-02	2.321478306e-01	4.102177277e-05	7.261160607e-12
