# Im(epsi1)     Re(omega/c)      Im(omega/c)      Eq(det).Opt det CON kz, R=0.5 \mum, mu_c=0.3, Re(epsi1)=3.90solve_det_conkz_vs_kz.py
0.000000000e+00	2.321586950e-01	-6.658819491e-04	8.843043418e-12
-1.000000000e-04	2.321587037e-01	-6.635256563e-04	1.595631250e-11
-2.000000000e-04	2.321587123e-01	-6.611693630e-04	2.884881577e-11
-3.000000000e-04	2.321587208e-01	-6.588130695e-04	3.297660572e-11
-4.000000000e-04	2.321587293e-01	-6.564567755e-04	1.005868353e-11
-5.000000000e-04	2.321587377e-01	-6.541004812e-04	2.036714319e-11
-6.000000000e-04	2.321587461e-01	-6.517441866e-04	3.225772249e-10
-7.000000000e-04	2.321587544e-01	-6.493878916e-04	8.219049479e-12
-8.000000000e-04	2.321587626e-01	-6.470315963e-04	1.281007997e-11
-9.000000000e-04	2.321587707e-01	-6.446753006e-04	1.578394344e-11
-1.000000000e-03	2.321587787e-01	-6.423190047e-04	1.094781988e-11
-1.100000000e-03	2.321587867e-01	-6.399627083e-04	6.586271472e-12
-1.200000000e-03	2.321587946e-01	-6.376064117e-04	2.584845400e-11
-1.300000000e-03	2.321588025e-01	-6.352501147e-04	1.235340435e-11
-1.400000000e-03	2.321588102e-01	-6.328938174e-04	1.349645031e-11
-1.500000000e-03	2.321588179e-01	-6.305375198e-04	1.982160708e-11
-1.600000000e-03	2.321588256e-01	-6.281812219e-04	8.009165855e-12
-1.700000000e-03	2.321588331e-01	-6.258249237e-04	9.751946642e-12
-1.800000000e-03	2.321588406e-01	-6.234686252e-04	7.953585447e-12
-1.900000000e-03	2.321588480e-01	-6.211123264e-04	1.348101213e-11
-2.000000000e-03	2.321588553e-01	-6.187560273e-04	7.002998730e-12
-2.100000000e-03	2.321588626e-01	-6.163997278e-04	1.460313143e-11
-2.200000000e-03	2.321588698e-01	-6.140434281e-04	5.525818437e-12
-2.300000000e-03	2.321588769e-01	-6.116871282e-04	9.277478122e-12
-2.400000000e-03	2.321588840e-01	-6.093308279e-04	2.156311718e-11
-2.500000000e-03	2.321588910e-01	-6.069745273e-04	2.929855450e-12
-2.600000000e-03	2.321588979e-01	-6.046182265e-04	8.202962062e-12
-2.700000000e-03	2.321589047e-01	-6.022619254e-04	5.544332678e-12
-2.800000000e-03	2.321589115e-01	-5.999056241e-04	1.637574636e-11
-2.900000000e-03	2.321589182e-01	-5.975493225e-04	2.711216286e-11
-3.000000000e-03	2.321589248e-01	-5.951930206e-04	3.231104210e-11
-3.100000000e-03	2.321589313e-01	-5.928367184e-04	8.951534998e-12
-3.200000000e-03	2.321589378e-01	-5.904804160e-04	1.063082120e-11
-3.300000000e-03	2.321589442e-01	-5.881241134e-04	1.744138326e-11
-3.400000000e-03	2.321589505e-01	-5.857678105e-04	2.716903186e-11
-3.500000000e-03	2.321589568e-01	-5.834115074e-04	7.320927969e-12
-3.600000000e-03	2.321589630e-01	-5.810552040e-04	1.416504146e-11
-3.700000000e-03	2.321589691e-01	-5.786989004e-04	1.113164137e-11
-3.800000000e-03	2.321589752e-01	-5.763425966e-04	1.316773784e-11
-3.900000000e-03	2.321589811e-01	-5.739862925e-04	1.407163972e-11
-4.000000000e-03	2.321589870e-01	-5.716299882e-04	1.871983463e-11
-4.100000000e-03	2.321589929e-01	-5.692736837e-04	7.922647405e-12
-4.200000000e-03	2.321589986e-01	-5.669173790e-04	1.299150600e-11
-4.300000000e-03	2.321590043e-01	-5.645610741e-04	6.086511465e-12
-4.400000000e-03	2.321590099e-01	-5.622047689e-04	1.181532527e-11
-4.500000000e-03	2.321590155e-01	-5.598484636e-04	1.999513345e-11
-4.600000000e-03	2.321590210e-01	-5.574921580e-04	3.413429632e-11
-4.700000000e-03	2.321590264e-01	-5.551358523e-04	9.660267190e-12
-4.800000000e-03	2.321590317e-01	-5.527795464e-04	5.337180686e-11
-4.900000000e-03	2.321590370e-01	-5.504232402e-04	7.903271352e-11
-5.000000000e-03	2.321590421e-01	-5.480669339e-04	1.104215788e-11
-5.100000000e-03	2.321590473e-01	-5.457106274e-04	6.000419959e-11
-5.200000000e-03	2.321590523e-01	-5.433543207e-04	9.129296490e-12
-5.300000000e-03	2.321590573e-01	-5.409980138e-04	4.614853380e-12
-5.400000000e-03	2.321590622e-01	-5.386417068e-04	9.192370711e-12
-5.500000000e-03	2.321590670e-01	-5.362853996e-04	2.856355351e-11
-5.600000000e-03	2.321590718e-01	-5.339290922e-04	8.647694745e-12
-5.700000000e-03	2.321590764e-01	-5.315727847e-04	9.099507076e-12
-5.800000000e-03	2.321590811e-01	-5.292164770e-04	1.167349042e-11
-5.900000000e-03	2.321590856e-01	-5.268601692e-04	1.165070257e-11
-6.000000000e-03	2.321590901e-01	-5.245038612e-04	9.159608746e-12
-6.100000000e-03	2.321590945e-01	-5.221475530e-04	1.871583833e-11
-6.200000000e-03	2.321590988e-01	-5.197912448e-04	2.029448738e-11
-6.300000000e-03	2.321591031e-01	-5.174349363e-04	4.294008948e-11
-6.400000000e-03	2.321591072e-01	-5.150786278e-04	1.544358332e-11
-6.500000000e-03	2.321591113e-01	-5.127223191e-04	5.892003621e-12
-6.600000000e-03	2.321591154e-01	-5.103660102e-04	4.819142559e-11
-6.700000000e-03	2.321591194e-01	-5.080097013e-04	9.634145384e-12
-6.800000000e-03	2.321591233e-01	-5.056533922e-04	1.734328593e-11
-6.900000000e-03	2.321591271e-01	-5.032970830e-04	7.957406740e-12
-7.000000000e-03	2.321591308e-01	-5.009407737e-04	4.585793603e-11
-7.100000000e-03	2.321591345e-01	-4.985844643e-04	2.624300286e-11
-7.200000000e-03	2.321591381e-01	-4.962281548e-04	8.346124003e-12
-7.300000000e-03	2.321591417e-01	-4.938718451e-04	1.090405470e-11
-7.400000000e-03	2.321591451e-01	-4.915155354e-04	7.170418875e-12
-7.500000000e-03	2.321591485e-01	-4.891592256e-04	8.678116059e-12
-7.600000000e-03	2.321591518e-01	-4.868029157e-04	6.032079730e-12
-7.700000000e-03	2.321591551e-01	-4.844466057e-04	1.072354157e-11
-7.800000000e-03	2.321591583e-01	-4.820902956e-04	6.421134751e-12
-7.900000000e-03	2.321591614e-01	-4.797339854e-04	1.021879038e-11
-8.000000000e-03	2.321591644e-01	-4.773776751e-04	8.452500111e-12
-8.100000000e-03	2.321591674e-01	-4.750213648e-04	1.410607909e-11
-8.200000000e-03	2.321591703e-01	-4.726650544e-04	1.575294837e-11
-8.300000000e-03	2.321591731e-01	-4.703087440e-04	1.514451493e-11
-8.400000000e-03	2.321591758e-01	-4.679524334e-04	8.665503715e-12
-8.500000000e-03	2.321591785e-01	-4.655961228e-04	1.145501864e-11
-8.600000000e-03	2.321591811e-01	-4.632398122e-04	1.647618828e-11
-8.700000000e-03	2.321591837e-01	-4.608835015e-04	6.226216762e-12
-8.800000000e-03	2.321591861e-01	-4.585271907e-04	1.211347230e-11
-8.900000000e-03	2.321591885e-01	-4.561708799e-04	2.112807263e-11
-9.000000000e-03	2.321591908e-01	-4.538145691e-04	3.417488760e-11
-9.100000000e-03	2.321591931e-01	-4.514582582e-04	7.961059888e-12
-9.200000000e-03	2.321591952e-01	-4.491019473e-04	9.950401289e-12
-9.300000000e-03	2.321591974e-01	-4.467456364e-04	1.078640637e-11
-9.400000000e-03	2.321591994e-01	-4.443893254e-04	5.280203924e-12
-9.500000000e-03	2.321592013e-01	-4.420330144e-04	8.521985190e-12
-9.600000000e-03	2.321592032e-01	-4.396767034e-04	1.312852334e-11
-9.700000000e-03	2.321592050e-01	-4.373203924e-04	1.184122893e-11
-9.800000000e-03	2.321592068e-01	-4.349640813e-04	9.116012524e-12
-9.900000000e-03	2.321592085e-01	-4.326077703e-04	1.852023957e-11
-1.000000000e-02	2.321592101e-01	-4.302514592e-04	1.179948721e-11
-1.010000000e-02	2.321592116e-01	-4.278951482e-04	3.209535783e-11
-1.020000000e-02	2.321592131e-01	-4.255388371e-04	3.224269836e-11
-1.030000000e-02	2.321592144e-01	-4.231825261e-04	8.183597435e-12
-1.040000000e-02	2.321592158e-01	-4.208262150e-04	2.249254744e-11
-1.050000000e-02	2.321592170e-01	-4.184699040e-04	1.095167140e-11
-1.060000000e-02	2.321592182e-01	-4.161135930e-04	1.068605232e-11
-1.070000000e-02	2.321592193e-01	-4.137572820e-04	2.037020260e-11
-1.080000000e-02	2.321592203e-01	-4.114009710e-04	5.097374809e-12
-1.090000000e-02	2.321592213e-01	-4.090446601e-04	1.641006392e-11
-1.100000000e-02	2.321592221e-01	-4.066883491e-04	1.082119706e-11
-1.110000000e-02	2.321592230e-01	-4.043320383e-04	2.031936473e-11
-1.120000000e-02	2.321592237e-01	-4.019757274e-04	1.559683770e-11
-1.130000000e-02	2.321592244e-01	-3.996194166e-04	1.316965328e-11
-1.140000000e-02	2.321592250e-01	-3.972631059e-04	1.114676348e-11
-1.150000000e-02	2.321592255e-01	-3.949067952e-04	8.644352582e-12
-1.160000000e-02	2.321592259e-01	-3.925504845e-04	1.128667461e-11
-1.170000000e-02	2.321592263e-01	-3.901941739e-04	2.911115838e-11
-1.180000000e-02	2.321592266e-01	-3.878378634e-04	1.287833190e-11
-1.190000000e-02	2.321592269e-01	-3.854815529e-04	1.214092291e-11
-1.200000000e-02	2.321592270e-01	-3.831252425e-04	2.761875321e-11
-1.210000000e-02	2.321592271e-01	-3.807689322e-04	7.189973723e-12
-1.220000000e-02	2.321592272e-01	-3.784126219e-04	6.251246128e-12
-1.230000000e-02	2.321592271e-01	-3.760563117e-04	1.524154272e-11
-1.240000000e-02	2.321592270e-01	-3.737000016e-04	9.660032427e-12
-1.250000000e-02	2.321592268e-01	-3.713436916e-04	1.107123417e-11
-1.260000000e-02	2.321592265e-01	-3.689873817e-04	7.435304242e-12
-1.270000000e-02	2.321592262e-01	-3.666310718e-04	7.735700850e-12
-1.280000000e-02	2.321592258e-01	-3.642747621e-04	6.658410183e-11
-1.290000000e-02	2.321592253e-01	-3.619184525e-04	1.163184404e-11
-1.300000000e-02	2.321592248e-01	-3.595621429e-04	1.382508416e-11
-1.310000000e-02	2.321592241e-01	-3.572058335e-04	2.584333840e-11
-1.320000000e-02	2.321592235e-01	-3.548495242e-04	1.712364374e-11
-1.330000000e-02	2.321592227e-01	-3.524932150e-04	6.512254194e-12
-1.340000000e-02	2.321592218e-01	-3.501369059e-04	4.791568980e-12
-1.350000000e-02	2.321592209e-01	-3.477805969e-04	7.516879476e-11
-1.360000000e-02	2.321592200e-01	-3.454242881e-04	1.404864627e-11
-1.370000000e-02	2.321592189e-01	-3.430679794e-04	6.334250820e-12
-1.380000000e-02	2.321592178e-01	-3.407116708e-04	6.429292476e-12
-1.390000000e-02	2.321592166e-01	-3.383553624e-04	1.173656112e-11
-1.400000000e-02	2.321592153e-01	-3.359990541e-04	3.585970331e-11
-1.410000000e-02	2.321592140e-01	-3.336427459e-04	1.609699211e-11
-1.420000000e-02	2.321592126e-01	-3.312864379e-04	1.449894291e-11
-1.430000000e-02	2.321592111e-01	-3.289301300e-04	1.939094834e-11
-1.440000000e-02	2.321592095e-01	-3.265738223e-04	2.323165297e-11
-1.450000000e-02	2.321592079e-01	-3.242175148e-04	1.177296382e-11
-1.460000000e-02	2.321592062e-01	-3.218612074e-04	1.260883188e-11
-1.470000000e-02	2.321592044e-01	-3.195049002e-04	1.514558889e-11
-1.480000000e-02	2.321592026e-01	-3.171485931e-04	4.587159548e-11
-1.490000000e-02	2.321592007e-01	-3.147922862e-04	1.476625884e-11
-1.500000000e-02	2.321591987e-01	-3.124359795e-04	8.325569290e-12
-1.510000000e-02	2.321591967e-01	-3.100796730e-04	1.018991985e-11
-1.520000000e-02	2.321591945e-01	-3.077233667e-04	1.401867696e-11
-1.530000000e-02	2.321591923e-01	-3.053670605e-04	3.755842616e-11
-1.540000000e-02	2.321591901e-01	-3.030107546e-04	6.505299605e-12
-1.550000000e-02	2.321591877e-01	-3.006544488e-04	2.173595501e-11
-1.560000000e-02	2.321591853e-01	-2.982981432e-04	1.264911477e-11
-1.570000000e-02	2.321591828e-01	-2.959418379e-04	6.848337583e-12
-1.580000000e-02	2.321591803e-01	-2.935855327e-04	3.878716288e-11
-1.590000000e-02	2.321591776e-01	-2.912292277e-04	1.223837484e-11
-1.600000000e-02	2.321591749e-01	-2.888729230e-04	8.123489182e-12
-1.610000000e-02	2.321591722e-01	-2.865166185e-04	1.396150459e-11
-1.620000000e-02	2.321591693e-01	-2.841603142e-04	1.555769377e-11
-1.630000000e-02	2.321591664e-01	-2.818040101e-04	9.423169131e-12
-1.640000000e-02	2.321591634e-01	-2.794477062e-04	1.293603013e-11
-1.650000000e-02	2.321591603e-01	-2.770914026e-04	4.987827018e-12
-1.660000000e-02	2.321591572e-01	-2.747350992e-04	7.083705522e-12
-1.670000000e-02	2.321591540e-01	-2.723787961e-04	1.403296285e-11
-1.680000000e-02	2.321591507e-01	-2.700224931e-04	1.173616017e-11
-1.690000000e-02	2.321591474e-01	-2.676661905e-04	1.323557756e-11
-1.700000000e-02	2.321591440e-01	-2.653098881e-04	7.537647866e-12
-1.710000000e-02	2.321591405e-01	-2.629535859e-04	2.020853222e-11
-1.720000000e-02	2.321591369e-01	-2.605972840e-04	2.116843570e-11
-1.730000000e-02	2.321591333e-01	-2.582409823e-04	1.104586371e-11
-1.740000000e-02	2.321591296e-01	-2.558846810e-04	1.141021469e-11
-1.750000000e-02	2.321591258e-01	-2.535283798e-04	1.052582802e-11
-1.760000000e-02	2.321591220e-01	-2.511720790e-04	3.734473056e-11
-1.770000000e-02	2.321591180e-01	-2.488157784e-04	1.381306517e-11
-1.780000000e-02	2.321591140e-01	-2.464594781e-04	1.707162489e-11
-1.790000000e-02	2.321591100e-01	-2.441031781e-04	9.446056312e-12
-1.800000000e-02	2.321591058e-01	-2.417468784e-04	7.696457194e-12
-1.810000000e-02	2.321591016e-01	-2.393905789e-04	1.875593574e-11
-1.820000000e-02	2.321590974e-01	-2.370342798e-04	1.312473417e-11
-1.830000000e-02	2.321590930e-01	-2.346779809e-04	4.392360503e-11
-1.840000000e-02	2.321590886e-01	-2.323216824e-04	7.957217679e-12
-1.850000000e-02	2.321590841e-01	-2.299653841e-04	1.717780619e-11
-1.860000000e-02	2.321590795e-01	-2.276090862e-04	1.170520174e-11
-1.870000000e-02	2.321590749e-01	-2.252527886e-04	1.698023206e-10
-1.880000000e-02	2.321590702e-01	-2.228964912e-04	9.566496412e-12
-1.890000000e-02	2.321590654e-01	-2.205401943e-04	7.661666135e-12
-1.900000000e-02	2.321590605e-01	-2.181838976e-04	5.983626818e-11
-1.910000000e-02	2.321590556e-01	-2.158276012e-04	2.666621791e-11
-1.920000000e-02	2.321590506e-01	-2.134713052e-04	8.911254988e-12
-1.930000000e-02	2.321590456e-01	-2.111150095e-04	2.145502143e-11
-1.940000000e-02	2.321590404e-01	-2.087587142e-04	9.740930893e-12
-1.950000000e-02	2.321590352e-01	-2.064024191e-04	5.246834424e-12
-1.960000000e-02	2.321590299e-01	-2.040461245e-04	2.536592187e-11
-1.970000000e-02	2.321590246e-01	-2.016898301e-04	2.558925628e-11
-1.980000000e-02	2.321590191e-01	-1.993335362e-04	2.748123256e-11
-1.990000000e-02	2.321590137e-01	-1.969772426e-04	8.070290124e-12
-2.000000000e-02	2.321590081e-01	-1.946209493e-04	5.801845642e-12
-2.010000000e-02	2.321590024e-01	-1.922646564e-04	8.304653270e-12
-2.020000000e-02	2.321589967e-01	-1.899083639e-04	4.631181566e-11
-2.030000000e-02	2.321589909e-01	-1.875520717e-04	4.250664728e-11
-2.040000000e-02	2.321589851e-01	-1.851957799e-04	1.018804489e-11
-2.050000000e-02	2.321589792e-01	-1.828394885e-04	1.551056557e-11
-2.060000000e-02	2.321589732e-01	-1.804831974e-04	2.581252486e-11
-2.070000000e-02	2.321589671e-01	-1.781269068e-04	9.798829286e-12
-2.080000000e-02	2.321589609e-01	-1.757706165e-04	1.959192160e-11
-2.090000000e-02	2.321589547e-01	-1.734143266e-04	1.204362914e-11
-2.100000000e-02	2.321589484e-01	-1.710580372e-04	1.048010006e-11
-2.110000000e-02	2.321589421e-01	-1.687017481e-04	2.296926173e-11
-2.120000000e-02	2.321589357e-01	-1.663454594e-04	5.015109570e-11
-2.130000000e-02	2.321589292e-01	-1.639891711e-04	3.039119577e-10
-2.140000000e-02	2.321589226e-01	-1.616328832e-04	1.315353201e-11
-2.150000000e-02	2.321589159e-01	-1.592765958e-04	5.078977556e-11
-2.160000000e-02	2.321589092e-01	-1.569203087e-04	8.291454335e-12
-2.170000000e-02	2.321589024e-01	-1.545640221e-04	1.813201367e-11
-2.180000000e-02	2.321588956e-01	-1.522077359e-04	8.598224536e-12
-2.190000000e-02	2.321588886e-01	-1.498514502e-04	1.778521899e-11
-2.200000000e-02	2.321588816e-01	-1.474951648e-04	1.196194616e-11
-2.210000000e-02	2.321588746e-01	-1.451388799e-04	1.751632848e-11
-2.220000000e-02	2.321588674e-01	-1.427825954e-04	2.597631523e-11
-2.230000000e-02	2.321588602e-01	-1.404263114e-04	1.679794747e-11
-2.240000000e-02	2.321588529e-01	-1.380700278e-04	8.552160701e-12
-2.250000000e-02	2.321588455e-01	-1.357137447e-04	9.435502837e-12
-2.260000000e-02	2.321588381e-01	-1.333574620e-04	1.355480911e-11
-2.270000000e-02	2.321588306e-01	-1.310011798e-04	1.554973420e-11
-2.280000000e-02	2.321588230e-01	-1.286448980e-04	3.166043766e-11
-2.290000000e-02	2.321588154e-01	-1.262886167e-04	1.388584909e-11
-2.300000000e-02	2.321588077e-01	-1.239323359e-04	1.253704112e-11
-2.310000000e-02	2.321587999e-01	-1.215760555e-04	1.054089380e-11
-2.320000000e-02	2.321587920e-01	-1.192197757e-04	1.675843643e-11
-2.330000000e-02	2.321587841e-01	-1.168634962e-04	1.488239411e-11
-2.340000000e-02	2.321587761e-01	-1.145072173e-04	7.070729095e-12
-2.350000000e-02	2.321587680e-01	-1.121509389e-04	4.642928245e-12
-2.360000000e-02	2.321587598e-01	-1.097946609e-04	2.441627747e-11
-2.370000000e-02	2.321587516e-01	-1.074383834e-04	2.515575551e-11
-2.380000000e-02	2.321587433e-01	-1.050821065e-04	1.649516888e-11
-2.390000000e-02	2.321587349e-01	-1.027258300e-04	9.187074896e-12
-2.400000000e-02	2.321587265e-01	-1.003695540e-04	8.734449726e-12
-2.410000000e-02	2.321587180e-01	-9.801327859e-05	2.722476500e-11
-2.420000000e-02	2.321587094e-01	-9.565700364e-05	9.658256097e-12
-2.430000000e-02	2.321587008e-01	-9.330072921e-05	2.610076107e-11
-2.440000000e-02	2.321586920e-01	-9.094445530e-05	8.754656191e-12
-2.450000000e-02	2.321586832e-01	-8.858818191e-05	3.896997726e-11
-2.460000000e-02	2.321586744e-01	-8.623190904e-05	1.159518417e-11
-2.470000000e-02	2.321586654e-01	-8.387563670e-05	7.206911187e-12
-2.480000000e-02	2.321586564e-01	-8.151936489e-05	1.240665248e-11
-2.490000000e-02	2.321586473e-01	-7.916309362e-05	1.008781725e-11
-2.500000000e-02	2.321586382e-01	-7.680682289e-05	2.347110626e-11
-2.510000000e-02	2.321586290e-01	-7.445055270e-05	3.973141990e-12
-2.520000000e-02	2.321586197e-01	-7.209428306e-05	1.704650861e-11
-2.530000000e-02	2.321586103e-01	-6.973801397e-05	4.965494224e-11
-2.540000000e-02	2.321586008e-01	-6.738174543e-05	2.113952569e-11
-2.550000000e-02	2.321585913e-01	-6.502547746e-05	1.037840803e-10
-2.560000000e-02	2.321585817e-01	-6.266921004e-05	1.211069253e-11
-2.570000000e-02	2.321585721e-01	-6.031294319e-05	6.556205720e-12
-2.580000000e-02	2.321585624e-01	-5.795667690e-05	1.056426974e-11
-2.590000000e-02	2.321585526e-01	-5.560041119e-05	6.490027562e-12
-2.600000000e-02	2.321585427e-01	-5.324414606e-05	2.768632935e-11
-2.610000000e-02	2.321585327e-01	-5.088788150e-05	5.426707653e-11
-2.620000000e-02	2.321585227e-01	-4.853161753e-05	1.793107446e-11
-2.630000000e-02	2.321585126e-01	-4.617535415e-05	2.749026447e-11
-2.640000000e-02	2.321585025e-01	-4.381909135e-05	2.070419378e-11
-2.650000000e-02	2.321584923e-01	-4.146282915e-05	1.430172538e-11
-2.660000000e-02	2.321584819e-01	-3.910656755e-05	9.385519088e-12
-2.670000000e-02	2.321584716e-01	-3.675030655e-05	1.376911031e-11
-2.680000000e-02	2.321584611e-01	-3.439404615e-05	8.741243663e-12
-2.690000000e-02	2.321584506e-01	-3.203778637e-05	2.631865602e-11
-2.700000000e-02	2.321584400e-01	-2.968152719e-05	9.885857947e-12
-2.710000000e-02	2.321584294e-01	-2.732526864e-05	1.727429202e-11
-2.720000000e-02	2.321584186e-01	-2.496901069e-05	9.918177684e-11
-2.730000000e-02	2.321584078e-01	-2.261275338e-05	1.718492926e-11
-2.740000000e-02	2.321583970e-01	-2.025649669e-05	8.167224261e-12
-2.750000000e-02	2.321583860e-01	-1.790024063e-05	8.708608723e-12
-2.760000000e-02	2.321583750e-01	-1.554398521e-05	5.577697881e-11
-2.770000000e-02	2.321583639e-01	-1.318773042e-05	1.206188338e-11
-2.780000000e-02	2.321583527e-01	-1.083147628e-05	7.791107099e-12
-2.790000000e-02	2.321583415e-01	-8.475222781e-06	1.100251812e-11
-2.800000000e-02	2.321583302e-01	-6.118969931e-06	2.921357435e-11
-2.810000000e-02	2.321583188e-01	-3.762717731e-06	1.887057802e-11
-2.820000000e-02	2.321583074e-01	-1.406466190e-06	1.368671421e-11
-2.830000000e-02	2.321582958e-01	9.497846936e-07	1.521133578e-11
-2.840000000e-02	2.321582842e-01	3.306034914e-06	1.924698044e-11
-2.850000000e-02	2.321582726e-01	5.662284466e-06	1.794696632e-11
-2.860000000e-02	2.321582608e-01	8.018533348e-06	6.438478173e-12
-2.870000000e-02	2.321582490e-01	1.037478156e-05	2.221183944e-11
-2.880000000e-02	2.321582372e-01	1.273102909e-05	1.196290474e-11
-2.890000000e-02	2.321582252e-01	1.508727593e-05	1.799185565e-11
-2.900000000e-02	2.321582132e-01	1.744352210e-05	1.628188200e-11
-2.910000000e-02	2.321582011e-01	1.979976757e-05	4.711922586e-11
-2.920000000e-02	2.321581889e-01	2.215601235e-05	2.458654531e-11
-2.930000000e-02	2.321581767e-01	2.451225644e-05	7.101599810e-12
-2.940000000e-02	2.321581644e-01	2.686849983e-05	6.473848121e-12
-2.950000000e-02	2.321581520e-01	2.922474251e-05	7.715544012e-12
-2.960000000e-02	2.321581395e-01	3.158098449e-05	1.567915535e-11
-2.970000000e-02	2.321581270e-01	3.393722576e-05	8.460174003e-12
-2.980000000e-02	2.321581144e-01	3.629346631e-05	2.107018425e-11
-2.990000000e-02	2.321581018e-01	3.864970614e-05	1.166955470e-11
-3.000000000e-02	2.321580890e-01	4.100594525e-05	6.676948241e-12
