# Im(epsi1)     Re(omega/c)      Im(omega/c)      Eq(det).Opt det CON kz, R=0.5 \mum, mu_c=0.3, Re(epsi1)=3.90solve_det_conkz_vs_kz.py
0.000000000e+00	2.321354479e-01	-6.657958057e-04	2.055541814e-11
-1.000000000e-04	2.321354566e-01	-6.634396804e-04	8.970480412e-12
-2.000000000e-04	2.321354652e-01	-6.610835547e-04	1.404694847e-11
-3.000000000e-04	2.321354737e-01	-6.587274286e-04	5.826335406e-11
-4.000000000e-04	2.321354822e-01	-6.563713022e-04	9.205235433e-11
-5.000000000e-04	2.321354906e-01	-6.540151755e-04	9.331582585e-12
-6.000000000e-04	2.321354990e-01	-6.516590483e-04	3.948557973e-11
-7.000000000e-04	2.321355072e-01	-6.493029209e-04	1.720026505e-11
-8.000000000e-04	2.321355154e-01	-6.469467931e-04	8.763884690e-12
-9.000000000e-04	2.321355236e-01	-6.445906650e-04	7.932242675e-12
-1.000000000e-03	2.321355316e-01	-6.422345365e-04	1.074858051e-11
-1.100000000e-03	2.321355396e-01	-6.398784077e-04	2.982892925e-11
-1.200000000e-03	2.321355475e-01	-6.375222786e-04	3.391911197e-11
-1.300000000e-03	2.321355553e-01	-6.351661491e-04	1.181904908e-11
-1.400000000e-03	2.321355631e-01	-6.328100194e-04	2.570728394e-11
-1.500000000e-03	2.321355708e-01	-6.304538893e-04	1.242967487e-11
-1.600000000e-03	2.321355784e-01	-6.280977589e-04	1.110463801e-11
-1.700000000e-03	2.321355860e-01	-6.257416282e-04	2.803091865e-11
-1.800000000e-03	2.321355935e-01	-6.233854972e-04	1.069691208e-11
-1.900000000e-03	2.321356009e-01	-6.210293660e-04	1.231761267e-11
-2.000000000e-03	2.321356082e-01	-6.186732344e-04	1.719756563e-11
-2.100000000e-03	2.321356155e-01	-6.163171025e-04	1.127033544e-11
-2.200000000e-03	2.321356227e-01	-6.139609703e-04	2.218080350e-11
-2.300000000e-03	2.321356298e-01	-6.116048378e-04	2.777546206e-11
-2.400000000e-03	2.321356368e-01	-6.092487051e-04	9.139347685e-12
-2.500000000e-03	2.321356438e-01	-6.068925721e-04	5.047799791e-12
-2.600000000e-03	2.321356507e-01	-6.045364388e-04	1.370137139e-11
-2.700000000e-03	2.321356576e-01	-6.021803052e-04	6.593627926e-12
-2.800000000e-03	2.321356643e-01	-5.998241714e-04	1.729020524e-11
-2.900000000e-03	2.321356710e-01	-5.974680373e-04	1.498964516e-11
-3.000000000e-03	2.321356776e-01	-5.951119029e-04	1.753026918e-11
-3.100000000e-03	2.321356842e-01	-5.927557683e-04	9.937695027e-12
-3.200000000e-03	2.321356907e-01	-5.903996335e-04	7.993736529e-12
-3.300000000e-03	2.321356971e-01	-5.880434984e-04	6.199990874e-12
-3.400000000e-03	2.321357034e-01	-5.856873630e-04	6.101735923e-12
-3.500000000e-03	2.321357097e-01	-5.833312274e-04	2.552695057e-11
-3.600000000e-03	2.321357158e-01	-5.809750916e-04	2.294381006e-11
-3.700000000e-03	2.321357220e-01	-5.786189555e-04	1.788171972e-11
-3.800000000e-03	2.321357280e-01	-5.762628192e-04	1.645429822e-11
-3.900000000e-03	2.321357340e-01	-5.739066826e-04	1.077252846e-11
-4.000000000e-03	2.321357399e-01	-5.715505459e-04	9.903882727e-12
-4.100000000e-03	2.321357457e-01	-5.691944089e-04	1.358474134e-11
-4.200000000e-03	2.321357515e-01	-5.668382717e-04	1.546790273e-11
-4.300000000e-03	2.321357572e-01	-5.644821343e-04	6.975287887e-12
-4.400000000e-03	2.321357628e-01	-5.621259967e-04	3.571858791e-11
-4.500000000e-03	2.321357683e-01	-5.597698589e-04	8.832259300e-12
-4.600000000e-03	2.321357738e-01	-5.574137208e-04	8.430298922e-12
-4.700000000e-03	2.321357792e-01	-5.550575826e-04	9.600314580e-12
-4.800000000e-03	2.321357845e-01	-5.527014442e-04	4.813347265e-11
-4.900000000e-03	2.321357898e-01	-5.503453056e-04	1.170596751e-11
-5.000000000e-03	2.321357950e-01	-5.479891668e-04	1.510524462e-11
-5.100000000e-03	2.321358001e-01	-5.456330278e-04	1.467723134e-11
-5.200000000e-03	2.321358051e-01	-5.432768887e-04	1.249698534e-11
-5.300000000e-03	2.321358101e-01	-5.409207493e-04	5.130380636e-11
-5.400000000e-03	2.321358150e-01	-5.385646098e-04	1.161450059e-11
-5.500000000e-03	2.321358198e-01	-5.362084702e-04	2.025254453e-11
-5.600000000e-03	2.321358246e-01	-5.338523303e-04	7.551583456e-12
-5.700000000e-03	2.321358293e-01	-5.314961903e-04	2.980589412e-11
-5.800000000e-03	2.321358339e-01	-5.291400502e-04	8.134229071e-12
-5.900000000e-03	2.321358384e-01	-5.267839098e-04	1.061251093e-11
-6.000000000e-03	2.321358429e-01	-5.244277694e-04	6.729836841e-11
-6.100000000e-03	2.321358473e-01	-5.220716288e-04	2.381021703e-11
-6.200000000e-03	2.321358516e-01	-5.197154880e-04	8.928814259e-12
-6.300000000e-03	2.321358559e-01	-5.173593471e-04	6.965733496e-12
-6.400000000e-03	2.321358600e-01	-5.150032061e-04	7.635395808e-12
-6.500000000e-03	2.321358642e-01	-5.126470649e-04	2.502138869e-11
-6.600000000e-03	2.321358682e-01	-5.102909236e-04	1.209337436e-11
-6.700000000e-03	2.321358722e-01	-5.079347822e-04	1.106589698e-11
-6.800000000e-03	2.321358760e-01	-5.055786406e-04	1.573299562e-11
-6.900000000e-03	2.321358799e-01	-5.032224990e-04	1.794807322e-11
-7.000000000e-03	2.321358836e-01	-5.008663572e-04	2.825461547e-11
-7.100000000e-03	2.321358873e-01	-4.985102153e-04	1.417094160e-11
-7.200000000e-03	2.321358909e-01	-4.961540733e-04	1.487402647e-11
-7.300000000e-03	2.321358944e-01	-4.937979312e-04	2.301759737e-11
-7.400000000e-03	2.321358979e-01	-4.914417890e-04	1.073375829e-11
-7.500000000e-03	2.321359013e-01	-4.890856467e-04	2.779999927e-11
-7.600000000e-03	2.321359046e-01	-4.867295043e-04	7.218145076e-12
-7.700000000e-03	2.321359079e-01	-4.843733618e-04	1.109377613e-11
-7.800000000e-03	2.321359111e-01	-4.820172193e-04	2.860824993e-11
-7.900000000e-03	2.321359142e-01	-4.796610766e-04	1.207746209e-11
-8.000000000e-03	2.321359172e-01	-4.773049339e-04	9.421950430e-11
-8.100000000e-03	2.321359202e-01	-4.749487911e-04	2.920012427e-11
-8.200000000e-03	2.321359230e-01	-4.725926482e-04	8.222269447e-12
-8.300000000e-03	2.321359259e-01	-4.702365053e-04	1.918050047e-11
-8.400000000e-03	2.321359286e-01	-4.678803623e-04	2.911510343e-11
-8.500000000e-03	2.321359313e-01	-4.655242192e-04	4.161702986e-11
-8.600000000e-03	2.321359339e-01	-4.631680761e-04	3.038870599e-11
-8.700000000e-03	2.321359364e-01	-4.608119330e-04	1.575991282e-11
-8.800000000e-03	2.321359389e-01	-4.584557897e-04	1.125072142e-11
-8.900000000e-03	2.321359413e-01	-4.560996465e-04	4.082225408e-12
-9.000000000e-03	2.321359436e-01	-4.537435032e-04	6.261490341e-12
-9.100000000e-03	2.321359458e-01	-4.513873598e-04	8.889211550e-12
-9.200000000e-03	2.321359480e-01	-4.490312164e-04	7.928849030e-12
-9.300000000e-03	2.321359501e-01	-4.466750730e-04	1.484374505e-11
-9.400000000e-03	2.321359521e-01	-4.443189296e-04	6.868274203e-12
-9.500000000e-03	2.321359541e-01	-4.419627861e-04	1.918050650e-11
-9.600000000e-03	2.321359560e-01	-4.396066427e-04	4.308726396e-11
-9.700000000e-03	2.321359578e-01	-4.372504992e-04	9.055909452e-12
-9.800000000e-03	2.321359596e-01	-4.348943556e-04	3.194987017e-11
-9.900000000e-03	2.321359612e-01	-4.325382121e-04	1.202578642e-11
-1.000000000e-02	2.321359628e-01	-4.301820686e-04	1.511567829e-11
-1.010000000e-02	2.321359644e-01	-4.278259251e-04	2.809182848e-11
-1.020000000e-02	2.321359658e-01	-4.254697815e-04	1.015779203e-11
-1.030000000e-02	2.321359672e-01	-4.231136380e-04	9.416440789e-12
-1.040000000e-02	2.321359685e-01	-4.207574945e-04	1.982534338e-11
-1.050000000e-02	2.321359697e-01	-4.184013510e-04	6.196115553e-12
-1.060000000e-02	2.321359709e-01	-4.160452075e-04	5.846605892e-12
-1.070000000e-02	2.321359720e-01	-4.136890641e-04	7.213726037e-12
-1.080000000e-02	2.321359730e-01	-4.113329206e-04	1.236480146e-11
-1.090000000e-02	2.321359740e-01	-4.089767772e-04	1.457182111e-11
-1.100000000e-02	2.321359749e-01	-4.066206338e-04	1.476696024e-11
-1.110000000e-02	2.321359757e-01	-4.042644905e-04	1.333454372e-11
-1.120000000e-02	2.321359764e-01	-4.019083472e-04	1.572067001e-11
-1.130000000e-02	2.321359771e-01	-3.995522039e-04	1.944351865e-11
-1.140000000e-02	2.321359777e-01	-3.971960607e-04	2.980122387e-11
-1.150000000e-02	2.321359782e-01	-3.948399175e-04	1.936036528e-11
-1.160000000e-02	2.321359787e-01	-3.924837744e-04	1.190043681e-10
-1.170000000e-02	2.321359791e-01	-3.901276313e-04	1.507765092e-11
-1.180000000e-02	2.321359794e-01	-3.877714883e-04	1.453027212e-11
-1.190000000e-02	2.321359796e-01	-3.854153454e-04	1.169984657e-11
-1.200000000e-02	2.321359798e-01	-3.830592025e-04	8.567163998e-12
-1.210000000e-02	2.321359799e-01	-3.807030597e-04	7.636585443e-12
-1.220000000e-02	2.321359799e-01	-3.783469170e-04	1.043573982e-11
-1.230000000e-02	2.321359798e-01	-3.759907743e-04	2.370731699e-11
-1.240000000e-02	2.321359797e-01	-3.736346317e-04	1.054121554e-11
-1.250000000e-02	2.321359795e-01	-3.712784893e-04	6.431917629e-12
-1.260000000e-02	2.321359793e-01	-3.689223469e-04	6.002655986e-12
-1.270000000e-02	2.321359789e-01	-3.665662046e-04	2.258347173e-11
-1.280000000e-02	2.321359785e-01	-3.642100624e-04	6.992720366e-12
-1.290000000e-02	2.321359780e-01	-3.618539202e-04	5.440648659e-12
-1.300000000e-02	2.321359775e-01	-3.594977782e-04	9.071309032e-12
-1.310000000e-02	2.321359769e-01	-3.571416363e-04	9.664527751e-12
-1.320000000e-02	2.321359762e-01	-3.547854946e-04	2.137635063e-11
-1.330000000e-02	2.321359754e-01	-3.524293529e-04	5.881602658e-11
-1.340000000e-02	2.321359746e-01	-3.500732113e-04	9.739467778e-12
-1.350000000e-02	2.321359737e-01	-3.477170699e-04	7.751248488e-10
-1.360000000e-02	2.321359727e-01	-3.453609286e-04	2.400617864e-11
-1.370000000e-02	2.321359716e-01	-3.430047874e-04	1.408973869e-11
-1.380000000e-02	2.321359705e-01	-3.406486464e-04	7.693542000e-12
-1.390000000e-02	2.321359693e-01	-3.382925055e-04	9.943070680e-12
-1.400000000e-02	2.321359680e-01	-3.359363647e-04	8.877761132e-12
-1.410000000e-02	2.321359667e-01	-3.335802241e-04	7.225500308e-12
-1.420000000e-02	2.321359653e-01	-3.312240836e-04	9.979709883e-12
-1.430000000e-02	2.321359638e-01	-3.288679433e-04	5.840620218e-12
-1.440000000e-02	2.321359622e-01	-3.265118031e-04	3.460514237e-11
-1.450000000e-02	2.321359606e-01	-3.241556631e-04	1.173479500e-11
-1.460000000e-02	2.321359589e-01	-3.217995232e-04	8.793351981e-12
-1.470000000e-02	2.321359571e-01	-3.194433835e-04	2.823219717e-11
-1.480000000e-02	2.321359553e-01	-3.170872440e-04	2.484857360e-11
-1.490000000e-02	2.321359534e-01	-3.147311047e-04	2.286767394e-11
-1.500000000e-02	2.321359514e-01	-3.123749655e-04	2.496679868e-11
-1.510000000e-02	2.321359493e-01	-3.100188265e-04	8.007325215e-12
-1.520000000e-02	2.321359472e-01	-3.076626877e-04	1.105745775e-11
-1.530000000e-02	2.321359450e-01	-3.053065491e-04	1.098775534e-11
-1.540000000e-02	2.321359427e-01	-3.029504107e-04	1.073658331e-11
-1.550000000e-02	2.321359404e-01	-3.005942724e-04	3.358508897e-11
-1.560000000e-02	2.321359380e-01	-2.982381344e-04	2.912803928e-11
-1.570000000e-02	2.321359355e-01	-2.958819965e-04	3.376833493e-11
-1.580000000e-02	2.321359329e-01	-2.935258589e-04	6.663790704e-12
-1.590000000e-02	2.321359303e-01	-2.911697215e-04	1.888807939e-11
-1.600000000e-02	2.321359276e-01	-2.888135843e-04	2.494630106e-11
-1.610000000e-02	2.321359248e-01	-2.864574473e-04	1.465085105e-11
-1.620000000e-02	2.321359220e-01	-2.841013105e-04	1.062631872e-11
-1.630000000e-02	2.321359191e-01	-2.817451740e-04	6.867688380e-12
-1.640000000e-02	2.321359161e-01	-2.793890376e-04	1.283898427e-11
-1.650000000e-02	2.321359130e-01	-2.770329016e-04	1.433227965e-11
-1.660000000e-02	2.321359099e-01	-2.746767657e-04	1.794308032e-11
-1.670000000e-02	2.321359067e-01	-2.723206301e-04	2.197872048e-11
-1.680000000e-02	2.321359034e-01	-2.699644947e-04	9.696289400e-12
-1.690000000e-02	2.321359001e-01	-2.676083596e-04	1.211170866e-11
-1.700000000e-02	2.321358966e-01	-2.652522247e-04	7.339682302e-12
-1.710000000e-02	2.321358932e-01	-2.628960901e-04	1.045054428e-11
-1.720000000e-02	2.321358896e-01	-2.605399557e-04	1.129377994e-11
-1.730000000e-02	2.321358860e-01	-2.581838216e-04	9.215533388e-12
-1.740000000e-02	2.321358823e-01	-2.558276877e-04	1.859343558e-11
-1.750000000e-02	2.321358785e-01	-2.534715541e-04	1.384110197e-10
-1.760000000e-02	2.321358746e-01	-2.511154208e-04	7.527475467e-12
-1.770000000e-02	2.321358707e-01	-2.487592878e-04	3.673865724e-11
-1.780000000e-02	2.321358667e-01	-2.464031550e-04	1.006334209e-11
-1.790000000e-02	2.321358626e-01	-2.440470225e-04	2.225382831e-11
-1.800000000e-02	2.321358585e-01	-2.416908903e-04	1.542666063e-11
-1.810000000e-02	2.321358543e-01	-2.393347584e-04	1.135334383e-11
-1.820000000e-02	2.321358500e-01	-2.369786268e-04	2.871093110e-11
-1.830000000e-02	2.321358457e-01	-2.346224955e-04	7.894752955e-12
-1.840000000e-02	2.321358412e-01	-2.322663645e-04	1.582679918e-11
-1.850000000e-02	2.321358368e-01	-2.299102338e-04	1.522613872e-11
-1.860000000e-02	2.321358322e-01	-2.275541034e-04	4.160855120e-12
-1.870000000e-02	2.321358275e-01	-2.251979733e-04	1.507666350e-11
-1.880000000e-02	2.321358228e-01	-2.228418435e-04	1.170859858e-11
-1.890000000e-02	2.321358181e-01	-2.204857140e-04	1.756542931e-11
-1.900000000e-02	2.321358132e-01	-2.181295849e-04	1.870484683e-11
-1.910000000e-02	2.321358083e-01	-2.157734561e-04	1.733155959e-11
-1.920000000e-02	2.321358033e-01	-2.134173276e-04	9.145096305e-12
-1.930000000e-02	2.321357982e-01	-2.110611994e-04	1.637830747e-11
-1.940000000e-02	2.321357931e-01	-2.087050716e-04	1.552599999e-11
-1.950000000e-02	2.321357879e-01	-2.063489441e-04	1.379925604e-11
-1.960000000e-02	2.321357826e-01	-2.039928170e-04	8.539941070e-12
-1.970000000e-02	2.321357772e-01	-2.016366902e-04	1.017639865e-11
-1.980000000e-02	2.321357718e-01	-1.992805638e-04	5.293172311e-12
-1.990000000e-02	2.321357663e-01	-1.969244377e-04	1.223974769e-11
-2.000000000e-02	2.321357607e-01	-1.945683120e-04	2.034221265e-11
-2.010000000e-02	2.321357551e-01	-1.922121866e-04	6.308000982e-12
-2.020000000e-02	2.321357494e-01	-1.898560616e-04	1.000768900e-11
-2.030000000e-02	2.321357436e-01	-1.874999370e-04	1.852578803e-11
-2.040000000e-02	2.321357377e-01	-1.851438127e-04	7.465355001e-12
-2.050000000e-02	2.321357318e-01	-1.827876888e-04	2.756998534e-11
-2.060000000e-02	2.321357258e-01	-1.804315653e-04	1.012400658e-11
-2.070000000e-02	2.321357197e-01	-1.780754422e-04	6.316162146e-12
-2.080000000e-02	2.321357136e-01	-1.757193195e-04	1.661618166e-11
-2.090000000e-02	2.321357074e-01	-1.733631971e-04	2.759897487e-11
-2.100000000e-02	2.321357011e-01	-1.710070752e-04	1.950561922e-11
-2.110000000e-02	2.321356947e-01	-1.686509536e-04	1.309521324e-11
-2.120000000e-02	2.321356883e-01	-1.662948325e-04	2.442893690e-11
-2.130000000e-02	2.321356818e-01	-1.639387117e-04	1.254839146e-11
-2.140000000e-02	2.321356752e-01	-1.615825914e-04	4.119840844e-11
-2.150000000e-02	2.321356686e-01	-1.592264715e-04	1.167759433e-11
-2.160000000e-02	2.321356618e-01	-1.568703520e-04	1.288081737e-11
-2.170000000e-02	2.321356551e-01	-1.545142329e-04	6.866436809e-12
-2.180000000e-02	2.321356482e-01	-1.521581142e-04	3.635863077e-11
-2.190000000e-02	2.321356413e-01	-1.498019960e-04	1.656274929e-11
-2.200000000e-02	2.321356343e-01	-1.474458782e-04	9.637231380e-12
-2.210000000e-02	2.321356272e-01	-1.450897608e-04	3.706399839e-11
-2.220000000e-02	2.321356200e-01	-1.427336439e-04	1.512976699e-11
-2.230000000e-02	2.321356128e-01	-1.403775274e-04	5.649937678e-12
-2.240000000e-02	2.321356055e-01	-1.380214114e-04	2.227542464e-11
-2.250000000e-02	2.321355982e-01	-1.356652958e-04	3.494217577e-11
-2.260000000e-02	2.321355907e-01	-1.333091806e-04	1.024265081e-11
-2.270000000e-02	2.321355832e-01	-1.309530659e-04	3.079899212e-11
-2.280000000e-02	2.321355756e-01	-1.285969517e-04	2.987842791e-11
-2.290000000e-02	2.321355680e-01	-1.262408380e-04	1.767460809e-11
-2.300000000e-02	2.321355603e-01	-1.238847247e-04	1.962480242e-11
-2.310000000e-02	2.321355525e-01	-1.215286118e-04	6.916374549e-12
-2.320000000e-02	2.321355446e-01	-1.191724995e-04	5.942472000e-12
-2.330000000e-02	2.321355367e-01	-1.168163876e-04	5.909328693e-11
-2.340000000e-02	2.321355287e-01	-1.144602762e-04	7.681154945e-12
-2.350000000e-02	2.321355206e-01	-1.121041653e-04	2.068667967e-11
-2.360000000e-02	2.321355124e-01	-1.097480549e-04	2.225748033e-11
-2.370000000e-02	2.321355042e-01	-1.073919450e-04	2.391897530e-11
-2.380000000e-02	2.321354959e-01	-1.050358355e-04	1.507448396e-11
-2.390000000e-02	2.321354875e-01	-1.026797266e-04	1.463379999e-11
-2.400000000e-02	2.321354791e-01	-1.003236182e-04	3.323038428e-11
-2.410000000e-02	2.321354706e-01	-9.796751025e-05	1.647761916e-11
-2.420000000e-02	2.321354620e-01	-9.561140284e-05	1.853097879e-11
-2.430000000e-02	2.321354534e-01	-9.325529595e-05	2.135261442e-11
-2.440000000e-02	2.321354446e-01	-9.089918957e-05	2.048634635e-11
-2.450000000e-02	2.321354358e-01	-8.854308371e-05	1.200931450e-11
-2.460000000e-02	2.321354270e-01	-8.618697838e-05	1.283318862e-11
-2.470000000e-02	2.321354180e-01	-8.383087358e-05	2.458512604e-11
-2.480000000e-02	2.321354090e-01	-8.147476931e-05	1.534905789e-11
-2.490000000e-02	2.321353999e-01	-7.911866558e-05	9.873205495e-12
-2.500000000e-02	2.321353908e-01	-7.676256238e-05	2.839534279e-11
-2.510000000e-02	2.321353815e-01	-7.440645974e-05	2.086765552e-11
-2.520000000e-02	2.321353722e-01	-7.205035763e-05	9.833849166e-12
-2.530000000e-02	2.321353629e-01	-6.969425608e-05	1.156307804e-11
-2.540000000e-02	2.321353534e-01	-6.733815508e-05	1.121060474e-11
-2.550000000e-02	2.321353439e-01	-6.498205464e-05	1.006428122e-11
-2.560000000e-02	2.321353343e-01	-6.262595476e-05	1.490165212e-11
-2.570000000e-02	2.321353247e-01	-6.026985545e-05	1.559710217e-11
-2.580000000e-02	2.321353149e-01	-5.791375671e-05	1.685221459e-11
-2.590000000e-02	2.321353051e-01	-5.555765853e-05	1.221442913e-11
-2.600000000e-02	2.321352953e-01	-5.320156093e-05	3.003522608e-11
-2.610000000e-02	2.321352853e-01	-5.084546392e-05	7.977691519e-12
-2.620000000e-02	2.321352753e-01	-4.848936749e-05	1.017104091e-11
-2.630000000e-02	2.321352652e-01	-4.613327164e-05	9.603355287e-12
-2.640000000e-02	2.321352551e-01	-4.377717639e-05	2.141265228e-11
-2.650000000e-02	2.321352448e-01	-4.142108172e-05	8.012155477e-12
-2.660000000e-02	2.321352345e-01	-3.906498766e-05	1.051398590e-11
-2.670000000e-02	2.321352242e-01	-3.670889419e-05	5.427499021e-11
-2.680000000e-02	2.321352137e-01	-3.435280134e-05	1.014663838e-11
-2.690000000e-02	2.321352032e-01	-3.199670909e-05	2.662477112e-11
-2.700000000e-02	2.321351926e-01	-2.964061746e-05	1.959540693e-11
-2.710000000e-02	2.321351819e-01	-2.728452644e-05	7.226013899e-12
-2.720000000e-02	2.321351712e-01	-2.492843604e-05	1.283270474e-11
-2.730000000e-02	2.321351604e-01	-2.257234626e-05	2.741464394e-11
-2.740000000e-02	2.321351495e-01	-2.021625711e-05	2.693191020e-11
-2.750000000e-02	2.321351386e-01	-1.786016859e-05	6.834732913e-12
-2.760000000e-02	2.321351276e-01	-1.550408071e-05	1.071077530e-11
-2.770000000e-02	2.321351165e-01	-1.314799346e-05	1.525915221e-11
-2.780000000e-02	2.321351053e-01	-1.079190685e-05	2.054364053e-11
-2.790000000e-02	2.321350941e-01	-8.435820891e-06	1.746286792e-11
-2.800000000e-02	2.321350828e-01	-6.079735581e-06	2.686576870e-11
-2.810000000e-02	2.321350714e-01	-3.723650923e-06	9.175218817e-11
-2.820000000e-02	2.321350599e-01	-1.367566920e-06	3.769980534e-11
-2.830000000e-02	2.321350484e-01	9.885164267e-07	1.968107978e-11
-2.840000000e-02	2.321350368e-01	3.344599105e-06	6.963773984e-12
-2.850000000e-02	2.321350252e-01	5.700681118e-06	1.466893006e-11
-2.860000000e-02	2.321350134e-01	8.056762461e-06	4.113789951e-11
-2.870000000e-02	2.321350016e-01	1.041284313e-05	1.708764557e-11
-2.880000000e-02	2.321349897e-01	1.276892311e-05	5.757880562e-11
-2.890000000e-02	2.321349778e-01	1.512500243e-05	1.788629083e-11
-2.900000000e-02	2.321349658e-01	1.748108106e-05	4.514084933e-11
-2.910000000e-02	2.321349537e-01	1.983715899e-05	1.160099219e-11
-2.920000000e-02	2.321349415e-01	2.219323623e-05	3.428838254e-11
-2.930000000e-02	2.321349292e-01	2.454931277e-05	8.055997640e-11
-2.940000000e-02	2.321349169e-01	2.690538862e-05	6.137756684e-11
-2.950000000e-02	2.321349046e-01	2.926146377e-05	6.402676210e-12
-2.960000000e-02	2.321348921e-01	3.161753821e-05	9.424611199e-12
-2.970000000e-02	2.321348796e-01	3.397361193e-05	2.400815819e-11
-2.980000000e-02	2.321348670e-01	3.632968494e-05	1.148211387e-11
-2.990000000e-02	2.321348543e-01	3.868575724e-05	8.941795794e-12
-3.000000000e-02	2.321348416e-01	4.104182881e-05	5.883716187e-12
