# Im(epsi1)     Re(omega/c)      Im(omega/c)      Eq(det).Opt det CON kz, R=0.5 \mum, mu_c=0.3, Re(epsi1)=3.90solve_det_conkz_vs_kz.py
0.000000000e+00	2.321379612e-01	-6.658051207e-04	2.956644127e-11
-1.000000000e-04	2.321379699e-01	-6.634489772e-04	1.282610776e-11
-2.000000000e-04	2.321379786e-01	-6.610928334e-04	1.694267872e-11
-3.000000000e-04	2.321379871e-01	-6.587366892e-04	6.921767587e-12
-4.000000000e-04	2.321379956e-01	-6.563805447e-04	9.770609650e-12
-5.000000000e-04	2.321380040e-01	-6.540243999e-04	5.036977511e-10
-6.000000000e-04	2.321380123e-01	-6.516682546e-04	1.915462019e-11
-7.000000000e-04	2.321380206e-01	-6.493121091e-04	4.447292983e-11
-8.000000000e-04	2.321380288e-01	-6.469559632e-04	6.163541860e-12
-9.000000000e-04	2.321380369e-01	-6.445998169e-04	2.720955274e-11
-1.000000000e-03	2.321380450e-01	-6.422436704e-04	1.264581017e-11
-1.100000000e-03	2.321380530e-01	-6.398875235e-04	4.118127263e-11
-1.200000000e-03	2.321380609e-01	-6.375313762e-04	1.431434923e-11
-1.300000000e-03	2.321380687e-01	-6.351752287e-04	1.102327883e-11
-1.400000000e-03	2.321380765e-01	-6.328190808e-04	2.099360315e-11
-1.500000000e-03	2.321380842e-01	-6.304629326e-04	8.241225100e-12
-1.600000000e-03	2.321380918e-01	-6.281067841e-04	1.326690734e-11
-1.700000000e-03	2.321380994e-01	-6.257506353e-04	9.445530860e-12
-1.800000000e-03	2.321381068e-01	-6.233944862e-04	6.622578295e-12
-1.900000000e-03	2.321381143e-01	-6.210383368e-04	3.435587818e-11
-2.000000000e-03	2.321381216e-01	-6.186821871e-04	1.527757651e-11
-2.100000000e-03	2.321381289e-01	-6.163260372e-04	7.894194066e-12
-2.200000000e-03	2.321381360e-01	-6.139698869e-04	1.800488346e-11
-2.300000000e-03	2.321381432e-01	-6.116137363e-04	1.032625711e-11
-2.400000000e-03	2.321381502e-01	-6.092575855e-04	1.600060870e-11
-2.500000000e-03	2.321381572e-01	-6.069014343e-04	5.014053989e-12
-2.600000000e-03	2.321381641e-01	-6.045452829e-04	2.191428601e-11
-2.700000000e-03	2.321381709e-01	-6.021891313e-04	2.155018789e-11
-2.800000000e-03	2.321381777e-01	-5.998329793e-04	1.117734795e-11
-2.900000000e-03	2.321381844e-01	-5.974768271e-04	1.774088784e-11
-3.000000000e-03	2.321381910e-01	-5.951206747e-04	3.132862733e-11
-3.100000000e-03	2.321381976e-01	-5.927645219e-04	9.934504309e-12
-3.200000000e-03	2.321382040e-01	-5.904083690e-04	1.121413252e-11
-3.300000000e-03	2.321382104e-01	-5.880522157e-04	5.747652006e-12
-3.400000000e-03	2.321382168e-01	-5.856960623e-04	6.778993223e-12
-3.500000000e-03	2.321382230e-01	-5.833399086e-04	6.947432814e-12
-3.600000000e-03	2.321382292e-01	-5.809837546e-04	3.234269431e-11
-3.700000000e-03	2.321382353e-01	-5.786276004e-04	6.390865990e-12
-3.800000000e-03	2.321382414e-01	-5.762714460e-04	1.453475046e-11
-3.900000000e-03	2.321382474e-01	-5.739152914e-04	3.997225815e-11
-4.000000000e-03	2.321382533e-01	-5.715591365e-04	1.753751110e-11
-4.100000000e-03	2.321382591e-01	-5.692029814e-04	1.080277846e-11
-4.200000000e-03	2.321382649e-01	-5.668468261e-04	2.212434069e-11
-4.300000000e-03	2.321382705e-01	-5.644906706e-04	1.721248068e-11
-4.400000000e-03	2.321382762e-01	-5.621345149e-04	6.606617821e-12
-4.500000000e-03	2.321382817e-01	-5.597783590e-04	1.005485045e-11
-4.600000000e-03	2.321382872e-01	-5.574222028e-04	3.836121777e-11
-4.700000000e-03	2.321382926e-01	-5.550660465e-04	6.614301309e-12
-4.800000000e-03	2.321382979e-01	-5.527098900e-04	1.006196448e-11
-4.900000000e-03	2.321383032e-01	-5.503537333e-04	8.171979611e-12
-5.000000000e-03	2.321383084e-01	-5.479975764e-04	1.156024003e-11
-5.100000000e-03	2.321383135e-01	-5.456414193e-04	1.257128930e-11
-5.200000000e-03	2.321383185e-01	-5.432852620e-04	9.386924976e-12
-5.300000000e-03	2.321383235e-01	-5.409291046e-04	1.409339424e-11
-5.400000000e-03	2.321383284e-01	-5.385729470e-04	2.657434520e-11
-5.500000000e-03	2.321383332e-01	-5.362167892e-04	1.767787661e-11
-5.600000000e-03	2.321383380e-01	-5.338606312e-04	8.258069450e-12
-5.700000000e-03	2.321383426e-01	-5.315044731e-04	1.261036960e-11
-5.800000000e-03	2.321383473e-01	-5.291483149e-04	8.821633967e-12
-5.900000000e-03	2.321383518e-01	-5.267921564e-04	9.103343524e-12
-6.000000000e-03	2.321383563e-01	-5.244359979e-04	7.660306914e-12
-6.100000000e-03	2.321383607e-01	-5.220798391e-04	1.647212496e-11
-6.200000000e-03	2.321383650e-01	-5.197236803e-04	1.248204784e-11
-6.300000000e-03	2.321383692e-01	-5.173675213e-04	1.965639361e-11
-6.400000000e-03	2.321383734e-01	-5.150113621e-04	1.196741752e-11
-6.500000000e-03	2.321383775e-01	-5.126552029e-04	1.100788838e-11
-6.600000000e-03	2.321383816e-01	-5.102990434e-04	1.769061590e-11
-6.700000000e-03	2.321383855e-01	-5.079428839e-04	2.244729271e-11
-6.800000000e-03	2.321383894e-01	-5.055867243e-04	1.238475698e-11
-6.900000000e-03	2.321383933e-01	-5.032305645e-04	1.133766721e-11
-7.000000000e-03	2.321383970e-01	-5.008744046e-04	1.445314726e-11
-7.100000000e-03	2.321384007e-01	-4.985182446e-04	9.264876985e-12
-7.200000000e-03	2.321384043e-01	-4.961620845e-04	2.553376218e-11
-7.300000000e-03	2.321384078e-01	-4.938059243e-04	8.500782965e-12
-7.400000000e-03	2.321384113e-01	-4.914497640e-04	6.557005619e-12
-7.500000000e-03	2.321384147e-01	-4.890936036e-04	2.578718648e-11
-7.600000000e-03	2.321384180e-01	-4.867374431e-04	5.701154760e-12
-7.700000000e-03	2.321384213e-01	-4.843812825e-04	3.499995337e-11
-7.800000000e-03	2.321384244e-01	-4.820251218e-04	1.177665870e-11
-7.900000000e-03	2.321384275e-01	-4.796689611e-04	1.617306433e-11
-8.000000000e-03	2.321384306e-01	-4.773128003e-04	9.006217375e-12
-8.100000000e-03	2.321384335e-01	-4.749566394e-04	4.869152910e-11
-8.200000000e-03	2.321384364e-01	-4.726004784e-04	1.520123506e-11
-8.300000000e-03	2.321384393e-01	-4.702443173e-04	1.872663430e-11
-8.400000000e-03	2.321384420e-01	-4.678881562e-04	1.059786625e-11
-8.500000000e-03	2.321384447e-01	-4.655319951e-04	2.299714562e-11
-8.600000000e-03	2.321384473e-01	-4.631758338e-04	3.363784400e-11
-8.700000000e-03	2.321384498e-01	-4.608196726e-04	8.881867633e-12
-8.800000000e-03	2.321384523e-01	-4.584635112e-04	1.561210796e-11
-8.900000000e-03	2.321384547e-01	-4.561073499e-04	1.754001155e-11
-9.000000000e-03	2.321384570e-01	-4.537511884e-04	1.458623415e-11
-9.100000000e-03	2.321384592e-01	-4.513950270e-04	1.255761923e-11
-9.200000000e-03	2.321384614e-01	-4.490388655e-04	5.590233025e-12
-9.300000000e-03	2.321384635e-01	-4.466827040e-04	8.680351744e-12
-9.400000000e-03	2.321384655e-01	-4.443265424e-04	1.435890977e-11
-9.500000000e-03	2.321384675e-01	-4.419703809e-04	8.355287111e-12
-9.600000000e-03	2.321384694e-01	-4.396142193e-04	9.754663125e-12
-9.700000000e-03	2.321384712e-01	-4.372580577e-04	1.305307350e-11
-9.800000000e-03	2.321384729e-01	-4.349018960e-04	1.426673257e-11
-9.900000000e-03	2.321384746e-01	-4.325457344e-04	1.801748454e-11
-1.000000000e-02	2.321384762e-01	-4.301895728e-04	1.472303498e-11
-1.010000000e-02	2.321384777e-01	-4.278334112e-04	7.542414756e-12
-1.020000000e-02	2.321384792e-01	-4.254772495e-04	1.155601608e-11
-1.030000000e-02	2.321384806e-01	-4.231210879e-04	5.846487538e-12
-1.040000000e-02	2.321384819e-01	-4.207649263e-04	1.150765765e-11
-1.050000000e-02	2.321384831e-01	-4.184087647e-04	8.830165660e-12
-1.060000000e-02	2.321384843e-01	-4.160526031e-04	1.026122354e-11
-1.070000000e-02	2.321384854e-01	-4.136964415e-04	2.468602127e-11
-1.080000000e-02	2.321384864e-01	-4.113402799e-04	1.052241689e-11
-1.090000000e-02	2.321384874e-01	-4.089841184e-04	4.393037437e-12
-1.100000000e-02	2.321384883e-01	-4.066279569e-04	1.351320233e-11
-1.110000000e-02	2.321384891e-01	-4.042717955e-04	5.586299861e-12
-1.120000000e-02	2.321384898e-01	-4.019156341e-04	2.738684805e-11
-1.130000000e-02	2.321384905e-01	-3.995594727e-04	1.279392015e-11
-1.140000000e-02	2.321384911e-01	-3.972033114e-04	9.570893723e-12
-1.150000000e-02	2.321384916e-01	-3.948471501e-04	3.170024322e-11
-1.160000000e-02	2.321384921e-01	-3.924909888e-04	1.072710938e-11
-1.170000000e-02	2.321384924e-01	-3.901348277e-04	3.374824587e-11
-1.180000000e-02	2.321384928e-01	-3.877786666e-04	2.621385604e-11
-1.190000000e-02	2.321384930e-01	-3.854225055e-04	1.671667025e-11
-1.200000000e-02	2.321384932e-01	-3.830663445e-04	7.273107924e-12
-1.210000000e-02	2.321384933e-01	-3.807101836e-04	2.153931555e-11
-1.220000000e-02	2.321384933e-01	-3.783540228e-04	1.384993860e-11
-1.230000000e-02	2.321384932e-01	-3.759978620e-04	2.523957733e-11
-1.240000000e-02	2.321384931e-01	-3.736417013e-04	8.872083558e-12
-1.250000000e-02	2.321384929e-01	-3.712855408e-04	1.016879796e-11
-1.260000000e-02	2.321384927e-01	-3.689293802e-04	1.026395540e-11
-1.270000000e-02	2.321384923e-01	-3.665732198e-04	1.600977556e-11
-1.280000000e-02	2.321384919e-01	-3.642170595e-04	1.337763054e-11
-1.290000000e-02	2.321384914e-01	-3.618608993e-04	4.139586844e-11
-1.300000000e-02	2.321384909e-01	-3.595047392e-04	2.067066168e-11
-1.310000000e-02	2.321384903e-01	-3.571485792e-04	1.048021550e-11
-1.320000000e-02	2.321384896e-01	-3.547924193e-04	2.833336755e-11
-1.330000000e-02	2.321384888e-01	-3.524362595e-04	9.850144145e-12
-1.340000000e-02	2.321384880e-01	-3.500800999e-04	9.939804045e-12
-1.350000000e-02	2.321384870e-01	-3.477239403e-04	5.758997021e-12
-1.360000000e-02	2.321384861e-01	-3.453677809e-04	1.269112682e-11
-1.370000000e-02	2.321384850e-01	-3.430116216e-04	1.218504446e-11
-1.380000000e-02	2.321384839e-01	-3.406554625e-04	5.388698589e-12
-1.390000000e-02	2.321384827e-01	-3.382993035e-04	1.503353980e-11
-1.400000000e-02	2.321384814e-01	-3.359431446e-04	2.615579916e-11
-1.410000000e-02	2.321384801e-01	-3.335869858e-04	7.092920140e-12
-1.420000000e-02	2.321384787e-01	-3.312308273e-04	1.040415264e-11
-1.430000000e-02	2.321384772e-01	-3.288746688e-04	1.095952804e-11
-1.440000000e-02	2.321384756e-01	-3.265185105e-04	2.054734774e-11
-1.450000000e-02	2.321384740e-01	-3.241623524e-04	1.881601313e-11
-1.460000000e-02	2.321384723e-01	-3.218061945e-04	8.356282059e-12
-1.470000000e-02	2.321384705e-01	-3.194500367e-04	8.488568275e-12
-1.480000000e-02	2.321384687e-01	-3.170938790e-04	2.849425813e-11
-1.490000000e-02	2.321384668e-01	-3.147377216e-04	5.463917219e-11
-1.500000000e-02	2.321384648e-01	-3.123815643e-04	5.995609209e-12
-1.510000000e-02	2.321384627e-01	-3.100254072e-04	1.853330451e-11
-1.520000000e-02	2.321384606e-01	-3.076692503e-04	6.408514940e-12
-1.530000000e-02	2.321384584e-01	-3.053130936e-04	1.710401949e-11
-1.540000000e-02	2.321384561e-01	-3.029569370e-04	1.383242213e-11
-1.550000000e-02	2.321384538e-01	-3.006007807e-04	1.784755925e-11
-1.560000000e-02	2.321384514e-01	-2.982446245e-04	9.991974299e-12
-1.570000000e-02	2.321384489e-01	-2.958884686e-04	7.807793899e-11
-1.580000000e-02	2.321384463e-01	-2.935323129e-04	1.931522852e-11
-1.590000000e-02	2.321384437e-01	-2.911761573e-04	1.215419879e-11
-1.600000000e-02	2.321384410e-01	-2.888200020e-04	3.780058659e-11
-1.610000000e-02	2.321384382e-01	-2.864638469e-04	1.177918892e-11
-1.620000000e-02	2.321384354e-01	-2.841076920e-04	1.230714519e-11
-1.630000000e-02	2.321384325e-01	-2.817515374e-04	2.661287860e-11
-1.640000000e-02	2.321384295e-01	-2.793953829e-04	4.644436437e-12
-1.650000000e-02	2.321384264e-01	-2.770392287e-04	8.869241054e-12
-1.660000000e-02	2.321384233e-01	-2.746830748e-04	8.494801659e-12
-1.670000000e-02	2.321384201e-01	-2.723269210e-04	9.985679116e-12
-1.680000000e-02	2.321384168e-01	-2.699707676e-04	1.343588551e-11
-1.690000000e-02	2.321384135e-01	-2.676146143e-04	4.378577904e-11
-1.700000000e-02	2.321384100e-01	-2.652584613e-04	1.889584601e-11
-1.710000000e-02	2.321384066e-01	-2.629023086e-04	1.786167820e-11
-1.720000000e-02	2.321384030e-01	-2.605461561e-04	6.041279115e-12
-1.730000000e-02	2.321383994e-01	-2.581900039e-04	2.622564975e-11
-1.740000000e-02	2.321383957e-01	-2.558338519e-04	1.016401027e-11
-1.750000000e-02	2.321383919e-01	-2.534777002e-04	2.218626749e-11
-1.760000000e-02	2.321383880e-01	-2.511215488e-04	3.466841654e-11
-1.770000000e-02	2.321383841e-01	-2.487653977e-04	2.526312919e-11
-1.780000000e-02	2.321383801e-01	-2.464092468e-04	1.283671165e-11
-1.790000000e-02	2.321383760e-01	-2.440530962e-04	9.787785975e-12
-1.800000000e-02	2.321383719e-01	-2.416969459e-04	7.096095488e-11
-1.810000000e-02	2.321383677e-01	-2.393407959e-04	2.433797118e-11
-1.820000000e-02	2.321383634e-01	-2.369846462e-04	9.527403208e-12
-1.830000000e-02	2.321383591e-01	-2.346284967e-04	1.870520246e-11
-1.840000000e-02	2.321383546e-01	-2.322723476e-04	1.915808612e-11
-1.850000000e-02	2.321383502e-01	-2.299161988e-04	1.104110450e-11
-1.860000000e-02	2.321383456e-01	-2.275600503e-04	3.498725511e-11
-1.870000000e-02	2.321383409e-01	-2.252039021e-04	9.197362438e-12
-1.880000000e-02	2.321383362e-01	-2.228477542e-04	1.022813877e-11
-1.890000000e-02	2.321383315e-01	-2.204916066e-04	1.282331149e-11
-1.900000000e-02	2.321383266e-01	-2.181354594e-04	4.928277536e-12
-1.910000000e-02	2.321383217e-01	-2.157793124e-04	1.648946607e-11
-1.920000000e-02	2.321383167e-01	-2.134231658e-04	9.884387200e-11
-1.930000000e-02	2.321383116e-01	-2.110670196e-04	2.068245708e-11
-1.940000000e-02	2.321383065e-01	-2.087108737e-04	1.278585274e-11
-1.950000000e-02	2.321383013e-01	-2.063547281e-04	1.709239815e-11
-1.960000000e-02	2.321382960e-01	-2.039985828e-04	1.356006903e-11
-1.970000000e-02	2.321382906e-01	-2.016424379e-04	1.406382494e-11
-1.980000000e-02	2.321382852e-01	-1.992862934e-04	4.481801270e-11
-1.990000000e-02	2.321382797e-01	-1.969301492e-04	4.194444092e-12
-2.000000000e-02	2.321382741e-01	-1.945740054e-04	1.596577435e-11
-2.010000000e-02	2.321382685e-01	-1.922178619e-04	1.787201621e-11
-2.020000000e-02	2.321382628e-01	-1.898617188e-04	1.311455160e-11
-2.030000000e-02	2.321382570e-01	-1.875055760e-04	1.025247966e-11
-2.040000000e-02	2.321382511e-01	-1.851494337e-04	7.207261095e-12
-2.050000000e-02	2.321382452e-01	-1.827932917e-04	1.178306788e-11
-2.060000000e-02	2.321382392e-01	-1.804371501e-04	1.475883348e-11
-2.070000000e-02	2.321382331e-01	-1.780810088e-04	1.258632891e-11
-2.080000000e-02	2.321382270e-01	-1.757248680e-04	1.478513965e-11
-2.090000000e-02	2.321382208e-01	-1.733687276e-04	6.912070167e-12
-2.100000000e-02	2.321382145e-01	-1.710125875e-04	2.185561564e-11
-2.110000000e-02	2.321382081e-01	-1.686564478e-04	9.565397816e-12
-2.120000000e-02	2.321382017e-01	-1.663003086e-04	9.281275459e-12
-2.130000000e-02	2.321381952e-01	-1.639441697e-04	7.695590824e-12
-2.140000000e-02	2.321381886e-01	-1.615880313e-04	1.972668556e-11
-2.150000000e-02	2.321381820e-01	-1.592318933e-04	3.008057627e-11
-2.160000000e-02	2.321381752e-01	-1.568757557e-04	1.107174162e-11
-2.170000000e-02	2.321381685e-01	-1.545196185e-04	9.065414798e-12
-2.180000000e-02	2.321381616e-01	-1.521634817e-04	4.278599208e-11
-2.190000000e-02	2.321381547e-01	-1.498073453e-04	8.787795882e-12
-2.200000000e-02	2.321381477e-01	-1.474512094e-04	7.363172885e-12
-2.210000000e-02	2.321381406e-01	-1.450950740e-04	3.335581963e-11
-2.220000000e-02	2.321381334e-01	-1.427389389e-04	3.608936958e-11
-2.230000000e-02	2.321381262e-01	-1.403828043e-04	9.759567955e-12
-2.240000000e-02	2.321381189e-01	-1.380266702e-04	7.971019388e-12
-2.250000000e-02	2.321381116e-01	-1.356705365e-04	1.465679062e-11
-2.260000000e-02	2.321381041e-01	-1.333144032e-04	9.896355449e-12
-2.270000000e-02	2.321380966e-01	-1.309582704e-04	1.836238968e-11
-2.280000000e-02	2.321380890e-01	-1.286021381e-04	1.604522400e-11
-2.290000000e-02	2.321380814e-01	-1.262460062e-04	2.596118892e-11
-2.300000000e-02	2.321380737e-01	-1.238898748e-04	1.180052902e-11
-2.310000000e-02	2.321380659e-01	-1.215337439e-04	5.407052759e-12
-2.320000000e-02	2.321380580e-01	-1.191776134e-04	3.442714727e-11
-2.330000000e-02	2.321380501e-01	-1.168214834e-04	4.882480835e-12
-2.340000000e-02	2.321380421e-01	-1.144653539e-04	1.238864440e-11
-2.350000000e-02	2.321380340e-01	-1.121092249e-04	9.059265960e-12
-2.360000000e-02	2.321380258e-01	-1.097530964e-04	8.565119518e-12
-2.370000000e-02	2.321380176e-01	-1.073969683e-04	1.268770871e-11
-2.380000000e-02	2.321380093e-01	-1.050408408e-04	2.873200216e-11
-2.390000000e-02	2.321380010e-01	-1.026847138e-04	3.262524480e-11
-2.400000000e-02	2.321379925e-01	-1.003285872e-04	1.820453154e-11
-2.410000000e-02	2.321379840e-01	-9.797246121e-05	1.479218088e-11
-2.420000000e-02	2.321379754e-01	-9.561633568e-05	6.552766216e-11
-2.430000000e-02	2.321379668e-01	-9.326021069e-05	1.977606574e-11
-2.440000000e-02	2.321379580e-01	-9.090408620e-05	8.992062109e-12
-2.450000000e-02	2.321379492e-01	-8.854796224e-05	1.126883604e-11
-2.460000000e-02	2.321379404e-01	-8.619183880e-05	2.079536939e-11
-2.470000000e-02	2.321379314e-01	-8.383571589e-05	1.397547460e-11
-2.480000000e-02	2.321379224e-01	-8.147959351e-05	3.027338211e-11
-2.490000000e-02	2.321379133e-01	-7.912347167e-05	1.195139761e-11
-2.500000000e-02	2.321379042e-01	-7.676735037e-05	3.754141057e-11
-2.510000000e-02	2.321378950e-01	-7.441122961e-05	2.253008234e-11
-2.520000000e-02	2.321378857e-01	-7.205510940e-05	1.309536042e-11
-2.530000000e-02	2.321378763e-01	-6.969898974e-05	8.960384612e-12
-2.540000000e-02	2.321378668e-01	-6.734287062e-05	5.306290105e-11
-2.550000000e-02	2.321378573e-01	-6.498675208e-05	9.754446710e-12
-2.560000000e-02	2.321378477e-01	-6.263063409e-05	9.859992881e-12
-2.570000000e-02	2.321378381e-01	-6.027451667e-05	2.328401015e-11
-2.580000000e-02	2.321378284e-01	-5.791839982e-05	1.460471983e-11
-2.590000000e-02	2.321378186e-01	-5.556228354e-05	8.162361019e-12
-2.600000000e-02	2.321378087e-01	-5.320616783e-05	1.286244129e-11
-2.610000000e-02	2.321377987e-01	-5.085005271e-05	6.026220118e-12
-2.620000000e-02	2.321377887e-01	-4.849393817e-05	2.202106353e-11
-2.630000000e-02	2.321377786e-01	-4.613782421e-05	2.179506927e-11
-2.640000000e-02	2.321377685e-01	-4.378171085e-05	6.024049204e-12
-2.650000000e-02	2.321377582e-01	-4.142559808e-05	1.102712030e-11
-2.660000000e-02	2.321377479e-01	-3.906948590e-05	3.050630738e-11
-2.670000000e-02	2.321377376e-01	-3.671337433e-05	1.381179826e-11
-2.680000000e-02	2.321377271e-01	-3.435726337e-05	1.884373455e-11
-2.690000000e-02	2.321377166e-01	-3.200115301e-05	7.671494501e-11
-2.700000000e-02	2.321377060e-01	-2.964504327e-05	5.379137039e-12
-2.710000000e-02	2.321376954e-01	-2.728893414e-05	1.022029125e-11
-2.720000000e-02	2.321376846e-01	-2.493282563e-05	2.224717937e-11
-2.730000000e-02	2.321376738e-01	-2.257671775e-05	1.001953762e-11
-2.740000000e-02	2.321376629e-01	-2.022061049e-05	7.564633918e-12
-2.750000000e-02	2.321376520e-01	-1.786450386e-05	1.995841226e-11
-2.760000000e-02	2.321376410e-01	-1.550839787e-05	1.659689871e-11
-2.770000000e-02	2.321376299e-01	-1.315229251e-05	9.039138558e-12
-2.780000000e-02	2.321376187e-01	-1.079618779e-05	1.705739342e-11
-2.790000000e-02	2.321376075e-01	-8.440083728e-06	1.216275179e-11
-2.800000000e-02	2.321375962e-01	-6.083980308e-06	7.189062826e-12
-2.810000000e-02	2.321375848e-01	-3.727877539e-06	2.099002000e-11
-2.820000000e-02	2.321375733e-01	-1.371775427e-06	1.013659412e-11
-2.830000000e-02	2.321375618e-01	9.843260149e-07	1.185960448e-10
-2.840000000e-02	2.321375502e-01	3.340426813e-06	9.197195739e-12
-2.850000000e-02	2.321375386e-01	5.696526935e-06	6.793267012e-12
-2.860000000e-02	2.321375268e-01	8.052626388e-06	1.116838425e-11
-2.870000000e-02	2.321375150e-01	1.040872516e-05	8.959320418e-12
-2.880000000e-02	2.321375031e-01	1.276482326e-05	8.910866698e-11
-2.890000000e-02	2.321374912e-01	1.512092068e-05	7.421116097e-12
-2.900000000e-02	2.321374792e-01	1.747701741e-05	1.383731215e-11
-2.910000000e-02	2.321374671e-01	1.983311346e-05	8.046912667e-12
-2.920000000e-02	2.321374549e-01	2.218920881e-05	1.861143773e-11
-2.930000000e-02	2.321374427e-01	2.454530346e-05	8.711132467e-12
-2.940000000e-02	2.321374303e-01	2.690139742e-05	2.159396455e-11
-2.950000000e-02	2.321374180e-01	2.925749067e-05	1.738002551e-11
-2.960000000e-02	2.321374055e-01	3.161358322e-05	9.565377049e-12
-2.970000000e-02	2.321373930e-01	3.396967506e-05	1.673529701e-11
-2.980000000e-02	2.321373804e-01	3.632576617e-05	8.455580918e-12
-2.990000000e-02	2.321373677e-01	3.868185658e-05	1.406749105e-11
-3.000000000e-02	2.321373550e-01	4.103794626e-05	1.110741907e-11
