# Im(epsi1)     Re(omega/c)      Im(omega/c)      Eq(det).Opt det CON kz, R=0.5 \mum, mu_c=0.3, Re(epsi1)=3.90solve_det_conkz_vs_kz.py
0.000000000e+00	2.321364335e-01	-6.657994587e-04	9.535794838e-12
-1.000000000e-04	2.321364422e-01	-6.634433263e-04	1.411283842e-11
-2.000000000e-04	2.321364508e-01	-6.610871935e-04	1.543920349e-11
-3.000000000e-04	2.321364594e-01	-6.587310603e-04	1.207440992e-11
-4.000000000e-04	2.321364679e-01	-6.563749268e-04	6.386346702e-12
-5.000000000e-04	2.321364763e-01	-6.540187929e-04	1.203459640e-11
-6.000000000e-04	2.321364846e-01	-6.516626587e-04	1.304362962e-10
-7.000000000e-04	2.321364929e-01	-6.493065242e-04	1.827352335e-11
-8.000000000e-04	2.321365011e-01	-6.469503893e-04	1.337276550e-11
-9.000000000e-04	2.321365092e-01	-6.445942540e-04	9.334628572e-12
-1.000000000e-03	2.321365173e-01	-6.422381185e-04	1.948243889e-11
-1.100000000e-03	2.321365252e-01	-6.398819826e-04	1.033654833e-11
-1.200000000e-03	2.321365332e-01	-6.375258464e-04	1.182995990e-11
-1.300000000e-03	2.321365410e-01	-6.351697098e-04	5.585480804e-12
-1.400000000e-03	2.321365488e-01	-6.328135730e-04	1.969381523e-11
-1.500000000e-03	2.321365565e-01	-6.304574358e-04	8.687259360e-12
-1.600000000e-03	2.321365641e-01	-6.281012983e-04	1.470982565e-11
-1.700000000e-03	2.321365716e-01	-6.257451605e-04	1.170072511e-11
-1.800000000e-03	2.321365791e-01	-6.233890224e-04	1.129077200e-11
-1.900000000e-03	2.321365865e-01	-6.210328840e-04	2.571513996e-11
-2.000000000e-03	2.321365939e-01	-6.186767453e-04	7.306587923e-11
-2.100000000e-03	2.321366011e-01	-6.163206064e-04	9.287442114e-12
-2.200000000e-03	2.321366083e-01	-6.139644671e-04	8.477198167e-12
-2.300000000e-03	2.321366154e-01	-6.116083275e-04	1.142678539e-11
-2.400000000e-03	2.321366225e-01	-6.092521877e-04	2.903342521e-11
-2.500000000e-03	2.321366295e-01	-6.068960476e-04	8.370014390e-12
-2.600000000e-03	2.321366364e-01	-6.045399072e-04	7.550341333e-12
-2.700000000e-03	2.321366432e-01	-6.021837665e-04	8.302555034e-12
-2.800000000e-03	2.321366500e-01	-5.998276256e-04	1.186843084e-11
-2.900000000e-03	2.321366567e-01	-5.974714844e-04	1.270590185e-11
-3.000000000e-03	2.321366633e-01	-5.951153429e-04	2.623680794e-11
-3.100000000e-03	2.321366698e-01	-5.927592012e-04	1.581100877e-11
-3.200000000e-03	2.321366763e-01	-5.904030592e-04	1.712608936e-11
-3.300000000e-03	2.321366827e-01	-5.880469170e-04	8.613856810e-12
-3.400000000e-03	2.321366890e-01	-5.856907746e-04	1.652974845e-11
-3.500000000e-03	2.321366953e-01	-5.833346319e-04	9.173184080e-12
-3.600000000e-03	2.321367015e-01	-5.809784889e-04	8.563822451e-12
-3.700000000e-03	2.321367076e-01	-5.786223457e-04	1.150165335e-11
-3.800000000e-03	2.321367137e-01	-5.762662023e-04	7.470956081e-11
-3.900000000e-03	2.321367196e-01	-5.739100587e-04	7.180612247e-12
-4.000000000e-03	2.321367255e-01	-5.715539148e-04	4.469478662e-11
-4.100000000e-03	2.321367314e-01	-5.691977708e-04	1.001989333e-11
-4.200000000e-03	2.321367371e-01	-5.668416265e-04	1.308576195e-11
-4.300000000e-03	2.321367428e-01	-5.644854820e-04	9.510123458e-12
-4.400000000e-03	2.321367484e-01	-5.621293373e-04	8.760635227e-12
-4.500000000e-03	2.321367540e-01	-5.597731923e-04	4.155574815e-11
-4.600000000e-03	2.321367594e-01	-5.574170472e-04	2.358676077e-11
-4.700000000e-03	2.321367648e-01	-5.550609019e-04	7.771471844e-12
-4.800000000e-03	2.321367702e-01	-5.527047564e-04	1.036401095e-10
-4.900000000e-03	2.321367754e-01	-5.503486107e-04	6.043429958e-12
-5.000000000e-03	2.321367806e-01	-5.479924648e-04	1.336151398e-11
-5.100000000e-03	2.321367857e-01	-5.456363187e-04	1.334763892e-11
-5.200000000e-03	2.321367908e-01	-5.432801724e-04	1.547841793e-11
-5.300000000e-03	2.321367957e-01	-5.409240260e-04	9.844593198e-12
-5.400000000e-03	2.321368006e-01	-5.385678794e-04	1.543114293e-11
-5.500000000e-03	2.321368055e-01	-5.362117326e-04	8.883996404e-12
-5.600000000e-03	2.321368102e-01	-5.338555857e-04	9.304493065e-12
-5.700000000e-03	2.321368149e-01	-5.314994386e-04	6.309367032e-12
-5.800000000e-03	2.321368195e-01	-5.291432913e-04	3.491769449e-11
-5.900000000e-03	2.321368241e-01	-5.267871439e-04	1.823407059e-11
-6.000000000e-03	2.321368285e-01	-5.244309963e-04	1.337358967e-11
-6.100000000e-03	2.321368329e-01	-5.220748486e-04	1.354760442e-11
-6.200000000e-03	2.321368373e-01	-5.197187007e-04	3.990663375e-11
-6.300000000e-03	2.321368415e-01	-5.173625527e-04	1.806175461e-11
-6.400000000e-03	2.321368457e-01	-5.150064046e-04	1.391642291e-11
-6.500000000e-03	2.321368498e-01	-5.126502563e-04	1.069376580e-11
-6.600000000e-03	2.321368538e-01	-5.102941079e-04	1.564706231e-11
-6.700000000e-03	2.321368578e-01	-5.079379594e-04	1.095786218e-11
-6.800000000e-03	2.321368617e-01	-5.055818108e-04	8.963370485e-12
-6.900000000e-03	2.321368655e-01	-5.032256620e-04	1.223495155e-11
-7.000000000e-03	2.321368693e-01	-5.008695131e-04	1.455485970e-11
-7.100000000e-03	2.321368730e-01	-4.985133641e-04	1.391840864e-11
-7.200000000e-03	2.321368766e-01	-4.961572150e-04	1.938298234e-11
-7.300000000e-03	2.321368801e-01	-4.938010658e-04	1.101641605e-11
-7.400000000e-03	2.321368836e-01	-4.914449165e-04	1.263365689e-11
-7.500000000e-03	2.321368870e-01	-4.890887671e-04	1.517123002e-11
-7.600000000e-03	2.321368903e-01	-4.867326177e-04	1.071636427e-11
-7.700000000e-03	2.321368935e-01	-4.843764681e-04	9.424010725e-12
-7.800000000e-03	2.321368967e-01	-4.820203184e-04	1.275792107e-11
-7.900000000e-03	2.321368998e-01	-4.796641687e-04	1.009059545e-11
-8.000000000e-03	2.321369028e-01	-4.773080188e-04	6.534895004e-11
-8.100000000e-03	2.321369058e-01	-4.749518689e-04	2.591288149e-11
-8.200000000e-03	2.321369087e-01	-4.725957190e-04	7.667473021e-12
-8.300000000e-03	2.321369115e-01	-4.702395689e-04	1.250049553e-11
-8.400000000e-03	2.321369143e-01	-4.678834188e-04	1.505312954e-11
-8.500000000e-03	2.321369169e-01	-4.655272687e-04	7.318628162e-12
-8.600000000e-03	2.321369195e-01	-4.631711185e-04	7.960801243e-12
-8.700000000e-03	2.321369221e-01	-4.608149682e-04	7.351861852e-12
-8.800000000e-03	2.321369245e-01	-4.584588179e-04	1.627083764e-11
-8.900000000e-03	2.321369269e-01	-4.561026675e-04	5.987146410e-11
-9.000000000e-03	2.321369292e-01	-4.537465171e-04	1.671744511e-11
-9.100000000e-03	2.321369315e-01	-4.513903666e-04	9.805246077e-12
-9.200000000e-03	2.321369337e-01	-4.490342162e-04	6.853374490e-12
-9.300000000e-03	2.321369358e-01	-4.466780657e-04	1.331091404e-11
-9.400000000e-03	2.321369378e-01	-4.443219151e-04	1.024035077e-11
-9.500000000e-03	2.321369398e-01	-4.419657646e-04	7.045891936e-12
-9.600000000e-03	2.321369416e-01	-4.396096140e-04	9.394887961e-12
-9.700000000e-03	2.321369435e-01	-4.372534634e-04	2.729742818e-11
-9.800000000e-03	2.321369452e-01	-4.348973128e-04	1.743798784e-11
-9.900000000e-03	2.321369469e-01	-4.325411621e-04	2.600853520e-11
-1.000000000e-02	2.321369485e-01	-4.301850115e-04	2.646265249e-11
-1.010000000e-02	2.321369500e-01	-4.278288609e-04	3.182885277e-11
-1.020000000e-02	2.321369515e-01	-4.254727102e-04	1.446061145e-11
-1.030000000e-02	2.321369528e-01	-4.231165596e-04	2.054581083e-11
-1.040000000e-02	2.321369542e-01	-4.207604090e-04	1.339401386e-11
-1.050000000e-02	2.321369554e-01	-4.184042584e-04	1.130026637e-11
-1.060000000e-02	2.321369566e-01	-4.160481078e-04	1.451119627e-11
-1.070000000e-02	2.321369577e-01	-4.136919573e-04	6.516935430e-12
-1.080000000e-02	2.321369587e-01	-4.113358067e-04	1.011630117e-11
-1.090000000e-02	2.321369596e-01	-4.089796562e-04	1.241481233e-11
-1.100000000e-02	2.321369605e-01	-4.066235057e-04	2.319724799e-11
-1.110000000e-02	2.321369613e-01	-4.042673553e-04	2.306457874e-11
-1.120000000e-02	2.321369621e-01	-4.019112049e-04	7.798336335e-12
-1.130000000e-02	2.321369627e-01	-3.995550545e-04	1.739852075e-11
-1.140000000e-02	2.321369633e-01	-3.971989042e-04	8.859876381e-12
-1.150000000e-02	2.321369639e-01	-3.948427539e-04	1.675911998e-11
-1.160000000e-02	2.321369643e-01	-3.924866037e-04	1.731434545e-11
-1.170000000e-02	2.321369647e-01	-3.901304535e-04	1.150482637e-11
-1.180000000e-02	2.321369650e-01	-3.877743034e-04	1.251157230e-11
-1.190000000e-02	2.321369653e-01	-3.854181534e-04	1.073341387e-11
-1.200000000e-02	2.321369654e-01	-3.830620034e-04	1.053664136e-11
-1.210000000e-02	2.321369655e-01	-3.807058535e-04	1.108807477e-11
-1.220000000e-02	2.321369655e-01	-3.783497037e-04	1.288539575e-11
-1.230000000e-02	2.321369655e-01	-3.759935539e-04	1.352985048e-11
-1.240000000e-02	2.321369654e-01	-3.736374042e-04	1.106807142e-11
-1.250000000e-02	2.321369652e-01	-3.712812546e-04	6.407592061e-12
-1.260000000e-02	2.321369649e-01	-3.689251051e-04	2.628197109e-11
-1.270000000e-02	2.321369646e-01	-3.665689557e-04	1.776728843e-11
-1.280000000e-02	2.321369642e-01	-3.642128064e-04	2.800663336e-11
-1.290000000e-02	2.321369637e-01	-3.618566572e-04	1.029098401e-11
-1.300000000e-02	2.321369631e-01	-3.595005081e-04	2.393353068e-11
-1.310000000e-02	2.321369625e-01	-3.571443591e-04	8.981306321e-12
-1.320000000e-02	2.321369618e-01	-3.547882102e-04	1.174744187e-11
-1.330000000e-02	2.321369611e-01	-3.524320615e-04	1.978464036e-11
-1.340000000e-02	2.321369602e-01	-3.500759128e-04	3.669420267e-12
-1.350000000e-02	2.321369593e-01	-3.477197643e-04	8.660424749e-12
-1.360000000e-02	2.321369583e-01	-3.453636159e-04	7.404081602e-12
-1.370000000e-02	2.321369573e-01	-3.430074676e-04	1.253148315e-11
-1.380000000e-02	2.321369561e-01	-3.406513194e-04	1.343224989e-11
-1.390000000e-02	2.321369549e-01	-3.382951714e-04	5.916785577e-11
-1.400000000e-02	2.321369537e-01	-3.359390236e-04	9.555036434e-12
-1.410000000e-02	2.321369523e-01	-3.335828758e-04	1.577809863e-11
-1.420000000e-02	2.321369509e-01	-3.312267283e-04	1.307368884e-11
-1.430000000e-02	2.321369494e-01	-3.288705808e-04	9.172165848e-12
-1.440000000e-02	2.321369479e-01	-3.265144336e-04	1.064489521e-11
-1.450000000e-02	2.321369463e-01	-3.241582864e-04	1.249865376e-11
-1.460000000e-02	2.321369446e-01	-3.218021395e-04	9.292925739e-12
-1.470000000e-02	2.321369428e-01	-3.194459927e-04	1.973080498e-11
-1.480000000e-02	2.321369410e-01	-3.170898461e-04	6.661093660e-12
-1.490000000e-02	2.321369390e-01	-3.147336996e-04	3.220012346e-10
-1.500000000e-02	2.321369371e-01	-3.123775534e-04	1.697360382e-11
-1.510000000e-02	2.321369350e-01	-3.100214073e-04	2.971407203e-11
-1.520000000e-02	2.321369329e-01	-3.076652614e-04	1.262218100e-11
-1.530000000e-02	2.321369307e-01	-3.053091156e-04	2.692546965e-11
-1.540000000e-02	2.321369284e-01	-3.029529701e-04	1.479299886e-11
-1.550000000e-02	2.321369261e-01	-3.005968248e-04	3.545195333e-11
-1.560000000e-02	2.321369236e-01	-2.982406796e-04	1.222622404e-11
-1.570000000e-02	2.321369212e-01	-2.958845347e-04	5.893492406e-12
-1.580000000e-02	2.321369186e-01	-2.935283900e-04	5.599722847e-11
-1.590000000e-02	2.321369160e-01	-2.911722454e-04	7.717018261e-12
-1.600000000e-02	2.321369133e-01	-2.888161011e-04	1.869399241e-11
-1.610000000e-02	2.321369105e-01	-2.864599570e-04	1.093636493e-11
-1.620000000e-02	2.321369076e-01	-2.841038132e-04	1.684310276e-11
-1.630000000e-02	2.321369047e-01	-2.817476695e-04	9.921797882e-12
-1.640000000e-02	2.321369017e-01	-2.793915261e-04	1.118485775e-11
-1.650000000e-02	2.321368987e-01	-2.770353829e-04	2.324537465e-11
-1.660000000e-02	2.321368955e-01	-2.746792399e-04	1.019084947e-11
-1.670000000e-02	2.321368923e-01	-2.723230972e-04	7.470081170e-12
-1.680000000e-02	2.321368891e-01	-2.699669548e-04	3.209654169e-10
-1.690000000e-02	2.321368857e-01	-2.676108125e-04	1.588669311e-11
-1.700000000e-02	2.321368823e-01	-2.652546705e-04	1.204369768e-11
-1.710000000e-02	2.321368788e-01	-2.628985288e-04	1.104243273e-11
-1.720000000e-02	2.321368752e-01	-2.605423873e-04	3.649092045e-11
-1.730000000e-02	2.321368716e-01	-2.581862461e-04	1.642145123e-11
-1.740000000e-02	2.321368679e-01	-2.558301052e-04	1.174070319e-11
-1.750000000e-02	2.321368641e-01	-2.534739645e-04	7.023273377e-12
-1.760000000e-02	2.321368603e-01	-2.511178241e-04	1.686638223e-11
-1.770000000e-02	2.321368564e-01	-2.487616839e-04	2.086931259e-11
-1.780000000e-02	2.321368524e-01	-2.464055441e-04	2.302563445e-11
-1.790000000e-02	2.321368483e-01	-2.440494045e-04	9.311759539e-12
-1.800000000e-02	2.321368442e-01	-2.416932652e-04	2.266297273e-11
-1.810000000e-02	2.321368400e-01	-2.393371262e-04	9.879770482e-12
-1.820000000e-02	2.321368357e-01	-2.369809875e-04	2.013775135e-11
-1.830000000e-02	2.321368313e-01	-2.346248490e-04	1.876820644e-11
-1.840000000e-02	2.321368269e-01	-2.322687109e-04	8.583377494e-12
-1.850000000e-02	2.321368224e-01	-2.299125731e-04	1.485410497e-11
-1.860000000e-02	2.321368178e-01	-2.275564356e-04	2.676515355e-11
-1.870000000e-02	2.321368132e-01	-2.252002984e-04	1.490064955e-11
-1.880000000e-02	2.321368085e-01	-2.228441615e-04	8.667006725e-12
-1.890000000e-02	2.321368037e-01	-2.204880249e-04	1.099584887e-11
-1.900000000e-02	2.321367989e-01	-2.181318887e-04	1.793031780e-11
-1.910000000e-02	2.321367939e-01	-2.157757528e-04	1.142121804e-11
-1.920000000e-02	2.321367889e-01	-2.134196172e-04	7.591294303e-12
-1.930000000e-02	2.321367839e-01	-2.110634819e-04	8.466879801e-12
-1.940000000e-02	2.321367787e-01	-2.087073470e-04	1.146782752e-11
-1.950000000e-02	2.321367735e-01	-2.063512124e-04	1.228422492e-11
-1.960000000e-02	2.321367682e-01	-2.039950782e-04	9.223594412e-12
-1.970000000e-02	2.321367629e-01	-2.016389443e-04	1.606466155e-11
-1.980000000e-02	2.321367574e-01	-1.992828108e-04	2.275700181e-11
-1.990000000e-02	2.321367519e-01	-1.969266776e-04	5.722793062e-12
-2.000000000e-02	2.321367464e-01	-1.945705448e-04	1.178958798e-11
-2.010000000e-02	2.321367407e-01	-1.922144123e-04	1.037094479e-11
-2.020000000e-02	2.321367350e-01	-1.898582802e-04	3.206352395e-11
-2.030000000e-02	2.321367292e-01	-1.875021485e-04	9.631118241e-12
-2.040000000e-02	2.321367234e-01	-1.851460171e-04	4.661243781e-11
-2.050000000e-02	2.321367174e-01	-1.827898861e-04	9.956296699e-12
-2.060000000e-02	2.321367114e-01	-1.804337555e-04	1.383458277e-11
-2.070000000e-02	2.321367054e-01	-1.780776253e-04	1.328432465e-11
-2.080000000e-02	2.321366992e-01	-1.757214955e-04	2.047870333e-11
-2.090000000e-02	2.321366930e-01	-1.733653660e-04	1.337338681e-11
-2.100000000e-02	2.321366867e-01	-1.710092370e-04	1.368948262e-11
-2.110000000e-02	2.321366804e-01	-1.686531083e-04	1.005636355e-11
-2.120000000e-02	2.321366739e-01	-1.662969801e-04	1.361886181e-11
-2.130000000e-02	2.321366674e-01	-1.639408522e-04	8.293183090e-12
-2.140000000e-02	2.321366609e-01	-1.615847248e-04	5.707077719e-11
-2.150000000e-02	2.321366542e-01	-1.592285978e-04	9.567870149e-12
-2.160000000e-02	2.321366475e-01	-1.568724712e-04	1.439969564e-11
-2.170000000e-02	2.321366407e-01	-1.545163450e-04	1.570063506e-11
-2.180000000e-02	2.321366338e-01	-1.521602192e-04	1.533436256e-11
-2.190000000e-02	2.321366269e-01	-1.498040939e-04	1.611121803e-11
-2.200000000e-02	2.321366199e-01	-1.474479690e-04	1.238459724e-11
-2.210000000e-02	2.321366128e-01	-1.450918445e-04	1.625124221e-11
-2.220000000e-02	2.321366057e-01	-1.427357205e-04	9.123809758e-12
-2.230000000e-02	2.321365985e-01	-1.403795969e-04	3.221370630e-11
-2.240000000e-02	2.321365912e-01	-1.380234737e-04	2.347532598e-11
-2.250000000e-02	2.321365838e-01	-1.356673511e-04	1.894533268e-11
-2.260000000e-02	2.321365764e-01	-1.333112288e-04	1.107334204e-11
-2.270000000e-02	2.321365689e-01	-1.309551070e-04	9.913928021e-12
-2.280000000e-02	2.321365613e-01	-1.285989857e-04	8.090430966e-12
-2.290000000e-02	2.321365536e-01	-1.262428648e-04	1.052229861e-11
-2.300000000e-02	2.321365459e-01	-1.238867444e-04	8.885113257e-12
-2.310000000e-02	2.321365381e-01	-1.215306245e-04	1.060563774e-11
-2.320000000e-02	2.321365303e-01	-1.191745050e-04	2.417903796e-11
-2.330000000e-02	2.321365223e-01	-1.168183861e-04	1.060982160e-11
-2.340000000e-02	2.321365143e-01	-1.144622676e-04	4.062583869e-11
-2.350000000e-02	2.321365062e-01	-1.121061496e-04	7.483896148e-12
-2.360000000e-02	2.321364981e-01	-1.097500320e-04	1.405141194e-11
-2.370000000e-02	2.321364899e-01	-1.073939150e-04	2.059642743e-11
-2.380000000e-02	2.321364816e-01	-1.050377985e-04	2.167831092e-11
-2.390000000e-02	2.321364732e-01	-1.026816825e-04	2.035497757e-11
-2.400000000e-02	2.321364648e-01	-1.003255669e-04	1.173994174e-11
-2.410000000e-02	2.321364563e-01	-9.796945191e-05	9.156788271e-12
-2.420000000e-02	2.321364477e-01	-9.561333740e-05	1.234712903e-11
-2.430000000e-02	2.321364390e-01	-9.325722340e-05	2.535243721e-11
-2.440000000e-02	2.321364303e-01	-9.090110992e-05	1.306892140e-11
-2.450000000e-02	2.321364215e-01	-8.854499697e-05	6.594797034e-12
-2.460000000e-02	2.321364126e-01	-8.618888453e-05	2.518945142e-11
-2.470000000e-02	2.321364037e-01	-8.383277263e-05	9.173221645e-12
-2.480000000e-02	2.321363947e-01	-8.147666126e-05	1.406474253e-11
-2.490000000e-02	2.321363856e-01	-7.912055043e-05	1.002691969e-11
-2.500000000e-02	2.321363764e-01	-7.676444013e-05	2.591340577e-12
-2.510000000e-02	2.321363672e-01	-7.440833038e-05	2.924479811e-11
-2.520000000e-02	2.321363579e-01	-7.205222118e-05	2.703217596e-11
-2.530000000e-02	2.321363485e-01	-6.969611252e-05	8.877514450e-12
-2.540000000e-02	2.321363391e-01	-6.734000442e-05	9.125571716e-12
-2.550000000e-02	2.321363296e-01	-6.498389688e-05	1.233591277e-11
-2.560000000e-02	2.321363200e-01	-6.262778990e-05	1.249317047e-11
-2.570000000e-02	2.321363103e-01	-6.027168348e-05	9.716107586e-11
-2.580000000e-02	2.321363006e-01	-5.791557764e-05	1.084731533e-11
-2.590000000e-02	2.321362908e-01	-5.555947237e-05	1.056495034e-11
-2.600000000e-02	2.321362809e-01	-5.320336767e-05	5.844868463e-12
-2.610000000e-02	2.321362710e-01	-5.084726355e-05	8.437479141e-12
-2.620000000e-02	2.321362610e-01	-4.849116002e-05	1.027544797e-11
-2.630000000e-02	2.321362509e-01	-4.613505707e-05	7.980046148e-12
-2.640000000e-02	2.321362407e-01	-4.377895471e-05	1.886740188e-11
-2.650000000e-02	2.321362305e-01	-4.142285295e-05	2.073503537e-11
-2.660000000e-02	2.321362202e-01	-3.906675178e-05	1.078476212e-11
-2.670000000e-02	2.321362098e-01	-3.671065122e-05	8.327872924e-12
-2.680000000e-02	2.321361994e-01	-3.435455126e-05	5.620883243e-11
-2.690000000e-02	2.321361888e-01	-3.199845192e-05	1.548055964e-11
-2.700000000e-02	2.321361783e-01	-2.964235318e-05	6.182602596e-12
-2.710000000e-02	2.321361676e-01	-2.728625506e-05	6.096793286e-12
-2.720000000e-02	2.321361569e-01	-2.493015755e-05	7.205553698e-12
-2.730000000e-02	2.321361461e-01	-2.257406068e-05	8.645749866e-12
-2.740000000e-02	2.321361352e-01	-2.021796443e-05	1.207121548e-11
-2.750000000e-02	2.321361242e-01	-1.786186880e-05	5.609800307e-11
-2.760000000e-02	2.321361132e-01	-1.550577382e-05	1.677734170e-11
-2.770000000e-02	2.321361021e-01	-1.314967947e-05	5.902516238e-11
-2.780000000e-02	2.321360910e-01	-1.079358576e-05	1.271858473e-11
-2.790000000e-02	2.321360797e-01	-8.437492702e-06	1.598917867e-11
-2.800000000e-02	2.321360684e-01	-6.081400289e-06	4.745139386e-11
-2.810000000e-02	2.321360570e-01	-3.725308528e-06	1.247821778e-11
-2.820000000e-02	2.321360456e-01	-1.369217425e-06	6.535368836e-12
-2.830000000e-02	2.321360341e-01	9.868730206e-07	1.206779932e-11
-2.840000000e-02	2.321360225e-01	3.342962801e-06	9.236001974e-12
-2.850000000e-02	2.321360108e-01	5.699051916e-06	1.280363497e-11
-2.860000000e-02	2.321359991e-01	8.055140360e-06	1.103966129e-11
-2.870000000e-02	2.321359873e-01	1.041122813e-05	2.778119115e-11
-2.880000000e-02	2.321359754e-01	1.276731522e-05	2.823877291e-11
-2.890000000e-02	2.321359634e-01	1.512340163e-05	5.720124764e-12
-2.900000000e-02	2.321359514e-01	1.747948736e-05	1.204588927e-11
-2.910000000e-02	2.321359393e-01	1.983557240e-05	2.733342575e-11
-2.920000000e-02	2.321359271e-01	2.219165674e-05	2.247861502e-11
-2.930000000e-02	2.321359149e-01	2.454774039e-05	9.855958606e-12
-2.940000000e-02	2.321359026e-01	2.690382334e-05	1.326347576e-11
-2.950000000e-02	2.321358902e-01	2.925990558e-05	2.700978351e-11
-2.960000000e-02	2.321358778e-01	3.161598712e-05	8.171816285e-12
-2.970000000e-02	2.321358652e-01	3.397206795e-05	7.390761067e-12
-2.980000000e-02	2.321358526e-01	3.632814806e-05	1.338346936e-11
-2.990000000e-02	2.321358400e-01	3.868422746e-05	1.119917489e-11
-3.000000000e-02	2.321358272e-01	4.104030613e-05	9.948127854e-12
