# Im(epsi1)     Re(omega/c)      Im(omega/c)      Eq(det).Opt det CON kz, R=0.5 \mum, mu_c=0.3, Re(epsi1)=3.90solve_det_conkz_vs_kz.py
0.000000000e+00	2.321367996e-01	-6.658008155e-04	1.118429233e-11
-1.000000000e-04	2.321368083e-01	-6.634446804e-04	3.012104529e-11
-2.000000000e-04	2.321368169e-01	-6.610885450e-04	1.880221344e-11
-3.000000000e-04	2.321368255e-01	-6.587324092e-04	1.856877700e-10
-4.000000000e-04	2.321368340e-01	-6.563762731e-04	1.908545925e-11
-5.000000000e-04	2.321368424e-01	-6.540201366e-04	2.936625292e-11
-6.000000000e-04	2.321368507e-01	-6.516639997e-04	2.762510215e-11
-7.000000000e-04	2.321368590e-01	-6.493078625e-04	5.313011966e-12
-8.000000000e-04	2.321368672e-01	-6.469517250e-04	1.360471356e-11
-9.000000000e-04	2.321368753e-01	-6.445955871e-04	1.075477376e-11
-1.000000000e-03	2.321368834e-01	-6.422394489e-04	2.555139308e-11
-1.100000000e-03	2.321368913e-01	-6.398833104e-04	1.278769166e-10
-1.200000000e-03	2.321368992e-01	-6.375271715e-04	2.290821265e-11
-1.300000000e-03	2.321369071e-01	-6.351710323e-04	4.003903807e-11
-1.400000000e-03	2.321369149e-01	-6.328148928e-04	1.573128169e-11
-1.500000000e-03	2.321369225e-01	-6.304587530e-04	8.620314216e-12
-1.600000000e-03	2.321369302e-01	-6.281026129e-04	7.459924172e-12
-1.700000000e-03	2.321369377e-01	-6.257464725e-04	8.032484080e-12
-1.800000000e-03	2.321369452e-01	-6.233903318e-04	1.003139207e-11
-1.900000000e-03	2.321369526e-01	-6.210341907e-04	1.096592044e-11
-2.000000000e-03	2.321369600e-01	-6.186780494e-04	8.380089625e-12
-2.100000000e-03	2.321369672e-01	-6.163219078e-04	4.022438546e-12
-2.200000000e-03	2.321369744e-01	-6.139657659e-04	9.811863760e-12
-2.300000000e-03	2.321369815e-01	-6.116096237e-04	1.317297767e-11
-2.400000000e-03	2.321369886e-01	-6.092534812e-04	1.195928397e-11
-2.500000000e-03	2.321369956e-01	-6.068973384e-04	1.666472076e-11
-2.600000000e-03	2.321370025e-01	-6.045411954e-04	1.456061298e-11
-2.700000000e-03	2.321370093e-01	-6.021850521e-04	1.119137855e-11
-2.800000000e-03	2.321370161e-01	-5.998289085e-04	1.531288036e-11
-2.900000000e-03	2.321370228e-01	-5.974727647e-04	5.033239563e-12
-3.000000000e-03	2.321370294e-01	-5.951166206e-04	1.695693616e-11
-3.100000000e-03	2.321370359e-01	-5.927604762e-04	1.147876391e-11
-3.200000000e-03	2.321370424e-01	-5.904043316e-04	1.548419722e-11
-3.300000000e-03	2.321370488e-01	-5.880481868e-04	1.537274038e-11
-3.400000000e-03	2.321370551e-01	-5.856920417e-04	7.704461266e-12
-3.500000000e-03	2.321370614e-01	-5.833358963e-04	2.661669927e-11
-3.600000000e-03	2.321370676e-01	-5.809797508e-04	9.888996730e-12
-3.700000000e-03	2.321370737e-01	-5.786236050e-04	2.866836314e-11
-3.800000000e-03	2.321370798e-01	-5.762674589e-04	8.499641168e-12
-3.900000000e-03	2.321370857e-01	-5.739113126e-04	6.557969370e-12
-4.000000000e-03	2.321370916e-01	-5.715551661e-04	1.152479590e-11
-4.100000000e-03	2.321370975e-01	-5.691990194e-04	1.120417050e-11
-4.200000000e-03	2.321371032e-01	-5.668428725e-04	8.490973721e-11
-4.300000000e-03	2.321371089e-01	-5.644867254e-04	3.482628598e-11
-4.400000000e-03	2.321371145e-01	-5.621305780e-04	1.194618376e-11
-4.500000000e-03	2.321371201e-01	-5.597744304e-04	1.260113401e-11
-4.600000000e-03	2.321371255e-01	-5.574182827e-04	7.709423980e-12
-4.700000000e-03	2.321371309e-01	-5.550621347e-04	1.726202854e-11
-4.800000000e-03	2.321371363e-01	-5.527059866e-04	1.224981358e-11
-4.900000000e-03	2.321371415e-01	-5.503498382e-04	2.794846255e-11
-5.000000000e-03	2.321371467e-01	-5.479936897e-04	1.027944049e-11
-5.100000000e-03	2.321371518e-01	-5.456375410e-04	2.458503625e-11
-5.200000000e-03	2.321371569e-01	-5.432813921e-04	1.518793296e-11
-5.300000000e-03	2.321371618e-01	-5.409252430e-04	8.234981491e-11
-5.400000000e-03	2.321371667e-01	-5.385690938e-04	6.847293922e-12
-5.500000000e-03	2.321371716e-01	-5.362129444e-04	7.000766675e-12
-5.600000000e-03	2.321371763e-01	-5.338567948e-04	5.877010957e-11
-5.700000000e-03	2.321371810e-01	-5.315006450e-04	7.708738686e-12
-5.800000000e-03	2.321371856e-01	-5.291444951e-04	9.779069465e-12
-5.900000000e-03	2.321371902e-01	-5.267883451e-04	1.337271372e-11
-6.000000000e-03	2.321371946e-01	-5.244321949e-04	6.730605746e-12
-6.100000000e-03	2.321371990e-01	-5.220760445e-04	1.037023425e-11
-6.200000000e-03	2.321372033e-01	-5.197198940e-04	7.870215948e-12
-6.300000000e-03	2.321372076e-01	-5.173637434e-04	1.537907854e-11
-6.400000000e-03	2.321372118e-01	-5.150075926e-04	1.390917741e-11
-6.500000000e-03	2.321372159e-01	-5.126514417e-04	2.738856132e-11
-6.600000000e-03	2.321372199e-01	-5.102952907e-04	2.791221221e-11
-6.700000000e-03	2.321372239e-01	-5.079391395e-04	7.336132293e-11
-6.800000000e-03	2.321372278e-01	-5.055829882e-04	9.698778585e-12
-6.900000000e-03	2.321372316e-01	-5.032268368e-04	1.532795469e-11
-7.000000000e-03	2.321372354e-01	-5.008706853e-04	1.517275457e-11
-7.100000000e-03	2.321372390e-01	-4.985145337e-04	1.226098182e-11
-7.200000000e-03	2.321372427e-01	-4.961583819e-04	1.404308567e-11
-7.300000000e-03	2.321372462e-01	-4.938022301e-04	1.656152312e-11
-7.400000000e-03	2.321372497e-01	-4.914460782e-04	1.235608209e-11
-7.500000000e-03	2.321372530e-01	-4.890899261e-04	1.103439813e-11
-7.600000000e-03	2.321372564e-01	-4.867337740e-04	2.084285938e-11
-7.700000000e-03	2.321372596e-01	-4.843776218e-04	1.430290604e-11
-7.800000000e-03	2.321372628e-01	-4.820214695e-04	1.089474104e-11
-7.900000000e-03	2.321372659e-01	-4.796653171e-04	1.416113989e-11
-8.000000000e-03	2.321372689e-01	-4.773091646e-04	1.145624213e-11
-8.100000000e-03	2.321372719e-01	-4.749530121e-04	4.704739692e-12
-8.200000000e-03	2.321372748e-01	-4.725968595e-04	9.489237465e-12
-8.300000000e-03	2.321372776e-01	-4.702407068e-04	1.280237298e-11
-8.400000000e-03	2.321372804e-01	-4.678845541e-04	1.907457009e-11
-8.500000000e-03	2.321372830e-01	-4.655284013e-04	1.785715856e-11
-8.600000000e-03	2.321372856e-01	-4.631722484e-04	3.765112922e-11
-8.700000000e-03	2.321372882e-01	-4.608160955e-04	3.443936485e-11
-8.800000000e-03	2.321372906e-01	-4.584599426e-04	1.274228658e-11
-8.900000000e-03	2.321372930e-01	-4.561037896e-04	2.119498953e-11
-9.000000000e-03	2.321372953e-01	-4.537476365e-04	2.184851278e-11
-9.100000000e-03	2.321372976e-01	-4.513914834e-04	4.474122756e-11
-9.200000000e-03	2.321372998e-01	-4.490353303e-04	6.815828656e-12
-9.300000000e-03	2.321373019e-01	-4.466791772e-04	1.461950477e-11
-9.400000000e-03	2.321373039e-01	-4.443230240e-04	1.259944061e-11
-9.500000000e-03	2.321373058e-01	-4.419668708e-04	1.676304587e-11
-9.600000000e-03	2.321373077e-01	-4.396107176e-04	1.187676049e-11
-9.700000000e-03	2.321373096e-01	-4.372545643e-04	1.515582262e-11
-9.800000000e-03	2.321373113e-01	-4.348984111e-04	1.214464048e-10
-9.900000000e-03	2.321373130e-01	-4.325422578e-04	1.088952824e-11
-1.000000000e-02	2.321373146e-01	-4.301861046e-04	1.627698578e-11
-1.010000000e-02	2.321373161e-01	-4.278299513e-04	1.565232215e-11
-1.020000000e-02	2.321373176e-01	-4.254737980e-04	1.137525574e-11
-1.030000000e-02	2.321373189e-01	-4.231176448e-04	1.625591791e-11
-1.040000000e-02	2.321373203e-01	-4.207614915e-04	1.036908859e-11
-1.050000000e-02	2.321373215e-01	-4.184053383e-04	1.039236502e-11
-1.060000000e-02	2.321373227e-01	-4.160491851e-04	2.207043910e-11
-1.070000000e-02	2.321373238e-01	-4.136930319e-04	1.245668245e-11
-1.080000000e-02	2.321373248e-01	-4.113368787e-04	1.581662324e-11
-1.090000000e-02	2.321373257e-01	-4.089807255e-04	1.017548440e-11
-1.100000000e-02	2.321373266e-01	-4.066245724e-04	2.186263563e-11
-1.110000000e-02	2.321373274e-01	-4.042684193e-04	4.385201194e-11
-1.120000000e-02	2.321373282e-01	-4.019122663e-04	3.198930235e-11
-1.130000000e-02	2.321373288e-01	-3.995561133e-04	6.823445052e-12
-1.140000000e-02	2.321373294e-01	-3.971999603e-04	3.311710767e-11
-1.150000000e-02	2.321373300e-01	-3.948438074e-04	9.554203927e-12
-1.160000000e-02	2.321373304e-01	-3.924876545e-04	9.759928102e-12
-1.170000000e-02	2.321373308e-01	-3.901315017e-04	1.197223386e-11
-1.180000000e-02	2.321373311e-01	-3.877753490e-04	1.345467411e-11
-1.190000000e-02	2.321373313e-01	-3.854191963e-04	6.283624253e-11
-1.200000000e-02	2.321373315e-01	-3.830630437e-04	9.791487174e-12
-1.210000000e-02	2.321373316e-01	-3.807068911e-04	7.949926092e-12
-1.220000000e-02	2.321373316e-01	-3.783507387e-04	8.740763940e-12
-1.230000000e-02	2.321373316e-01	-3.759945863e-04	1.405845752e-11
-1.240000000e-02	2.321373315e-01	-3.736384340e-04	1.538485416e-11
-1.250000000e-02	2.321373313e-01	-3.712822818e-04	1.102187007e-11
-1.260000000e-02	2.321373310e-01	-3.689261296e-04	1.628894675e-11
-1.270000000e-02	2.321373307e-01	-3.665699776e-04	1.159723464e-11
-1.280000000e-02	2.321373303e-01	-3.642138256e-04	8.942450411e-12
-1.290000000e-02	2.321373298e-01	-3.618576738e-04	9.328578079e-12
-1.300000000e-02	2.321373292e-01	-3.595015220e-04	1.369088606e-11
-1.310000000e-02	2.321373286e-01	-3.571453704e-04	4.478603345e-11
-1.320000000e-02	2.321373279e-01	-3.547892189e-04	1.211550726e-11
-1.330000000e-02	2.321373271e-01	-3.524330675e-04	1.707123733e-11
-1.340000000e-02	2.321373263e-01	-3.500769162e-04	4.463765347e-11
-1.350000000e-02	2.321373254e-01	-3.477207650e-04	2.039516597e-11
-1.360000000e-02	2.321373244e-01	-3.453646140e-04	1.455545443e-11
-1.370000000e-02	2.321373234e-01	-3.430084631e-04	1.592872711e-11
-1.380000000e-02	2.321373222e-01	-3.406523123e-04	1.981464381e-11
-1.390000000e-02	2.321373210e-01	-3.382961616e-04	1.254315765e-11
-1.400000000e-02	2.321373198e-01	-3.359400111e-04	1.059404819e-11
-1.410000000e-02	2.321373184e-01	-3.335838608e-04	2.042674666e-11
-1.420000000e-02	2.321373170e-01	-3.312277105e-04	1.439085133e-11
-1.430000000e-02	2.321373155e-01	-3.288715605e-04	7.468319922e-12
-1.440000000e-02	2.321373140e-01	-3.265154106e-04	6.339156946e-12
-1.450000000e-02	2.321373124e-01	-3.241592608e-04	4.840705431e-11
-1.460000000e-02	2.321373107e-01	-3.218031112e-04	2.713793725e-11
-1.470000000e-02	2.321373089e-01	-3.194469618e-04	8.712443599e-12
-1.480000000e-02	2.321373071e-01	-3.170908125e-04	1.381278646e-11
-1.490000000e-02	2.321373051e-01	-3.147346634e-04	1.775688826e-11
-1.500000000e-02	2.321373032e-01	-3.123785145e-04	2.378913670e-11
-1.510000000e-02	2.321373011e-01	-3.100223658e-04	3.054397504e-11
-1.520000000e-02	2.321372990e-01	-3.076662173e-04	1.152967530e-11
-1.530000000e-02	2.321372968e-01	-3.053100689e-04	2.783168495e-11
-1.540000000e-02	2.321372945e-01	-3.029539207e-04	2.926645528e-11
-1.550000000e-02	2.321372922e-01	-3.005977728e-04	2.526154452e-11
-1.560000000e-02	2.321372897e-01	-2.982416250e-04	2.726159250e-11
-1.570000000e-02	2.321372873e-01	-2.958854774e-04	2.752405901e-11
-1.580000000e-02	2.321372847e-01	-2.935293300e-04	2.488627321e-11
-1.590000000e-02	2.321372821e-01	-2.911731829e-04	2.142469509e-11
-1.600000000e-02	2.321372794e-01	-2.888170359e-04	9.437985485e-12
-1.610000000e-02	2.321372766e-01	-2.864608892e-04	1.361328802e-11
-1.620000000e-02	2.321372737e-01	-2.841047427e-04	1.508754223e-11
-1.630000000e-02	2.321372708e-01	-2.817485964e-04	1.378356499e-11
-1.640000000e-02	2.321372678e-01	-2.793924503e-04	3.982936955e-11
-1.650000000e-02	2.321372648e-01	-2.770363045e-04	8.728098348e-12
-1.660000000e-02	2.321372616e-01	-2.746801589e-04	7.477807937e-11
-1.670000000e-02	2.321372584e-01	-2.723240136e-04	8.314581063e-12
-1.680000000e-02	2.321372552e-01	-2.699678684e-04	1.446860718e-11
-1.690000000e-02	2.321372518e-01	-2.676117236e-04	1.909751611e-11
-1.700000000e-02	2.321372484e-01	-2.652555789e-04	1.196582351e-11
-1.710000000e-02	2.321372449e-01	-2.628994346e-04	2.142775824e-11
-1.720000000e-02	2.321372413e-01	-2.605432905e-04	1.150411306e-11
-1.730000000e-02	2.321372377e-01	-2.581871466e-04	2.693164875e-11
-1.740000000e-02	2.321372340e-01	-2.558310030e-04	2.337318030e-11
-1.750000000e-02	2.321372302e-01	-2.534748597e-04	8.421935350e-12
-1.760000000e-02	2.321372264e-01	-2.511187166e-04	1.177521859e-11
-1.770000000e-02	2.321372225e-01	-2.487625739e-04	1.111288375e-11
-1.780000000e-02	2.321372185e-01	-2.464064314e-04	5.043565401e-11
-1.790000000e-02	2.321372144e-01	-2.440502892e-04	9.574314783e-12
-1.800000000e-02	2.321372103e-01	-2.416941472e-04	1.052004081e-11
-1.810000000e-02	2.321372061e-01	-2.393380056e-04	5.033580564e-11
-1.820000000e-02	2.321372018e-01	-2.369818642e-04	2.122856828e-11
-1.830000000e-02	2.321371974e-01	-2.346257232e-04	1.489434459e-10
-1.840000000e-02	2.321371930e-01	-2.322695824e-04	1.378053843e-11
-1.850000000e-02	2.321371885e-01	-2.299134420e-04	1.368076218e-11
-1.860000000e-02	2.321371839e-01	-2.275573018e-04	8.711584784e-12
-1.870000000e-02	2.321371793e-01	-2.252011620e-04	1.041361671e-11
-1.880000000e-02	2.321371746e-01	-2.228450225e-04	1.375695495e-11
-1.890000000e-02	2.321371698e-01	-2.204888833e-04	6.763111348e-12
-1.900000000e-02	2.321371650e-01	-2.181327444e-04	3.293952203e-11
-1.910000000e-02	2.321371600e-01	-2.157766058e-04	6.458123949e-12
-1.920000000e-02	2.321371550e-01	-2.134204676e-04	1.049989022e-11
-1.930000000e-02	2.321371500e-01	-2.110643297e-04	8.134205138e-12
-1.940000000e-02	2.321371448e-01	-2.087081921e-04	1.341854710e-11
-1.950000000e-02	2.321371396e-01	-2.063520549e-04	1.377493431e-11
-1.960000000e-02	2.321371343e-01	-2.039959180e-04	3.670418698e-11
-1.970000000e-02	2.321371290e-01	-2.016397815e-04	1.259843793e-11
-1.980000000e-02	2.321371235e-01	-1.992836453e-04	1.036796739e-11
-1.990000000e-02	2.321371180e-01	-1.969275095e-04	2.027662881e-11
-2.000000000e-02	2.321371125e-01	-1.945713741e-04	6.394795377e-11
-2.010000000e-02	2.321371068e-01	-1.922152390e-04	1.694267943e-11
-2.020000000e-02	2.321371011e-01	-1.898591042e-04	7.604772588e-12
-2.030000000e-02	2.321370953e-01	-1.875029698e-04	1.531164588e-11
-2.040000000e-02	2.321370895e-01	-1.851468359e-04	1.011875028e-11
-2.050000000e-02	2.321370835e-01	-1.827907022e-04	1.028281272e-11
-2.060000000e-02	2.321370775e-01	-1.804345690e-04	1.262415801e-11
-2.070000000e-02	2.321370715e-01	-1.780784361e-04	4.174155709e-12
-2.080000000e-02	2.321370653e-01	-1.757223037e-04	1.465635792e-11
-2.090000000e-02	2.321370591e-01	-1.733661716e-04	9.388155127e-12
-2.100000000e-02	2.321370528e-01	-1.710100399e-04	2.550354828e-11
-2.110000000e-02	2.321370465e-01	-1.686539086e-04	1.717012210e-11
-2.120000000e-02	2.321370400e-01	-1.662977777e-04	1.782792655e-11
-2.130000000e-02	2.321370335e-01	-1.639416472e-04	2.091848615e-11
-2.140000000e-02	2.321370270e-01	-1.615855172e-04	7.639569618e-12
-2.150000000e-02	2.321370203e-01	-1.592293875e-04	7.538633195e-12
-2.160000000e-02	2.321370136e-01	-1.568732583e-04	1.760314599e-11
-2.170000000e-02	2.321370068e-01	-1.545171294e-04	2.018539149e-11
-2.180000000e-02	2.321369999e-01	-1.521610010e-04	9.356732030e-12
-2.190000000e-02	2.321369930e-01	-1.498048731e-04	1.729301232e-11
-2.200000000e-02	2.321369860e-01	-1.474487455e-04	8.973975688e-12
-2.210000000e-02	2.321369789e-01	-1.450926184e-04	5.552295975e-12
-2.220000000e-02	2.321369718e-01	-1.427364918e-04	1.686123035e-11
-2.230000000e-02	2.321369646e-01	-1.403803655e-04	9.742582080e-12
-2.240000000e-02	2.321369573e-01	-1.380242397e-04	1.520569326e-11
-2.250000000e-02	2.321369499e-01	-1.356681144e-04	1.068333373e-11
-2.260000000e-02	2.321369425e-01	-1.333119895e-04	1.737817725e-11
-2.270000000e-02	2.321369350e-01	-1.309558651e-04	6.835694715e-11
-2.280000000e-02	2.321369274e-01	-1.285997411e-04	2.152499894e-11
-2.290000000e-02	2.321369197e-01	-1.262436176e-04	1.359682463e-11
-2.300000000e-02	2.321369120e-01	-1.238874946e-04	1.756219354e-11
-2.310000000e-02	2.321369042e-01	-1.215313720e-04	3.349326388e-11
-2.320000000e-02	2.321368964e-01	-1.191752499e-04	1.643053811e-11
-2.330000000e-02	2.321368884e-01	-1.168191283e-04	1.590182582e-11
-2.340000000e-02	2.321368804e-01	-1.144630072e-04	1.500111067e-11
-2.350000000e-02	2.321368723e-01	-1.121068865e-04	4.487730905e-12
-2.360000000e-02	2.321368642e-01	-1.097507664e-04	6.560314226e-12
-2.370000000e-02	2.321368560e-01	-1.073946467e-04	3.305985693e-11
-2.380000000e-02	2.321368477e-01	-1.050385276e-04	1.298439288e-11
-2.390000000e-02	2.321368393e-01	-1.026824089e-04	1.370892277e-11
-2.400000000e-02	2.321368309e-01	-1.003262907e-04	1.046138304e-11
-2.410000000e-02	2.321368223e-01	-9.797017306e-05	1.848036945e-11
-2.420000000e-02	2.321368138e-01	-9.561405591e-05	8.968402754e-12
-2.430000000e-02	2.321368051e-01	-9.325793928e-05	3.359006308e-11
-2.440000000e-02	2.321367964e-01	-9.090182316e-05	2.355629463e-11
-2.450000000e-02	2.321367876e-01	-8.854570757e-05	9.418971421e-12
-2.460000000e-02	2.321367787e-01	-8.618959250e-05	1.408828823e-11
-2.470000000e-02	2.321367698e-01	-8.383347797e-05	1.038833645e-10
-2.480000000e-02	2.321367608e-01	-8.147736395e-05	8.591237314e-12
-2.490000000e-02	2.321367517e-01	-7.912125048e-05	1.791973518e-11
-2.500000000e-02	2.321367425e-01	-7.676513755e-05	1.477981312e-11
-2.510000000e-02	2.321367333e-01	-7.440902516e-05	6.035922912e-12
-2.520000000e-02	2.321367240e-01	-7.205291331e-05	1.302433567e-11
-2.530000000e-02	2.321367146e-01	-6.969680202e-05	1.014103999e-11
-2.540000000e-02	2.321367052e-01	-6.734069129e-05	3.900412989e-11
-2.550000000e-02	2.321366957e-01	-6.498458111e-05	1.655216695e-11
-2.560000000e-02	2.321366861e-01	-6.262847149e-05	9.951042547e-12
-2.570000000e-02	2.321366764e-01	-6.027236244e-05	1.772669699e-11
-2.580000000e-02	2.321366667e-01	-5.791625395e-05	1.155244431e-11
-2.590000000e-02	2.321366569e-01	-5.556014604e-05	3.044298921e-11
-2.600000000e-02	2.321366470e-01	-5.320403871e-05	1.318773530e-11
-2.610000000e-02	2.321366371e-01	-5.084793195e-05	6.670964254e-12
-2.620000000e-02	2.321366271e-01	-4.849182578e-05	2.392431715e-11
-2.630000000e-02	2.321366170e-01	-4.613572020e-05	1.449396585e-11
-2.640000000e-02	2.321366068e-01	-4.377961520e-05	2.689576500e-11
-2.650000000e-02	2.321365966e-01	-4.142351080e-05	6.033950796e-11
-2.660000000e-02	2.321365863e-01	-3.906740700e-05	8.567117770e-12
-2.670000000e-02	2.321365759e-01	-3.671130379e-05	9.579536841e-12
-2.680000000e-02	2.321365655e-01	-3.435520120e-05	1.324303189e-11
-2.690000000e-02	2.321365549e-01	-3.199909921e-05	8.241196823e-12
-2.700000000e-02	2.321365444e-01	-2.964299784e-05	3.461787448e-11
-2.710000000e-02	2.321365337e-01	-2.728689708e-05	1.593355335e-11
-2.720000000e-02	2.321365230e-01	-2.493079694e-05	1.206690352e-11
-2.730000000e-02	2.321365122e-01	-2.257469743e-05	1.071075831e-11
-2.740000000e-02	2.321365013e-01	-2.021859853e-05	1.272715300e-11
-2.750000000e-02	2.321364903e-01	-1.786250028e-05	2.536222941e-11
-2.760000000e-02	2.321364793e-01	-1.550640265e-05	1.353359110e-11
-2.770000000e-02	2.321364682e-01	-1.315030566e-05	3.211756079e-11
-2.780000000e-02	2.321364571e-01	-1.079420932e-05	9.793326549e-12
-2.790000000e-02	2.321364458e-01	-8.438113624e-06	2.805830619e-11
-2.800000000e-02	2.321364345e-01	-6.082018575e-06	1.816534243e-11
-2.810000000e-02	2.321364231e-01	-3.725924175e-06	6.126433638e-12
-2.820000000e-02	2.321364117e-01	-1.369830438e-06	6.876641723e-11
-2.830000000e-02	2.321364002e-01	9.862626498e-07	4.996173007e-12
-2.840000000e-02	2.321363886e-01	3.342355066e-06	2.538346379e-11
-2.850000000e-02	2.321363769e-01	5.698446820e-06	1.265410801e-11
-2.860000000e-02	2.321363652e-01	8.054537902e-06	1.243380904e-11
-2.870000000e-02	2.321363534e-01	1.041062831e-05	5.239211507e-11
-2.880000000e-02	2.321363415e-01	1.276671804e-05	2.797156399e-11
-2.890000000e-02	2.321363295e-01	1.512280709e-05	6.226983637e-12
-2.900000000e-02	2.321363175e-01	1.747889545e-05	1.453877482e-11
-2.910000000e-02	2.321363054e-01	1.983498312e-05	1.084664878e-11
-2.920000000e-02	2.321362932e-01	2.219107011e-05	3.299805535e-11
-2.930000000e-02	2.321362810e-01	2.454715639e-05	1.214968859e-11
-2.940000000e-02	2.321362687e-01	2.690324198e-05	1.084434135e-11
-2.950000000e-02	2.321362563e-01	2.925932686e-05	2.910164737e-11
-2.960000000e-02	2.321362439e-01	3.161541104e-05	8.613802448e-12
-2.970000000e-02	2.321362313e-01	3.397149450e-05	9.443672448e-12
-2.980000000e-02	2.321362187e-01	3.632757725e-05	2.444546437e-11
-2.990000000e-02	2.321362061e-01	3.868365929e-05	2.371878460e-11
-3.000000000e-02	2.321361933e-01	4.103974060e-05	1.094913044e-11
