# Im(epsi1)     Re(omega/c)      Im(omega/c)      Eq(det).Opt det CON kz, R=0.5 \mum, mu_c=0.3, Re(epsi1)=3.90solve_det_conkz_vs_kz.py
0.000000000e+00	2.321354215e-01	-6.657957079e-04	1.374427251e-11
-1.000000000e-04	2.321354302e-01	-6.634395827e-04	1.113524440e-11
-2.000000000e-04	2.321354388e-01	-6.610834572e-04	9.014365743e-12
-3.000000000e-04	2.321354473e-01	-6.587273314e-04	1.377011146e-11
-4.000000000e-04	2.321354558e-01	-6.563712051e-04	3.359943603e-11
-5.000000000e-04	2.321354642e-01	-6.540150786e-04	3.768324111e-11
-6.000000000e-04	2.321354726e-01	-6.516589516e-04	6.902736218e-12
-7.000000000e-04	2.321354808e-01	-6.493028244e-04	1.454400538e-11
-8.000000000e-04	2.321354890e-01	-6.469466968e-04	8.600311011e-12
-9.000000000e-04	2.321354972e-01	-6.445905688e-04	1.497418039e-11
-1.000000000e-03	2.321355052e-01	-6.422344405e-04	1.745038856e-11
-1.100000000e-03	2.321355132e-01	-6.398783119e-04	1.608115020e-11
-1.200000000e-03	2.321355211e-01	-6.375221830e-04	1.594979982e-11
-1.300000000e-03	2.321355289e-01	-6.351660538e-04	2.883208564e-11
-1.400000000e-03	2.321355367e-01	-6.328099242e-04	1.071281714e-11
-1.500000000e-03	2.321355444e-01	-6.304537943e-04	1.115480374e-11
-1.600000000e-03	2.321355520e-01	-6.280976641e-04	8.879649129e-12
-1.700000000e-03	2.321355596e-01	-6.257415336e-04	3.417553107e-11
-1.800000000e-03	2.321355671e-01	-6.233854028e-04	1.390560777e-11
-1.900000000e-03	2.321355745e-01	-6.210292717e-04	1.225167614e-11
-2.000000000e-03	2.321355818e-01	-6.186731403e-04	8.724782260e-12
-2.100000000e-03	2.321355891e-01	-6.163170086e-04	1.011630561e-11
-2.200000000e-03	2.321355963e-01	-6.139608766e-04	2.221532259e-11
-2.300000000e-03	2.321356034e-01	-6.116047444e-04	1.803290246e-11
-2.400000000e-03	2.321356104e-01	-6.092486118e-04	1.263644250e-11
-2.500000000e-03	2.321356174e-01	-6.068924790e-04	1.870826262e-11
-2.600000000e-03	2.321356243e-01	-6.045363459e-04	8.513464054e-12
-2.700000000e-03	2.321356312e-01	-6.021802125e-04	2.541256446e-11
-2.800000000e-03	2.321356379e-01	-5.998240789e-04	1.140738326e-11
-2.900000000e-03	2.321356446e-01	-5.974679450e-04	2.725225157e-11
-3.000000000e-03	2.321356512e-01	-5.951118108e-04	5.725670731e-12
-3.100000000e-03	2.321356578e-01	-5.927556764e-04	1.029448917e-10
-3.200000000e-03	2.321356643e-01	-5.903995417e-04	3.463689834e-11
-3.300000000e-03	2.321356707e-01	-5.880434068e-04	1.854700186e-11
-3.400000000e-03	2.321356770e-01	-5.856872716e-04	9.802231116e-12
-3.500000000e-03	2.321356833e-01	-5.833311362e-04	1.518773271e-11
-3.600000000e-03	2.321356894e-01	-5.809750005e-04	1.180118647e-11
-3.700000000e-03	2.321356956e-01	-5.786188647e-04	2.012229525e-11
-3.800000000e-03	2.321357016e-01	-5.762627285e-04	2.411482008e-11
-3.900000000e-03	2.321357076e-01	-5.739065922e-04	3.241685658e-11
-4.000000000e-03	2.321357135e-01	-5.715504556e-04	9.758150169e-12
-4.100000000e-03	2.321357193e-01	-5.691943189e-04	1.729156144e-11
-4.200000000e-03	2.321357251e-01	-5.668381819e-04	2.868947015e-11
-4.300000000e-03	2.321357308e-01	-5.644820446e-04	7.726619161e-12
-4.400000000e-03	2.321357364e-01	-5.621259072e-04	2.870553516e-11
-4.500000000e-03	2.321357419e-01	-5.597697696e-04	3.161662532e-11
-4.600000000e-03	2.321357474e-01	-5.574136318e-04	2.404185055e-11
-4.700000000e-03	2.321357528e-01	-5.550574937e-04	2.641594942e-11
-4.800000000e-03	2.321357581e-01	-5.527013555e-04	9.824040077e-12
-4.900000000e-03	2.321357634e-01	-5.503452171e-04	9.476178541e-12
-5.000000000e-03	2.321357686e-01	-5.479890785e-04	8.319721564e-12
-5.100000000e-03	2.321357737e-01	-5.456329397e-04	1.139139176e-11
-5.200000000e-03	2.321357787e-01	-5.432768007e-04	1.150194952e-11
-5.300000000e-03	2.321357837e-01	-5.409206616e-04	1.112445033e-11
-5.400000000e-03	2.321357886e-01	-5.385645223e-04	1.652102010e-11
-5.500000000e-03	2.321357934e-01	-5.362083828e-04	5.470721339e-12
-5.600000000e-03	2.321357982e-01	-5.338522431e-04	1.020147923e-11
-5.700000000e-03	2.321358029e-01	-5.314961033e-04	1.092874449e-11
-5.800000000e-03	2.321358075e-01	-5.291399633e-04	6.085307501e-12
-5.900000000e-03	2.321358120e-01	-5.267838232e-04	7.994407333e-12
-6.000000000e-03	2.321358165e-01	-5.244276829e-04	1.686460467e-11
-6.100000000e-03	2.321358209e-01	-5.220715425e-04	1.234764287e-11
-6.200000000e-03	2.321358252e-01	-5.197154019e-04	1.648349658e-11
-6.300000000e-03	2.321358295e-01	-5.173592612e-04	1.062673623e-11
-6.400000000e-03	2.321358336e-01	-5.150031204e-04	1.584330671e-11
-6.500000000e-03	2.321358377e-01	-5.126469794e-04	1.072872609e-11
-6.600000000e-03	2.321358418e-01	-5.102908383e-04	1.233045252e-11
-6.700000000e-03	2.321358458e-01	-5.079346971e-04	2.216365304e-11
-6.800000000e-03	2.321358496e-01	-5.055785557e-04	1.816632419e-11
-6.900000000e-03	2.321358535e-01	-5.032224142e-04	1.156742931e-11
-7.000000000e-03	2.321358572e-01	-5.008662727e-04	1.591055550e-11
-7.100000000e-03	2.321358609e-01	-4.985101310e-04	1.305277295e-11
-7.200000000e-03	2.321358645e-01	-4.961539892e-04	6.436202077e-12
-7.300000000e-03	2.321358680e-01	-4.937978472e-04	6.874057621e-12
-7.400000000e-03	2.321358715e-01	-4.914417052e-04	6.549244335e-11
-7.500000000e-03	2.321358749e-01	-4.890855631e-04	2.232594971e-11
-7.600000000e-03	2.321358782e-01	-4.867294209e-04	1.100752054e-11
-7.700000000e-03	2.321358815e-01	-4.843732786e-04	8.693153357e-12
-7.800000000e-03	2.321358847e-01	-4.820171363e-04	2.219978270e-11
-7.900000000e-03	2.321358878e-01	-4.796609938e-04	1.167980326e-11
-8.000000000e-03	2.321358908e-01	-4.773048513e-04	2.175546715e-10
-8.100000000e-03	2.321358938e-01	-4.749487087e-04	2.061552793e-11
-8.200000000e-03	2.321358966e-01	-4.725925660e-04	1.061037193e-11
-8.300000000e-03	2.321358995e-01	-4.702364232e-04	1.638638783e-11
-8.400000000e-03	2.321359022e-01	-4.678802804e-04	2.104385476e-11
-8.500000000e-03	2.321359049e-01	-4.655241376e-04	1.101056035e-11
-8.600000000e-03	2.321359075e-01	-4.631679946e-04	9.306483432e-12
-8.700000000e-03	2.321359100e-01	-4.608118517e-04	2.375453514e-11
-8.800000000e-03	2.321359125e-01	-4.584557086e-04	2.552045896e-11
-8.900000000e-03	2.321359149e-01	-4.560995656e-04	4.638134802e-11
-9.000000000e-03	2.321359172e-01	-4.537434224e-04	5.532816351e-12
-9.100000000e-03	2.321359194e-01	-4.513872793e-04	7.598713128e-12
-9.200000000e-03	2.321359216e-01	-4.490311361e-04	8.474090461e-12
-9.300000000e-03	2.321359237e-01	-4.466749929e-04	1.201532362e-11
-9.400000000e-03	2.321359257e-01	-4.443188496e-04	9.135494289e-12
-9.500000000e-03	2.321359277e-01	-4.419627064e-04	6.042291885e-12
-9.600000000e-03	2.321359296e-01	-4.396065631e-04	6.770457711e-11
-9.700000000e-03	2.321359314e-01	-4.372504198e-04	3.310642872e-11
-9.800000000e-03	2.321359331e-01	-4.348942764e-04	1.210814357e-11
-9.900000000e-03	2.321359348e-01	-4.325381331e-04	7.178177550e-12
-1.000000000e-02	2.321359364e-01	-4.301819898e-04	1.533447283e-11
-1.010000000e-02	2.321359380e-01	-4.278258464e-04	8.642803957e-12
-1.020000000e-02	2.321359394e-01	-4.254697031e-04	1.389650771e-11
-1.030000000e-02	2.321359408e-01	-4.231135598e-04	7.700462860e-12
-1.040000000e-02	2.321359421e-01	-4.207574164e-04	7.123541781e-12
-1.050000000e-02	2.321359433e-01	-4.184012731e-04	1.358185908e-11
-1.060000000e-02	2.321359445e-01	-4.160451298e-04	1.572833869e-11
-1.070000000e-02	2.321359456e-01	-4.136889866e-04	1.111753689e-11
-1.080000000e-02	2.321359466e-01	-4.113328433e-04	1.560538453e-11
-1.090000000e-02	2.321359476e-01	-4.089767001e-04	1.384816845e-11
-1.100000000e-02	2.321359485e-01	-4.066205569e-04	9.551990840e-12
-1.110000000e-02	2.321359493e-01	-4.042644137e-04	2.049212953e-11
-1.120000000e-02	2.321359500e-01	-4.019082706e-04	9.557542828e-12
-1.130000000e-02	2.321359507e-01	-3.995521275e-04	1.352181209e-11
-1.140000000e-02	2.321359513e-01	-3.971959845e-04	9.259678944e-12
-1.150000000e-02	2.321359518e-01	-3.948398415e-04	1.606582040e-11
-1.160000000e-02	2.321359523e-01	-3.924836986e-04	1.135161338e-11
-1.170000000e-02	2.321359527e-01	-3.901275557e-04	4.851437494e-12
-1.180000000e-02	2.321359530e-01	-3.877714129e-04	1.415111027e-11
-1.190000000e-02	2.321359532e-01	-3.854152702e-04	1.710858800e-11
-1.200000000e-02	2.321359534e-01	-3.830591275e-04	9.731910359e-12
-1.210000000e-02	2.321359535e-01	-3.807029849e-04	9.276131997e-12
-1.220000000e-02	2.321359535e-01	-3.783468423e-04	1.286354063e-11
-1.230000000e-02	2.321359534e-01	-3.759906999e-04	1.949071557e-11
-1.240000000e-02	2.321359533e-01	-3.736345575e-04	1.605043636e-11
-1.250000000e-02	2.321359531e-01	-3.712784152e-04	1.648341889e-10
-1.260000000e-02	2.321359529e-01	-3.689222730e-04	1.381046079e-11
-1.270000000e-02	2.321359525e-01	-3.665661309e-04	2.113568573e-11
-1.280000000e-02	2.321359521e-01	-3.642099888e-04	1.359960991e-11
-1.290000000e-02	2.321359516e-01	-3.618538469e-04	4.565939466e-11
-1.300000000e-02	2.321359511e-01	-3.594977051e-04	1.208244711e-11
-1.310000000e-02	2.321359505e-01	-3.571415634e-04	1.249616671e-11
-1.320000000e-02	2.321359498e-01	-3.547854218e-04	3.873756412e-11
-1.330000000e-02	2.321359490e-01	-3.524292803e-04	1.659520898e-11
-1.340000000e-02	2.321359482e-01	-3.500731390e-04	1.474724226e-11
-1.350000000e-02	2.321359473e-01	-3.477169977e-04	8.750257967e-12
-1.360000000e-02	2.321359463e-01	-3.453608566e-04	1.910035501e-11
-1.370000000e-02	2.321359452e-01	-3.430047156e-04	1.026840458e-11
-1.380000000e-02	2.321359441e-01	-3.406485748e-04	1.332599138e-11
-1.390000000e-02	2.321359429e-01	-3.382924341e-04	1.108486123e-11
-1.400000000e-02	2.321359416e-01	-3.359362935e-04	4.478943149e-11
-1.410000000e-02	2.321359403e-01	-3.335801530e-04	1.827146014e-11
-1.420000000e-02	2.321359389e-01	-3.312240128e-04	9.303846735e-12
-1.430000000e-02	2.321359374e-01	-3.288678726e-04	6.619169647e-12
-1.440000000e-02	2.321359358e-01	-3.265117326e-04	1.296266504e-11
-1.450000000e-02	2.321359342e-01	-3.241555928e-04	4.725440164e-12
-1.460000000e-02	2.321359325e-01	-3.217994531e-04	1.067309313e-11
-1.470000000e-02	2.321359307e-01	-3.194433136e-04	1.015571768e-11
-1.480000000e-02	2.321359289e-01	-3.170871743e-04	7.756499412e-12
-1.490000000e-02	2.321359270e-01	-3.147310352e-04	2.579676954e-11
-1.500000000e-02	2.321359250e-01	-3.123748962e-04	1.223000106e-11
-1.510000000e-02	2.321359229e-01	-3.100187574e-04	1.440597455e-11
-1.520000000e-02	2.321359208e-01	-3.076626188e-04	1.012929346e-11
-1.530000000e-02	2.321359186e-01	-3.053064803e-04	1.242053638e-11
-1.540000000e-02	2.321359163e-01	-3.029503421e-04	3.235827696e-11
-1.550000000e-02	2.321359140e-01	-3.005942040e-04	3.286350505e-11
-1.560000000e-02	2.321359116e-01	-2.982380662e-04	3.280684984e-11
-1.570000000e-02	2.321359091e-01	-2.958819286e-04	1.277809257e-11
-1.580000000e-02	2.321359065e-01	-2.935257911e-04	5.401068864e-11
-1.590000000e-02	2.321359039e-01	-2.911696539e-04	2.827057225e-11
-1.600000000e-02	2.321359012e-01	-2.888135169e-04	1.584884903e-11
-1.610000000e-02	2.321358984e-01	-2.864573801e-04	6.887864350e-11
-1.620000000e-02	2.321358956e-01	-2.841012435e-04	7.171379091e-12
-1.630000000e-02	2.321358927e-01	-2.817451071e-04	8.733077883e-12
-1.640000000e-02	2.321358897e-01	-2.793889710e-04	1.458123864e-11
-1.650000000e-02	2.321358866e-01	-2.770328351e-04	1.069485273e-11
-1.660000000e-02	2.321358835e-01	-2.746766994e-04	1.414955556e-11
-1.670000000e-02	2.321358803e-01	-2.723205640e-04	7.188976077e-12
-1.680000000e-02	2.321358770e-01	-2.699644288e-04	6.986342028e-12
-1.690000000e-02	2.321358737e-01	-2.676082939e-04	7.139255852e-11
-1.700000000e-02	2.321358702e-01	-2.652521592e-04	6.590148243e-12
-1.710000000e-02	2.321358668e-01	-2.628960247e-04	8.277566494e-12
-1.720000000e-02	2.321358632e-01	-2.605398905e-04	2.028683197e-10
-1.730000000e-02	2.321358596e-01	-2.581837566e-04	6.627096814e-12
-1.740000000e-02	2.321358558e-01	-2.558276230e-04	1.553812776e-11
-1.750000000e-02	2.321358521e-01	-2.534714896e-04	1.189718514e-11
-1.760000000e-02	2.321358482e-01	-2.511153564e-04	1.677069987e-11
-1.770000000e-02	2.321358443e-01	-2.487592236e-04	2.061223047e-11
-1.780000000e-02	2.321358403e-01	-2.464030910e-04	1.154905799e-11
-1.790000000e-02	2.321358362e-01	-2.440469587e-04	1.686697068e-11
-1.800000000e-02	2.321358321e-01	-2.416908267e-04	1.593929214e-11
-1.810000000e-02	2.321358279e-01	-2.393346950e-04	5.757412770e-12
-1.820000000e-02	2.321358236e-01	-2.369785636e-04	8.773796523e-12
-1.830000000e-02	2.321358193e-01	-2.346224325e-04	3.429480610e-11
-1.840000000e-02	2.321358148e-01	-2.322663016e-04	1.161863585e-11
-1.850000000e-02	2.321358103e-01	-2.299101711e-04	2.906938469e-11
-1.860000000e-02	2.321358058e-01	-2.275540409e-04	1.155992447e-11
-1.870000000e-02	2.321358011e-01	-2.251979110e-04	7.137319494e-11
-1.880000000e-02	2.321357964e-01	-2.228417814e-04	1.944958987e-11
-1.890000000e-02	2.321357917e-01	-2.204856521e-04	1.146515077e-11
-1.900000000e-02	2.321357868e-01	-2.181295232e-04	4.624807170e-11
-1.910000000e-02	2.321357819e-01	-2.157733945e-04	1.108022967e-11
-1.920000000e-02	2.321357769e-01	-2.134172663e-04	1.097575159e-11
-1.930000000e-02	2.321357718e-01	-2.110611383e-04	1.459748386e-11
-1.940000000e-02	2.321357667e-01	-2.087050107e-04	1.003132275e-11
-1.950000000e-02	2.321357615e-01	-2.063488834e-04	1.262996292e-11
-1.960000000e-02	2.321357562e-01	-2.039927564e-04	9.861871586e-12
-1.970000000e-02	2.321357508e-01	-2.016366298e-04	8.985439408e-12
-1.980000000e-02	2.321357454e-01	-1.992805036e-04	1.219733827e-11
-1.990000000e-02	2.321357399e-01	-1.969243777e-04	1.294665029e-11
-2.000000000e-02	2.321357343e-01	-1.945682521e-04	1.047584328e-11
-2.010000000e-02	2.321357287e-01	-1.922121270e-04	7.759469876e-12
-2.020000000e-02	2.321357230e-01	-1.898560022e-04	4.766790529e-12
-2.030000000e-02	2.321357172e-01	-1.874998777e-04	1.370555902e-11
-2.040000000e-02	2.321357113e-01	-1.851437537e-04	1.878009985e-11
-2.050000000e-02	2.321357054e-01	-1.827876300e-04	1.711129057e-11
-2.060000000e-02	2.321356994e-01	-1.804315067e-04	1.916425791e-11
-2.070000000e-02	2.321356933e-01	-1.780753837e-04	3.204763005e-11
-2.080000000e-02	2.321356872e-01	-1.757192612e-04	1.507811784e-11
-2.090000000e-02	2.321356810e-01	-1.733631390e-04	5.104780184e-11
-2.100000000e-02	2.321356747e-01	-1.710070173e-04	1.038440324e-11
-2.110000000e-02	2.321356683e-01	-1.686508959e-04	1.340985043e-11
-2.120000000e-02	2.321356619e-01	-1.662947750e-04	3.407040105e-11
-2.130000000e-02	2.321356554e-01	-1.639386544e-04	5.607190973e-11
-2.140000000e-02	2.321356488e-01	-1.615825343e-04	5.763588103e-11
-2.150000000e-02	2.321356422e-01	-1.592264145e-04	1.878138541e-11
-2.160000000e-02	2.321356354e-01	-1.568702952e-04	2.629749980e-11
-2.170000000e-02	2.321356287e-01	-1.545141763e-04	2.056458391e-11
-2.180000000e-02	2.321356218e-01	-1.521580579e-04	7.342199444e-12
-2.190000000e-02	2.321356149e-01	-1.498019398e-04	9.835942271e-12
-2.200000000e-02	2.321356079e-01	-1.474458222e-04	1.564656505e-11
-2.210000000e-02	2.321356008e-01	-1.450897050e-04	3.464991881e-11
-2.220000000e-02	2.321355936e-01	-1.427335883e-04	3.505788081e-11
-2.230000000e-02	2.321355864e-01	-1.403774720e-04	4.044038464e-12
-2.240000000e-02	2.321355791e-01	-1.380213561e-04	1.313922674e-11
-2.250000000e-02	2.321355718e-01	-1.356652407e-04	1.071199735e-11
-2.260000000e-02	2.321355643e-01	-1.333091258e-04	2.176198518e-11
-2.270000000e-02	2.321355568e-01	-1.309530113e-04	2.404330665e-11
-2.280000000e-02	2.321355492e-01	-1.285968972e-04	6.745010981e-11
-2.290000000e-02	2.321355416e-01	-1.262407837e-04	4.562145084e-11
-2.300000000e-02	2.321355339e-01	-1.238846706e-04	1.452886024e-11
-2.310000000e-02	2.321355261e-01	-1.215285579e-04	6.779444561e-12
-2.320000000e-02	2.321355182e-01	-1.191724458e-04	1.458556462e-11
-2.330000000e-02	2.321355103e-01	-1.168163341e-04	7.090963051e-12
-2.340000000e-02	2.321355023e-01	-1.144602229e-04	1.279798177e-11
-2.350000000e-02	2.321354942e-01	-1.121041122e-04	1.425465583e-11
-2.360000000e-02	2.321354860e-01	-1.097480019e-04	2.403403520e-11
-2.370000000e-02	2.321354778e-01	-1.073918922e-04	3.212825008e-11
-2.380000000e-02	2.321354695e-01	-1.050357829e-04	4.256069325e-11
-2.390000000e-02	2.321354611e-01	-1.026796742e-04	4.664414688e-11
-2.400000000e-02	2.321354527e-01	-1.003235660e-04	1.741282791e-11
-2.410000000e-02	2.321354442e-01	-9.796745824e-05	1.024042661e-11
-2.420000000e-02	2.321354356e-01	-9.561135102e-05	9.524757111e-12
-2.430000000e-02	2.321354270e-01	-9.325524432e-05	1.086655867e-11
-2.440000000e-02	2.321354182e-01	-9.089913813e-05	1.736994420e-11
-2.450000000e-02	2.321354094e-01	-8.854303246e-05	1.216699826e-11
-2.460000000e-02	2.321354006e-01	-8.618692732e-05	1.598183273e-11
-2.470000000e-02	2.321353916e-01	-8.383082271e-05	1.073597719e-11
-2.480000000e-02	2.321353826e-01	-8.147471863e-05	2.559105197e-11
-2.490000000e-02	2.321353735e-01	-7.911861509e-05	8.436084072e-12
-2.500000000e-02	2.321353644e-01	-7.676251209e-05	1.056082288e-11
-2.510000000e-02	2.321353551e-01	-7.440640963e-05	2.459380015e-11
-2.520000000e-02	2.321353458e-01	-7.205030771e-05	9.832119610e-12
-2.530000000e-02	2.321353365e-01	-6.969420635e-05	1.679129648e-11
-2.540000000e-02	2.321353270e-01	-6.733810554e-05	7.774550865e-12
-2.550000000e-02	2.321353175e-01	-6.498200529e-05	1.089361403e-11
-2.560000000e-02	2.321353079e-01	-6.262590560e-05	1.273998823e-11
-2.570000000e-02	2.321352983e-01	-6.026980648e-05	9.463523211e-12
-2.580000000e-02	2.321352885e-01	-5.791370793e-05	1.495497193e-11
-2.590000000e-02	2.321352787e-01	-5.555760994e-05	6.476115102e-11
-2.600000000e-02	2.321352689e-01	-5.320151254e-05	1.149532364e-11
-2.610000000e-02	2.321352589e-01	-5.084541571e-05	2.623369939e-11
-2.620000000e-02	2.321352489e-01	-4.848931947e-05	1.530331700e-11
-2.630000000e-02	2.321352388e-01	-4.613322381e-05	2.956685655e-11
-2.640000000e-02	2.321352287e-01	-4.377712875e-05	1.150923429e-10
-2.650000000e-02	2.321352184e-01	-4.142103427e-05	3.838473511e-11
-2.660000000e-02	2.321352081e-01	-3.906494040e-05	7.944000253e-12
-2.670000000e-02	2.321351978e-01	-3.670884713e-05	1.830294861e-11
-2.680000000e-02	2.321351873e-01	-3.435275446e-05	1.630422125e-11
-2.690000000e-02	2.321351768e-01	-3.199666241e-05	1.633035592e-11
-2.700000000e-02	2.321351662e-01	-2.964057096e-05	4.108656817e-12
-2.710000000e-02	2.321351555e-01	-2.728448014e-05	4.343751071e-11
-2.720000000e-02	2.321351448e-01	-2.492838992e-05	1.380759479e-11
-2.730000000e-02	2.321351340e-01	-2.257230034e-05	9.060184757e-12
-2.740000000e-02	2.321351231e-01	-2.021621138e-05	1.485328932e-11
-2.750000000e-02	2.321351122e-01	-1.786012305e-05	2.023848959e-11
-2.760000000e-02	2.321351012e-01	-1.550403535e-05	1.171470041e-11
-2.770000000e-02	2.321350901e-01	-1.314794830e-05	1.652913526e-11
-2.780000000e-02	2.321350789e-01	-1.079186188e-05	1.998305886e-11
-2.790000000e-02	2.321350677e-01	-8.435776109e-06	1.665487359e-11
-2.800000000e-02	2.321350564e-01	-6.079690990e-06	1.193978360e-11
-2.810000000e-02	2.321350450e-01	-3.723606519e-06	7.694411179e-12
-2.820000000e-02	2.321350335e-01	-1.367522708e-06	8.465080370e-12
-2.830000000e-02	2.321350220e-01	9.885604498e-07	3.472614545e-11
-2.840000000e-02	2.321350104e-01	3.344642937e-06	8.973938018e-12
-2.850000000e-02	2.321349988e-01	5.700724760e-06	1.067923279e-11
-2.860000000e-02	2.321349870e-01	8.056805913e-06	1.285238296e-11
-2.870000000e-02	2.321349752e-01	1.041288639e-05	7.261563701e-12
-2.880000000e-02	2.321349633e-01	1.276896619e-05	2.545317712e-11
-2.890000000e-02	2.321349514e-01	1.512504530e-05	1.340539795e-10
-2.900000000e-02	2.321349393e-01	1.748112374e-05	1.631424600e-11
-2.910000000e-02	2.321349273e-01	1.983720149e-05	1.733759869e-11
-2.920000000e-02	2.321349151e-01	2.219327854e-05	2.669250652e-11
-2.930000000e-02	2.321349028e-01	2.454935490e-05	1.894380520e-11
-2.940000000e-02	2.321348905e-01	2.690543055e-05	7.832681395e-12
-2.950000000e-02	2.321348782e-01	2.926150551e-05	1.276034903e-11
-2.960000000e-02	2.321348657e-01	3.161757976e-05	1.590118460e-11
-2.970000000e-02	2.321348532e-01	3.397365329e-05	2.383734154e-11
-2.980000000e-02	2.321348406e-01	3.632972611e-05	1.071777537e-11
-2.990000000e-02	2.321348279e-01	3.868579822e-05	1.535942569e-11
-3.000000000e-02	2.321348152e-01	4.104186960e-05	2.496537040e-11
