# Im(epsi1)     Re(omega/c)      Im(omega/c)      Eq(det).Opt det CON kz, R=0.5 \mum, mu_c=0.3, Re(epsi1)=3.90solve_det_conkz_vs_kz.py
0.000000000e+00	2.321503163e-01	-6.658509042e-04	8.903536922e-12
-1.000000000e-04	2.321503250e-01	-6.634946717e-04	2.621180470e-11
-2.000000000e-04	2.321503336e-01	-6.611384389e-04	2.424648155e-11
-3.000000000e-04	2.321503422e-01	-6.587822057e-04	9.825876542e-12
-4.000000000e-04	2.321503506e-01	-6.564259721e-04	3.078640605e-11
-5.000000000e-04	2.321503591e-01	-6.540697382e-04	1.959080969e-11
-6.000000000e-04	2.321503674e-01	-6.517135040e-04	1.061346542e-11
-7.000000000e-04	2.321503757e-01	-6.493572694e-04	2.434215231e-11
-8.000000000e-04	2.321503839e-01	-6.470010345e-04	9.174293423e-12
-9.000000000e-04	2.321503920e-01	-6.446447992e-04	1.538210219e-11
-1.000000000e-03	2.321504001e-01	-6.422885636e-04	1.338075427e-11
-1.100000000e-03	2.321504080e-01	-6.399323277e-04	1.051643378e-11
-1.200000000e-03	2.321504159e-01	-6.375760914e-04	8.604548649e-12
-1.300000000e-03	2.321504238e-01	-6.352198549e-04	4.928531079e-12
-1.400000000e-03	2.321504316e-01	-6.328636180e-04	1.206774661e-11
-1.500000000e-03	2.321504393e-01	-6.305073808e-04	1.145232899e-11
-1.600000000e-03	2.321504469e-01	-6.281511433e-04	3.084751235e-11
-1.700000000e-03	2.321504544e-01	-6.257949054e-04	6.908931432e-12
-1.800000000e-03	2.321504619e-01	-6.234386673e-04	1.405054111e-11
-1.900000000e-03	2.321504693e-01	-6.210824289e-04	1.316110671e-11
-2.000000000e-03	2.321504767e-01	-6.187261901e-04	5.980249561e-12
-2.100000000e-03	2.321504839e-01	-6.163699511e-04	1.451288101e-11
-2.200000000e-03	2.321504911e-01	-6.140137118e-04	2.224305025e-11
-2.300000000e-03	2.321504982e-01	-6.116574722e-04	6.331131533e-12
-2.400000000e-03	2.321505053e-01	-6.093012323e-04	7.404108938e-12
-2.500000000e-03	2.321505123e-01	-6.069449922e-04	8.181661076e-12
-2.600000000e-03	2.321505192e-01	-6.045887518e-04	1.208047694e-11
-2.700000000e-03	2.321505260e-01	-6.022325111e-04	6.783579311e-11
-2.800000000e-03	2.321505328e-01	-5.998762701e-04	8.883465639e-12
-2.900000000e-03	2.321505395e-01	-5.975200289e-04	8.074608389e-12
-3.000000000e-03	2.321505461e-01	-5.951637874e-04	8.797087176e-12
-3.100000000e-03	2.321505526e-01	-5.928075456e-04	1.186243473e-11
-3.200000000e-03	2.321505591e-01	-5.904513036e-04	1.320406789e-11
-3.300000000e-03	2.321505655e-01	-5.880950614e-04	5.803989421e-12
-3.400000000e-03	2.321505719e-01	-5.857388189e-04	1.679220534e-11
-3.500000000e-03	2.321505781e-01	-5.833825761e-04	8.918457435e-12
-3.600000000e-03	2.321505843e-01	-5.810263332e-04	1.541784921e-11
-3.700000000e-03	2.321505904e-01	-5.786700900e-04	5.974280524e-12
-3.800000000e-03	2.321505965e-01	-5.763138465e-04	7.297857319e-12
-3.900000000e-03	2.321506024e-01	-5.739576028e-04	1.163512471e-11
-4.000000000e-03	2.321506084e-01	-5.716013590e-04	9.410152074e-12
-4.100000000e-03	2.321506142e-01	-5.692451148e-04	8.802468175e-12
-4.200000000e-03	2.321506199e-01	-5.668888705e-04	5.973165267e-12
-4.300000000e-03	2.321506256e-01	-5.645326260e-04	6.056511951e-12
-4.400000000e-03	2.321506313e-01	-5.621763812e-04	7.410031040e-12
-4.500000000e-03	2.321506368e-01	-5.598201363e-04	1.197538755e-11
-4.600000000e-03	2.321506423e-01	-5.574638911e-04	6.068605331e-12
-4.700000000e-03	2.321506477e-01	-5.551076458e-04	1.849726348e-11
-4.800000000e-03	2.321506530e-01	-5.527514002e-04	2.083811863e-11
-4.900000000e-03	2.321506583e-01	-5.503951545e-04	8.871985016e-12
-5.000000000e-03	2.321506634e-01	-5.480389085e-04	3.488740406e-11
-5.100000000e-03	2.321506686e-01	-5.456826624e-04	9.534359336e-12
-5.200000000e-03	2.321506736e-01	-5.433264161e-04	1.129949968e-11
-5.300000000e-03	2.321506786e-01	-5.409701697e-04	8.116915604e-12
-5.400000000e-03	2.321506835e-01	-5.386139230e-04	1.023680242e-11
-5.500000000e-03	2.321506883e-01	-5.362576762e-04	4.625830332e-12
-5.600000000e-03	2.321506931e-01	-5.339014292e-04	1.167142707e-11
-5.700000000e-03	2.321506977e-01	-5.315451821e-04	1.694822481e-11
-5.800000000e-03	2.321507024e-01	-5.291889348e-04	2.248853106e-11
-5.900000000e-03	2.321507069e-01	-5.268326873e-04	1.604076491e-11
-6.000000000e-03	2.321507114e-01	-5.244764397e-04	1.879320763e-11
-6.100000000e-03	2.321507158e-01	-5.221201920e-04	1.167716401e-11
-6.200000000e-03	2.321507201e-01	-5.197639441e-04	7.391037822e-12
-6.300000000e-03	2.321507243e-01	-5.174076961e-04	1.784677516e-11
-6.400000000e-03	2.321507285e-01	-5.150514479e-04	6.303018174e-12
-6.500000000e-03	2.321507326e-01	-5.126951996e-04	8.966662959e-12
-6.600000000e-03	2.321507367e-01	-5.103389511e-04	1.627610215e-11
-6.700000000e-03	2.321507406e-01	-5.079827026e-04	1.022531333e-11
-6.800000000e-03	2.321507445e-01	-5.056264539e-04	8.462395167e-12
-6.900000000e-03	2.321507484e-01	-5.032702051e-04	1.469486508e-11
-7.000000000e-03	2.321507521e-01	-5.009139562e-04	9.250497914e-12
-7.100000000e-03	2.321507558e-01	-4.985577072e-04	1.626110994e-11
-7.200000000e-03	2.321507594e-01	-4.962014580e-04	7.795862733e-12
-7.300000000e-03	2.321507629e-01	-4.938452088e-04	1.883194498e-11
-7.400000000e-03	2.321507664e-01	-4.914889595e-04	4.019033983e-11
-7.500000000e-03	2.321507698e-01	-4.891327100e-04	1.501076434e-11
-7.600000000e-03	2.321507731e-01	-4.867764605e-04	8.543157140e-12
-7.700000000e-03	2.321507764e-01	-4.844202109e-04	1.660864206e-11
-7.800000000e-03	2.321507796e-01	-4.820639612e-04	2.060809663e-11
-7.900000000e-03	2.321507827e-01	-4.797077114e-04	1.218838688e-11
-8.000000000e-03	2.321507857e-01	-4.773514615e-04	6.510504403e-12
-8.100000000e-03	2.321507887e-01	-4.749952116e-04	1.393600441e-11
-8.200000000e-03	2.321507916e-01	-4.726389616e-04	2.005432368e-11
-8.300000000e-03	2.321507944e-01	-4.702827115e-04	1.155168688e-11
-8.400000000e-03	2.321507971e-01	-4.679264614e-04	1.074179387e-11
-8.500000000e-03	2.321507998e-01	-4.655702112e-04	4.827373407e-11
-8.600000000e-03	2.321508024e-01	-4.632139609e-04	8.756663728e-12
-8.700000000e-03	2.321508049e-01	-4.608577106e-04	1.938652712e-11
-8.800000000e-03	2.321508074e-01	-4.585014603e-04	1.583513150e-11
-8.900000000e-03	2.321508098e-01	-4.561452099e-04	6.694881427e-12
-9.000000000e-03	2.321508121e-01	-4.537889594e-04	2.099657775e-11
-9.100000000e-03	2.321508143e-01	-4.514327089e-04	9.332908998e-12
-9.200000000e-03	2.321508165e-01	-4.490764584e-04	5.919229106e-12
-9.300000000e-03	2.321508186e-01	-4.467202079e-04	2.477717239e-11
-9.400000000e-03	2.321508207e-01	-4.443639573e-04	1.039526663e-11
-9.500000000e-03	2.321508226e-01	-4.420077067e-04	2.304259990e-11
-9.600000000e-03	2.321508245e-01	-4.396514561e-04	7.236070538e-12
-9.700000000e-03	2.321508263e-01	-4.372952055e-04	1.383531020e-11
-9.800000000e-03	2.321508281e-01	-4.349389548e-04	7.771433484e-12
-9.900000000e-03	2.321508297e-01	-4.325827041e-04	1.016194657e-11
-1.000000000e-02	2.321508313e-01	-4.302264535e-04	1.011237810e-11
-1.010000000e-02	2.321508329e-01	-4.278702028e-04	2.035434016e-11
-1.020000000e-02	2.321508343e-01	-4.255139522e-04	5.753292747e-11
-1.030000000e-02	2.321508357e-01	-4.231577015e-04	1.409533984e-11
-1.040000000e-02	2.321508370e-01	-4.208014508e-04	1.224524690e-11
-1.050000000e-02	2.321508383e-01	-4.184452002e-04	2.764192065e-11
-1.060000000e-02	2.321508394e-01	-4.160889496e-04	9.093954954e-12
-1.070000000e-02	2.321508405e-01	-4.137326990e-04	9.060999879e-12
-1.080000000e-02	2.321508416e-01	-4.113764484e-04	9.249001991e-12
-1.090000000e-02	2.321508425e-01	-4.090201979e-04	5.492367297e-11
-1.100000000e-02	2.321508434e-01	-4.066639473e-04	1.680245537e-11
-1.110000000e-02	2.321508442e-01	-4.043076968e-04	1.756740142e-11
-1.120000000e-02	2.321508450e-01	-4.019514464e-04	2.477457401e-11
-1.130000000e-02	2.321508456e-01	-3.995951960e-04	1.228149904e-11
-1.140000000e-02	2.321508462e-01	-3.972389456e-04	1.482263466e-11
-1.150000000e-02	2.321508468e-01	-3.948826953e-04	1.362460614e-11
-1.160000000e-02	2.321508472e-01	-3.925264451e-04	7.738830157e-12
-1.170000000e-02	2.321508476e-01	-3.901701949e-04	1.495992508e-11
-1.180000000e-02	2.321508479e-01	-3.878139447e-04	1.781342375e-11
-1.190000000e-02	2.321508481e-01	-3.854576946e-04	1.351646612e-11
-1.200000000e-02	2.321508483e-01	-3.831014446e-04	8.081612163e-12
-1.210000000e-02	2.321508484e-01	-3.807451947e-04	5.405695718e-12
-1.220000000e-02	2.321508484e-01	-3.783889448e-04	1.854904551e-11
-1.230000000e-02	2.321508484e-01	-3.760326950e-04	2.614199781e-11
-1.240000000e-02	2.321508483e-01	-3.736764453e-04	2.654380428e-11
-1.250000000e-02	2.321508481e-01	-3.713201957e-04	1.681182961e-11
-1.260000000e-02	2.321508478e-01	-3.689639462e-04	3.454906414e-11
-1.270000000e-02	2.321508475e-01	-3.666076967e-04	1.812365357e-11
-1.280000000e-02	2.321508471e-01	-3.642514474e-04	7.357871625e-11
-1.290000000e-02	2.321508466e-01	-3.618951981e-04	1.665565850e-11
-1.300000000e-02	2.321508460e-01	-3.595389490e-04	8.454782459e-12
-1.310000000e-02	2.321508454e-01	-3.571827000e-04	9.075529457e-12
-1.320000000e-02	2.321508447e-01	-3.548264510e-04	3.956252127e-11
-1.330000000e-02	2.321508439e-01	-3.524702022e-04	1.428017152e-11
-1.340000000e-02	2.321508431e-01	-3.501139535e-04	1.350111341e-11
-1.350000000e-02	2.321508422e-01	-3.477577050e-04	1.503865984e-11
-1.360000000e-02	2.321508412e-01	-3.454014565e-04	1.446138025e-11
-1.370000000e-02	2.321508402e-01	-3.430452082e-04	1.227373065e-11
-1.380000000e-02	2.321508390e-01	-3.406889600e-04	7.985995319e-12
-1.390000000e-02	2.321508378e-01	-3.383327120e-04	5.468165731e-11
-1.400000000e-02	2.321508366e-01	-3.359764641e-04	8.698300075e-12
-1.410000000e-02	2.321508352e-01	-3.336202163e-04	1.255793637e-11
-1.420000000e-02	2.321508338e-01	-3.312639687e-04	1.009312220e-11
-1.430000000e-02	2.321508323e-01	-3.289077212e-04	5.405180187e-11
-1.440000000e-02	2.321508308e-01	-3.265514739e-04	1.646952920e-11
-1.450000000e-02	2.321508292e-01	-3.241952267e-04	7.042422108e-12
-1.460000000e-02	2.321508275e-01	-3.218389798e-04	1.835411271e-11
-1.470000000e-02	2.321508257e-01	-3.194827329e-04	1.150610922e-11
-1.480000000e-02	2.321508239e-01	-3.171264863e-04	1.702467442e-11
-1.490000000e-02	2.321508219e-01	-3.147702398e-04	1.131276783e-11
-1.500000000e-02	2.321508200e-01	-3.124139935e-04	9.457171387e-12
-1.510000000e-02	2.321508179e-01	-3.100577473e-04	9.834673295e-12
-1.520000000e-02	2.321508158e-01	-3.077015014e-04	1.595335058e-11
-1.530000000e-02	2.321508136e-01	-3.053452556e-04	5.790174482e-12
-1.540000000e-02	2.321508113e-01	-3.029890101e-04	1.293998504e-11
-1.550000000e-02	2.321508090e-01	-3.006327647e-04	8.701422998e-12
-1.560000000e-02	2.321508066e-01	-2.982765195e-04	1.824686263e-11
-1.570000000e-02	2.321508041e-01	-2.959202745e-04	3.100622641e-11
-1.580000000e-02	2.321508015e-01	-2.935640298e-04	9.567291155e-12
-1.590000000e-02	2.321507989e-01	-2.912077852e-04	8.884433817e-12
-1.600000000e-02	2.321507962e-01	-2.888515409e-04	8.843936225e-12
-1.610000000e-02	2.321507934e-01	-2.864952967e-04	2.834205952e-11
-1.620000000e-02	2.321507906e-01	-2.841390528e-04	1.158510554e-11
-1.630000000e-02	2.321507876e-01	-2.817828091e-04	1.998533729e-11
-1.640000000e-02	2.321507847e-01	-2.794265657e-04	1.212244812e-11
-1.650000000e-02	2.321507816e-01	-2.770703224e-04	2.605803444e-11
-1.660000000e-02	2.321507785e-01	-2.747140794e-04	3.481192964e-11
-1.670000000e-02	2.321507753e-01	-2.723578367e-04	8.500793329e-12
-1.680000000e-02	2.321507720e-01	-2.700015942e-04	1.637421988e-11
-1.690000000e-02	2.321507686e-01	-2.676453519e-04	8.611242959e-11
-1.700000000e-02	2.321507652e-01	-2.652891099e-04	3.104536840e-11
-1.710000000e-02	2.321507617e-01	-2.629328681e-04	6.300608823e-12
-1.720000000e-02	2.321507582e-01	-2.605766266e-04	8.739947607e-12
-1.730000000e-02	2.321507545e-01	-2.582203853e-04	9.348790404e-12
-1.740000000e-02	2.321507508e-01	-2.558641443e-04	4.074576017e-11
-1.750000000e-02	2.321507470e-01	-2.535079036e-04	1.927084964e-11
-1.760000000e-02	2.321507432e-01	-2.511516632e-04	1.087853631e-11
-1.770000000e-02	2.321507393e-01	-2.487954230e-04	4.307653333e-12
-1.780000000e-02	2.321507353e-01	-2.464391831e-04	1.846756331e-11
-1.790000000e-02	2.321507312e-01	-2.440829435e-04	9.042678601e-12
-1.800000000e-02	2.321507271e-01	-2.417267041e-04	1.750642566e-11
-1.810000000e-02	2.321507229e-01	-2.393704651e-04	8.631916366e-12
-1.820000000e-02	2.321507186e-01	-2.370142263e-04	1.659903224e-11
-1.830000000e-02	2.321507142e-01	-2.346579879e-04	6.831140809e-12
-1.840000000e-02	2.321507098e-01	-2.323017497e-04	1.746531925e-11
-1.850000000e-02	2.321507053e-01	-2.299455119e-04	1.650305318e-11
-1.860000000e-02	2.321507008e-01	-2.275892743e-04	9.865241037e-12
-1.870000000e-02	2.321506961e-01	-2.252330371e-04	1.290445575e-11
-1.880000000e-02	2.321506914e-01	-2.228768002e-04	1.505166157e-11
-1.890000000e-02	2.321506866e-01	-2.205205635e-04	9.171386391e-12
-1.900000000e-02	2.321506818e-01	-2.181643273e-04	2.861662113e-11
-1.910000000e-02	2.321506769e-01	-2.158080913e-04	9.388184117e-12
-1.920000000e-02	2.321506719e-01	-2.134518557e-04	8.908470323e-12
-1.930000000e-02	2.321506668e-01	-2.110956204e-04	4.297916934e-11
-1.940000000e-02	2.321506617e-01	-2.087393854e-04	7.513266372e-12
-1.950000000e-02	2.321506564e-01	-2.063831508e-04	1.928198865e-11
-1.960000000e-02	2.321506512e-01	-2.040269165e-04	1.272943033e-11
-1.970000000e-02	2.321506458e-01	-2.016706826e-04	2.033637672e-11
-1.980000000e-02	2.321506404e-01	-1.993144490e-04	1.046295519e-11
-1.990000000e-02	2.321506349e-01	-1.969582158e-04	1.786112159e-11
-2.000000000e-02	2.321506293e-01	-1.946019829e-04	6.342882662e-12
-2.010000000e-02	2.321506237e-01	-1.922457504e-04	1.789928373e-11
-2.020000000e-02	2.321506180e-01	-1.898895183e-04	1.392223660e-11
-2.030000000e-02	2.321506122e-01	-1.875332865e-04	2.686595869e-11
-2.040000000e-02	2.321506063e-01	-1.851770551e-04	3.347373594e-11
-2.050000000e-02	2.321506004e-01	-1.828208241e-04	3.610417426e-12
-2.060000000e-02	2.321505944e-01	-1.804645934e-04	9.450225211e-12
-2.070000000e-02	2.321505883e-01	-1.781083632e-04	1.181961453e-11
-2.080000000e-02	2.321505822e-01	-1.757521333e-04	8.749033098e-12
-2.090000000e-02	2.321505760e-01	-1.733959038e-04	1.477410955e-11
-2.100000000e-02	2.321505697e-01	-1.710396747e-04	3.464691909e-11
-2.110000000e-02	2.321505633e-01	-1.686834461e-04	1.653962507e-11
-2.120000000e-02	2.321505569e-01	-1.663272178e-04	1.643269453e-11
-2.130000000e-02	2.321505504e-01	-1.639709899e-04	2.263814947e-11
-2.140000000e-02	2.321505438e-01	-1.616147624e-04	4.246719683e-11
-2.150000000e-02	2.321505372e-01	-1.592585354e-04	7.023226459e-12
-2.160000000e-02	2.321505304e-01	-1.569023087e-04	2.044894954e-11
-2.170000000e-02	2.321505237e-01	-1.545460825e-04	1.511473365e-11
-2.180000000e-02	2.321505168e-01	-1.521898567e-04	1.784119103e-11
-2.190000000e-02	2.321505099e-01	-1.498336313e-04	2.354690314e-11
-2.200000000e-02	2.321505029e-01	-1.474774064e-04	1.125741042e-11
-2.210000000e-02	2.321504958e-01	-1.451211818e-04	1.025878412e-10
-2.220000000e-02	2.321504886e-01	-1.427649578e-04	2.751461370e-11
-2.230000000e-02	2.321504814e-01	-1.404087341e-04	1.053027582e-11
-2.240000000e-02	2.321504741e-01	-1.380525110e-04	3.324335742e-11
-2.250000000e-02	2.321504668e-01	-1.356962882e-04	1.790112202e-11
-2.260000000e-02	2.321504593e-01	-1.333400659e-04	4.750822884e-11
-2.270000000e-02	2.321504518e-01	-1.309838441e-04	1.369879666e-11
-2.280000000e-02	2.321504442e-01	-1.286276227e-04	1.026869889e-11
-2.290000000e-02	2.321504366e-01	-1.262714018e-04	1.112181683e-11
-2.300000000e-02	2.321504289e-01	-1.239151814e-04	1.611558636e-11
-2.310000000e-02	2.321504211e-01	-1.215589614e-04	5.168942850e-11
-2.320000000e-02	2.321504132e-01	-1.192027419e-04	1.057177962e-11
-2.330000000e-02	2.321504053e-01	-1.168465229e-04	1.516094125e-11
-2.340000000e-02	2.321503973e-01	-1.144903044e-04	1.854291674e-11
-2.350000000e-02	2.321503892e-01	-1.121340863e-04	2.390425924e-11
-2.360000000e-02	2.321503810e-01	-1.097778688e-04	1.169291532e-10
-2.370000000e-02	2.321503728e-01	-1.074216517e-04	9.565966250e-12
-2.380000000e-02	2.321503645e-01	-1.050654351e-04	5.494681667e-12
-2.390000000e-02	2.321503562e-01	-1.027092191e-04	1.895552385e-11
-2.400000000e-02	2.321503477e-01	-1.003530035e-04	6.839812870e-12
-2.410000000e-02	2.321503392e-01	-9.799678843e-05	5.361602575e-12
-2.420000000e-02	2.321503306e-01	-9.564057388e-05	1.302755042e-11
-2.430000000e-02	2.321503220e-01	-9.328435984e-05	1.238317008e-11
-2.440000000e-02	2.321503133e-01	-9.092814632e-05	5.265316400e-11
-2.450000000e-02	2.321503045e-01	-8.857193332e-05	1.036795669e-11
-2.460000000e-02	2.321502956e-01	-8.621572085e-05	9.221495273e-12
-2.470000000e-02	2.321502866e-01	-8.385950891e-05	1.314354506e-11
-2.480000000e-02	2.321502776e-01	-8.150329750e-05	1.194889967e-11
-2.490000000e-02	2.321502686e-01	-7.914708662e-05	1.048494413e-11
-2.500000000e-02	2.321502594e-01	-7.679087628e-05	9.367066283e-12
-2.510000000e-02	2.321502502e-01	-7.443466649e-05	1.952240434e-11
-2.520000000e-02	2.321502409e-01	-7.207845725e-05	2.902752800e-11
-2.530000000e-02	2.321502315e-01	-6.972224855e-05	7.395388899e-12
-2.540000000e-02	2.321502221e-01	-6.736604041e-05	6.198216878e-12
-2.550000000e-02	2.321502125e-01	-6.500983283e-05	1.572774753e-11
-2.560000000e-02	2.321502030e-01	-6.265362581e-05	1.890458730e-11
-2.570000000e-02	2.321501933e-01	-6.029741935e-05	1.056774628e-11
-2.580000000e-02	2.321501836e-01	-5.794121347e-05	8.564511934e-12
-2.590000000e-02	2.321501738e-01	-5.558500815e-05	6.569213958e-12
-2.600000000e-02	2.321501639e-01	-5.322880341e-05	2.101649416e-11
-2.610000000e-02	2.321501540e-01	-5.087259925e-05	2.564470389e-11
-2.620000000e-02	2.321501439e-01	-4.851639568e-05	5.640365735e-12
-2.630000000e-02	2.321501339e-01	-4.616019269e-05	7.473081364e-12
-2.640000000e-02	2.321501237e-01	-4.380399029e-05	9.138997973e-12
-2.650000000e-02	2.321501135e-01	-4.144778849e-05	1.216729534e-11
-2.660000000e-02	2.321501032e-01	-3.909158728e-05	4.859593229e-12
-2.670000000e-02	2.321500928e-01	-3.673538667e-05	7.133096113e-12
-2.680000000e-02	2.321500823e-01	-3.437918667e-05	4.890735215e-12
-2.690000000e-02	2.321500718e-01	-3.202298728e-05	7.585678974e-12
-2.700000000e-02	2.321500612e-01	-2.966678851e-05	9.181583567e-12
-2.710000000e-02	2.321500506e-01	-2.731059034e-05	2.124170349e-11
-2.720000000e-02	2.321500398e-01	-2.495439280e-05	9.795903959e-12
-2.730000000e-02	2.321500290e-01	-2.259819588e-05	1.172635493e-11
-2.740000000e-02	2.321500182e-01	-2.024199959e-05	8.434211130e-12
-2.750000000e-02	2.321500072e-01	-1.788580393e-05	7.993974720e-12
-2.760000000e-02	2.321499962e-01	-1.552960890e-05	1.355604072e-11
-2.770000000e-02	2.321499851e-01	-1.317341451e-05	1.377399364e-11
-2.780000000e-02	2.321499739e-01	-1.081722076e-05	1.401156984e-11
-2.790000000e-02	2.321499627e-01	-8.461027657e-06	1.688469285e-11
-2.800000000e-02	2.321499514e-01	-6.104835201e-06	2.013945828e-11
-2.810000000e-02	2.321499400e-01	-3.748643400e-06	8.563876983e-12
-2.820000000e-02	2.321499286e-01	-1.392452254e-06	2.904859170e-11
-2.830000000e-02	2.321499170e-01	9.637382338e-07	2.414299071e-11
-2.840000000e-02	2.321499055e-01	3.319928056e-06	1.840655478e-11
-2.850000000e-02	2.321498938e-01	5.676117213e-06	4.826147612e-11
-2.860000000e-02	2.321498821e-01	8.032305699e-06	1.222319067e-11
-2.870000000e-02	2.321498702e-01	1.038849351e-05	1.190212995e-11
-2.880000000e-02	2.321498584e-01	1.274468064e-05	8.435147324e-12
-2.890000000e-02	2.321498464e-01	1.510086710e-05	1.213736675e-11
-2.900000000e-02	2.321498344e-01	1.745705286e-05	6.654612744e-12
-2.910000000e-02	2.321498223e-01	1.981323795e-05	4.410843975e-11
-2.920000000e-02	2.321498101e-01	2.216942233e-05	1.059990761e-11
-2.930000000e-02	2.321497979e-01	2.452560602e-05	2.293207480e-11
-2.940000000e-02	2.321497856e-01	2.688178901e-05	2.998977334e-11
-2.950000000e-02	2.321497732e-01	2.923797130e-05	1.341004727e-11
-2.960000000e-02	2.321497607e-01	3.159415288e-05	1.419753913e-11
-2.970000000e-02	2.321497482e-01	3.395033375e-05	1.411203332e-11
-2.980000000e-02	2.321497356e-01	3.630651391e-05	2.007988112e-11
-2.990000000e-02	2.321497230e-01	3.866269334e-05	6.409854545e-11
-3.000000000e-02	2.321497102e-01	4.101887206e-05	5.562244321e-12
