# Im(epsi1)     Re(omega/c)      Im(omega/c)      Eq(det).Opt det CON kz, R=0.5 \mum, mu_c=0.3, Re(epsi1)=3.90solve_det_conkz_vs_kz.py
0.000000000e+00	2.321398198e-01	-6.658120086e-04	4.076658237e-12
-1.000000000e-04	2.321398285e-01	-6.634558517e-04	1.666109679e-11
-2.000000000e-04	2.321398372e-01	-6.610996946e-04	3.043214660e-11
-3.000000000e-04	2.321398457e-01	-6.587435370e-04	7.741917640e-12
-4.000000000e-04	2.321398542e-01	-6.563873791e-04	7.430508971e-12
-5.000000000e-04	2.321398626e-01	-6.540312208e-04	1.570690575e-11
-6.000000000e-04	2.321398710e-01	-6.516750622e-04	1.077473344e-11
-7.000000000e-04	2.321398792e-01	-6.493189033e-04	2.813938158e-11
-8.000000000e-04	2.321398874e-01	-6.469627440e-04	1.424055669e-11
-9.000000000e-04	2.321398955e-01	-6.446065843e-04	8.340716589e-12
-1.000000000e-03	2.321399036e-01	-6.422504244e-04	3.453869625e-11
-1.100000000e-03	2.321399116e-01	-6.398942641e-04	7.708329919e-12
-1.200000000e-03	2.321399195e-01	-6.375381035e-04	7.672944578e-12
-1.300000000e-03	2.321399273e-01	-6.351819425e-04	9.465651833e-12
-1.400000000e-03	2.321399351e-01	-6.328257813e-04	1.565605183e-11
-1.500000000e-03	2.321399428e-01	-6.304696197e-04	1.283970773e-11
-1.600000000e-03	2.321399504e-01	-6.281134578e-04	3.201933331e-11
-1.700000000e-03	2.321399580e-01	-6.257572956e-04	7.888341767e-11
-1.800000000e-03	2.321399655e-01	-6.234011332e-04	3.036605756e-11
-1.900000000e-03	2.321399729e-01	-6.210449703e-04	2.282109706e-10
-2.000000000e-03	2.321399802e-01	-6.186888073e-04	8.815335851e-12
-2.100000000e-03	2.321399875e-01	-6.163326439e-04	8.513622750e-11
-2.200000000e-03	2.321399947e-01	-6.139764802e-04	4.081498783e-12
-2.300000000e-03	2.321400018e-01	-6.116203163e-04	1.130280491e-11
-2.400000000e-03	2.321400088e-01	-6.092641520e-04	1.104076013e-11
-2.500000000e-03	2.321400158e-01	-6.069079875e-04	1.031404487e-11
-2.600000000e-03	2.321400227e-01	-6.045518227e-04	9.187222838e-12
-2.700000000e-03	2.321400295e-01	-6.021956576e-04	1.175416047e-11
-2.800000000e-03	2.321400363e-01	-5.998394923e-04	7.308578891e-12
-2.900000000e-03	2.321400430e-01	-5.974833267e-04	2.834135729e-11
-3.000000000e-03	2.321400496e-01	-5.951271609e-04	1.733910451e-11
-3.100000000e-03	2.321400562e-01	-5.927709947e-04	1.241555596e-10
-3.200000000e-03	2.321400626e-01	-5.904148284e-04	2.924941623e-11
-3.300000000e-03	2.321400691e-01	-5.880586618e-04	1.008523189e-11
-3.400000000e-03	2.321400754e-01	-5.857024949e-04	6.993596339e-12
-3.500000000e-03	2.321400816e-01	-5.833463278e-04	1.256531193e-11
-3.600000000e-03	2.321400878e-01	-5.809901605e-04	9.109287785e-12
-3.700000000e-03	2.321400940e-01	-5.786339929e-04	1.270621744e-11
-3.800000000e-03	2.321401000e-01	-5.762778251e-04	2.073619486e-11
-3.900000000e-03	2.321401060e-01	-5.739216571e-04	1.521204222e-11
-4.000000000e-03	2.321401119e-01	-5.715654888e-04	8.312911677e-12
-4.100000000e-03	2.321401177e-01	-5.692093203e-04	3.119773626e-11
-4.200000000e-03	2.321401235e-01	-5.668531517e-04	1.762797169e-11
-4.300000000e-03	2.321401292e-01	-5.644969828e-04	1.496881541e-11
-4.400000000e-03	2.321401348e-01	-5.621408136e-04	9.175846459e-12
-4.500000000e-03	2.321401403e-01	-5.597846443e-04	2.523176079e-11
-4.600000000e-03	2.321401458e-01	-5.574284748e-04	4.244340377e-11
-4.700000000e-03	2.321401512e-01	-5.550723051e-04	1.783640141e-11
-4.800000000e-03	2.321401565e-01	-5.527161352e-04	8.364972842e-12
-4.900000000e-03	2.321401618e-01	-5.503599651e-04	1.170003345e-11
-5.000000000e-03	2.321401670e-01	-5.480037948e-04	1.811322350e-11
-5.100000000e-03	2.321401721e-01	-5.456476243e-04	1.817448988e-11
-5.200000000e-03	2.321401771e-01	-5.432914536e-04	1.399509858e-11
-5.300000000e-03	2.321401821e-01	-5.409352828e-04	1.071548497e-11
-5.400000000e-03	2.321401870e-01	-5.385791118e-04	9.708134020e-12
-5.500000000e-03	2.321401918e-01	-5.362229406e-04	1.852803408e-11
-5.600000000e-03	2.321401966e-01	-5.338667693e-04	1.717975125e-11
-5.700000000e-03	2.321402013e-01	-5.315105978e-04	2.874859774e-11
-5.800000000e-03	2.321402059e-01	-5.291544261e-04	9.362108340e-12
-5.900000000e-03	2.321402104e-01	-5.267982543e-04	1.949887850e-11
-6.000000000e-03	2.321402149e-01	-5.244420824e-04	7.450332008e-12
-6.100000000e-03	2.321402193e-01	-5.220859102e-04	6.381719376e-12
-6.200000000e-03	2.321402236e-01	-5.197297380e-04	1.844274890e-11
-6.300000000e-03	2.321402279e-01	-5.173735656e-04	1.146553268e-11
-6.400000000e-03	2.321402320e-01	-5.150173931e-04	9.960004004e-12
-6.500000000e-03	2.321402361e-01	-5.126612204e-04	7.871488345e-12
-6.600000000e-03	2.321402402e-01	-5.103050476e-04	3.522034118e-11
-6.700000000e-03	2.321402442e-01	-5.079488747e-04	1.774625694e-11
-6.800000000e-03	2.321402480e-01	-5.055927016e-04	6.304461801e-11
-6.900000000e-03	2.321402519e-01	-5.032365285e-04	1.901854024e-11
-7.000000000e-03	2.321402556e-01	-5.008803552e-04	8.454591636e-12
-7.100000000e-03	2.321402593e-01	-4.985241818e-04	1.362098207e-11
-7.200000000e-03	2.321402629e-01	-4.961680083e-04	1.779467453e-11
-7.300000000e-03	2.321402664e-01	-4.938118347e-04	2.909669474e-11
-7.400000000e-03	2.321402699e-01	-4.914556610e-04	8.781289078e-12
-7.500000000e-03	2.321402733e-01	-4.890994872e-04	1.785813695e-11
-7.600000000e-03	2.321402766e-01	-4.867433133e-04	1.471226264e-11
-7.700000000e-03	2.321402799e-01	-4.843871394e-04	1.112238807e-11
-7.800000000e-03	2.321402831e-01	-4.820309653e-04	2.659947531e-11
-7.900000000e-03	2.321402862e-01	-4.796747911e-04	1.310634254e-11
-8.000000000e-03	2.321402892e-01	-4.773186169e-04	8.554229522e-12
-8.100000000e-03	2.321402922e-01	-4.749624426e-04	1.104078913e-11
-8.200000000e-03	2.321402950e-01	-4.726062683e-04	1.037041681e-11
-8.300000000e-03	2.321402979e-01	-4.702500938e-04	5.738414712e-11
-8.400000000e-03	2.321403006e-01	-4.678939193e-04	9.343966197e-12
-8.500000000e-03	2.321403033e-01	-4.655377448e-04	3.655301860e-11
-8.600000000e-03	2.321403059e-01	-4.631815701e-04	2.450000386e-11
-8.700000000e-03	2.321403084e-01	-4.608253955e-04	1.047665980e-11
-8.800000000e-03	2.321403109e-01	-4.584692208e-04	3.798208856e-11
-8.900000000e-03	2.321403133e-01	-4.561130460e-04	1.316238027e-11
-9.000000000e-03	2.321403156e-01	-4.537568712e-04	1.050978127e-11
-9.100000000e-03	2.321403178e-01	-4.514006964e-04	9.792132060e-12
-9.200000000e-03	2.321403200e-01	-4.490445215e-04	1.641033878e-11
-9.300000000e-03	2.321403221e-01	-4.466883466e-04	1.015291154e-11
-9.400000000e-03	2.321403241e-01	-4.443321716e-04	2.083205952e-11
-9.500000000e-03	2.321403261e-01	-4.419759967e-04	1.976831201e-11
-9.600000000e-03	2.321403280e-01	-4.396198217e-04	1.073756755e-11
-9.700000000e-03	2.321403298e-01	-4.372636467e-04	1.219609942e-11
-9.800000000e-03	2.321403316e-01	-4.349074717e-04	4.141512474e-11
-9.900000000e-03	2.321403332e-01	-4.325512967e-04	1.996408338e-11
-1.000000000e-02	2.321403348e-01	-4.301951216e-04	1.905018923e-11
-1.010000000e-02	2.321403364e-01	-4.278389466e-04	4.350910580e-12
-1.020000000e-02	2.321403378e-01	-4.254827716e-04	7.968612287e-12
-1.030000000e-02	2.321403392e-01	-4.231265966e-04	9.695853982e-12
-1.040000000e-02	2.321403405e-01	-4.207704215e-04	7.264294452e-12
-1.050000000e-02	2.321403418e-01	-4.184142465e-04	9.936458531e-11
-1.060000000e-02	2.321403429e-01	-4.160580716e-04	1.555651255e-11
-1.070000000e-02	2.321403440e-01	-4.137018966e-04	2.222709171e-11
-1.080000000e-02	2.321403450e-01	-4.113457217e-04	1.076240921e-11
-1.090000000e-02	2.321403460e-01	-4.089895468e-04	1.839306293e-11
-1.100000000e-02	2.321403469e-01	-4.066333719e-04	9.075195161e-12
-1.110000000e-02	2.321403477e-01	-4.042771970e-04	1.286857606e-11
-1.120000000e-02	2.321403484e-01	-4.019210222e-04	7.962894653e-12
-1.130000000e-02	2.321403491e-01	-3.995648474e-04	1.823748426e-11
-1.140000000e-02	2.321403497e-01	-3.972086727e-04	7.834552332e-12
-1.150000000e-02	2.321403502e-01	-3.948524981e-04	2.507448764e-11
-1.160000000e-02	2.321403507e-01	-3.924963234e-04	1.483437483e-11
-1.170000000e-02	2.321403511e-01	-3.901401489e-04	1.733719533e-11
-1.180000000e-02	2.321403514e-01	-3.877839744e-04	5.952599438e-12
-1.190000000e-02	2.321403516e-01	-3.854277999e-04	4.744171168e-11
-1.200000000e-02	2.321403518e-01	-3.830716256e-04	8.386154675e-12
-1.210000000e-02	2.321403519e-01	-3.807154512e-04	9.405974688e-12
-1.220000000e-02	2.321403519e-01	-3.783592770e-04	9.383908853e-12
-1.230000000e-02	2.321403518e-01	-3.760031029e-04	1.013572699e-11
-1.240000000e-02	2.321403517e-01	-3.736469288e-04	1.445296784e-11
-1.250000000e-02	2.321403515e-01	-3.712907548e-04	1.319544768e-11
-1.260000000e-02	2.321403513e-01	-3.689345809e-04	2.130340706e-11
-1.270000000e-02	2.321403509e-01	-3.665784071e-04	8.091651456e-12
-1.280000000e-02	2.321403505e-01	-3.642222334e-04	4.266629914e-11
-1.290000000e-02	2.321403500e-01	-3.618660598e-04	8.136850828e-12
-1.300000000e-02	2.321403495e-01	-3.595098863e-04	7.797115559e-12
-1.310000000e-02	2.321403489e-01	-3.571537129e-04	7.078319313e-11
-1.320000000e-02	2.321403482e-01	-3.547975396e-04	3.223736657e-11
-1.330000000e-02	2.321403474e-01	-3.524413665e-04	9.902292186e-12
-1.340000000e-02	2.321403466e-01	-3.500851934e-04	2.429380516e-11
-1.350000000e-02	2.321403457e-01	-3.477290205e-04	1.192322404e-11
-1.360000000e-02	2.321403447e-01	-3.453728477e-04	1.580527087e-11
-1.370000000e-02	2.321403436e-01	-3.430166750e-04	9.446709392e-12
-1.380000000e-02	2.321403425e-01	-3.406605024e-04	1.882097131e-11
-1.390000000e-02	2.321403413e-01	-3.383043300e-04	1.212437109e-11
-1.400000000e-02	2.321403400e-01	-3.359481578e-04	1.004566375e-11
-1.410000000e-02	2.321403387e-01	-3.335919856e-04	1.218017951e-11
-1.420000000e-02	2.321403373e-01	-3.312358137e-04	2.588162864e-11
-1.430000000e-02	2.321403358e-01	-3.288796418e-04	1.483425448e-11
-1.440000000e-02	2.321403343e-01	-3.265234702e-04	8.501971144e-12
-1.450000000e-02	2.321403326e-01	-3.241672987e-04	1.517105754e-11
-1.460000000e-02	2.321403309e-01	-3.218111273e-04	3.091251912e-11
-1.470000000e-02	2.321403292e-01	-3.194549561e-04	9.966785703e-12
-1.480000000e-02	2.321403273e-01	-3.170987851e-04	2.628250956e-11
-1.490000000e-02	2.321403254e-01	-3.147426143e-04	1.461362215e-11
-1.500000000e-02	2.321403234e-01	-3.123864436e-04	2.262233413e-11
-1.510000000e-02	2.321403214e-01	-3.100302731e-04	1.349462845e-11
-1.520000000e-02	2.321403192e-01	-3.076741028e-04	6.330510838e-11
-1.530000000e-02	2.321403170e-01	-3.053179327e-04	1.515871816e-11
-1.540000000e-02	2.321403148e-01	-3.029617627e-04	6.920489413e-12
-1.550000000e-02	2.321403124e-01	-3.006055930e-04	1.190630642e-11
-1.560000000e-02	2.321403100e-01	-2.982494235e-04	1.033174593e-11
-1.570000000e-02	2.321403075e-01	-2.958932541e-04	9.309537330e-11
-1.580000000e-02	2.321403050e-01	-2.935370850e-04	1.018613109e-11
-1.590000000e-02	2.321403023e-01	-2.911809161e-04	6.770409628e-12
-1.600000000e-02	2.321402996e-01	-2.888247474e-04	1.234534220e-11
-1.610000000e-02	2.321402969e-01	-2.864685789e-04	3.034279459e-11
-1.620000000e-02	2.321402940e-01	-2.841124106e-04	8.211375029e-12
-1.630000000e-02	2.321402911e-01	-2.817562426e-04	6.661406367e-12
-1.640000000e-02	2.321402881e-01	-2.794000747e-04	9.402603445e-12
-1.650000000e-02	2.321402850e-01	-2.770439072e-04	2.027766219e-11
-1.660000000e-02	2.321402819e-01	-2.746877398e-04	9.216741155e-12
-1.670000000e-02	2.321402787e-01	-2.723315727e-04	1.177079387e-11
-1.680000000e-02	2.321402754e-01	-2.699754058e-04	1.934932269e-11
-1.690000000e-02	2.321402721e-01	-2.676192392e-04	1.291247415e-11
-1.700000000e-02	2.321402687e-01	-2.652630728e-04	2.703492693e-11
-1.710000000e-02	2.321402652e-01	-2.629069067e-04	7.056116312e-12
-1.720000000e-02	2.321402616e-01	-2.605507408e-04	1.377051886e-11
-1.730000000e-02	2.321402580e-01	-2.581945752e-04	7.426912029e-12
-1.740000000e-02	2.321402543e-01	-2.558384098e-04	1.243440011e-11
-1.750000000e-02	2.321402505e-01	-2.534822447e-04	1.479288236e-11
-1.760000000e-02	2.321402466e-01	-2.511260799e-04	7.836535383e-12
-1.770000000e-02	2.321402427e-01	-2.487699154e-04	1.272075572e-11
-1.780000000e-02	2.321402387e-01	-2.464137511e-04	8.081044385e-12
-1.790000000e-02	2.321402347e-01	-2.440575871e-04	1.344404900e-11
-1.800000000e-02	2.321402305e-01	-2.417014234e-04	1.063286406e-11
-1.810000000e-02	2.321402263e-01	-2.393452600e-04	1.719441816e-11
-1.820000000e-02	2.321402220e-01	-2.369890969e-04	5.867905635e-11
-1.830000000e-02	2.321402177e-01	-2.346329341e-04	3.435290992e-11
-1.840000000e-02	2.321402133e-01	-2.322767716e-04	6.367068905e-12
-1.850000000e-02	2.321402088e-01	-2.299206094e-04	1.190513283e-11
-1.860000000e-02	2.321402042e-01	-2.275644475e-04	8.274065608e-12
-1.870000000e-02	2.321401996e-01	-2.252082859e-04	1.413388441e-11
-1.880000000e-02	2.321401949e-01	-2.228521246e-04	1.409510893e-11
-1.890000000e-02	2.321401901e-01	-2.204959636e-04	1.591098581e-11
-1.900000000e-02	2.321401852e-01	-2.181398030e-04	1.138138719e-11
-1.910000000e-02	2.321401803e-01	-2.157836427e-04	2.574654563e-11
-1.920000000e-02	2.321401753e-01	-2.134274827e-04	1.098974365e-11
-1.930000000e-02	2.321401702e-01	-2.110713230e-04	4.809394127e-11
-1.940000000e-02	2.321401651e-01	-2.087151637e-04	2.658029401e-11
-1.950000000e-02	2.321401599e-01	-2.063590047e-04	1.549418737e-11
-1.960000000e-02	2.321401546e-01	-2.040028461e-04	6.219061222e-12
-1.970000000e-02	2.321401492e-01	-2.016466878e-04	2.667295258e-11
-1.980000000e-02	2.321401438e-01	-1.992905299e-04	1.201416431e-11
-1.990000000e-02	2.321401383e-01	-1.969343723e-04	1.584014356e-11
-2.000000000e-02	2.321401327e-01	-1.945782151e-04	8.353409301e-12
-2.010000000e-02	2.321401271e-01	-1.922220582e-04	2.955463071e-11
-2.020000000e-02	2.321401214e-01	-1.898659017e-04	3.292012791e-11
-2.030000000e-02	2.321401156e-01	-1.875097456e-04	3.527173086e-11
-2.040000000e-02	2.321401098e-01	-1.851535898e-04	9.643245308e-11
-2.050000000e-02	2.321401038e-01	-1.827974344e-04	2.288046473e-11
-2.060000000e-02	2.321400978e-01	-1.804412794e-04	6.547363508e-12
-2.070000000e-02	2.321400917e-01	-1.780851248e-04	4.855316751e-12
-2.080000000e-02	2.321400856e-01	-1.757289706e-04	7.818748206e-11
-2.090000000e-02	2.321400794e-01	-1.733728167e-04	1.436282527e-11
-2.100000000e-02	2.321400731e-01	-1.710166633e-04	1.450764696e-11
-2.110000000e-02	2.321400667e-01	-1.686605102e-04	9.789550900e-12
-2.120000000e-02	2.321400603e-01	-1.663043576e-04	3.207917403e-11
-2.130000000e-02	2.321400538e-01	-1.639482054e-04	4.102349412e-11
-2.140000000e-02	2.321400472e-01	-1.615920535e-04	9.447355923e-12
-2.150000000e-02	2.321400406e-01	-1.592359021e-04	1.444308527e-11
-2.160000000e-02	2.321400339e-01	-1.568797511e-04	3.233635111e-11
-2.170000000e-02	2.321400271e-01	-1.545236005e-04	7.151817291e-12
-2.180000000e-02	2.321400202e-01	-1.521674504e-04	9.500641305e-12
-2.190000000e-02	2.321400133e-01	-1.498113006e-04	1.422476201e-11
-2.200000000e-02	2.321400063e-01	-1.474551513e-04	1.062518281e-11
-2.210000000e-02	2.321399992e-01	-1.450990024e-04	1.224931620e-11
-2.220000000e-02	2.321399921e-01	-1.427428540e-04	8.741377412e-12
-2.230000000e-02	2.321399848e-01	-1.403867060e-04	9.683512477e-12
-2.240000000e-02	2.321399776e-01	-1.380305585e-04	7.312320953e-12
-2.250000000e-02	2.321399702e-01	-1.356744114e-04	4.687082873e-11
-2.260000000e-02	2.321399628e-01	-1.333182647e-04	3.969393890e-11
-2.270000000e-02	2.321399552e-01	-1.309621186e-04	1.229350697e-11
-2.280000000e-02	2.321399477e-01	-1.286059728e-04	1.444481898e-11
-2.290000000e-02	2.321399400e-01	-1.262498276e-04	1.888876562e-11
-2.300000000e-02	2.321399323e-01	-1.238936828e-04	2.687389446e-11
-2.310000000e-02	2.321399245e-01	-1.215375384e-04	1.255806590e-11
-2.320000000e-02	2.321399166e-01	-1.191813946e-04	2.016313094e-11
-2.330000000e-02	2.321399087e-01	-1.168252512e-04	3.465359657e-11
-2.340000000e-02	2.321399007e-01	-1.144691083e-04	1.015041189e-11
-2.350000000e-02	2.321398926e-01	-1.121129659e-04	1.711820433e-11
-2.360000000e-02	2.321398845e-01	-1.097568240e-04	3.696029508e-11
-2.370000000e-02	2.321398762e-01	-1.074006826e-04	9.296430303e-12
-2.380000000e-02	2.321398679e-01	-1.050445416e-04	3.811165892e-11
-2.390000000e-02	2.321398596e-01	-1.026884012e-04	5.903803351e-12
-2.400000000e-02	2.321398511e-01	-1.003322613e-04	1.348720234e-11
-2.410000000e-02	2.321398426e-01	-9.797612187e-05	1.619513519e-11
-2.420000000e-02	2.321398340e-01	-9.561998295e-05	1.239919844e-11
-2.430000000e-02	2.321398254e-01	-9.326384456e-05	3.428823822e-11
-2.440000000e-02	2.321398167e-01	-9.090770668e-05	1.464533776e-11
-2.450000000e-02	2.321398079e-01	-8.855156933e-05	1.173774426e-11
-2.460000000e-02	2.321397990e-01	-8.619543250e-05	7.093734975e-12
-2.470000000e-02	2.321397901e-01	-8.383929619e-05	1.038874862e-11
-2.480000000e-02	2.321397810e-01	-8.148316042e-05	1.473175823e-11
-2.490000000e-02	2.321397720e-01	-7.912702519e-05	1.425848959e-11
-2.500000000e-02	2.321397628e-01	-7.677089050e-05	1.977079496e-11
-2.510000000e-02	2.321397536e-01	-7.441475635e-05	2.441586263e-11
-2.520000000e-02	2.321397443e-01	-7.205862275e-05	1.951342754e-11
-2.530000000e-02	2.321397349e-01	-6.970248969e-05	7.846441285e-12
-2.540000000e-02	2.321397255e-01	-6.734635719e-05	1.480670334e-11
-2.550000000e-02	2.321397160e-01	-6.499022525e-05	9.554481153e-12
-2.560000000e-02	2.321397064e-01	-6.263409387e-05	1.968980187e-11
-2.570000000e-02	2.321396967e-01	-6.027796306e-05	2.515495594e-11
-2.580000000e-02	2.321396870e-01	-5.792183281e-05	1.164252471e-11
-2.590000000e-02	2.321396772e-01	-5.556570314e-05	1.609715047e-11
-2.600000000e-02	2.321396673e-01	-5.320957405e-05	1.525213895e-11
-2.610000000e-02	2.321396574e-01	-5.085344553e-05	8.459587730e-12
-2.620000000e-02	2.321396474e-01	-4.849731760e-05	6.187089561e-12
-2.630000000e-02	2.321396373e-01	-4.614119025e-05	1.253556926e-11
-2.640000000e-02	2.321396271e-01	-4.378506349e-05	2.174523460e-11
-2.650000000e-02	2.321396169e-01	-4.142893733e-05	2.596848863e-11
-2.660000000e-02	2.321396066e-01	-3.907281177e-05	1.110579059e-11
-2.670000000e-02	2.321395962e-01	-3.671668680e-05	1.471172313e-11
-2.680000000e-02	2.321395857e-01	-3.436056245e-05	2.042212709e-11
-2.690000000e-02	2.321395752e-01	-3.200443870e-05	1.095234296e-11
-2.700000000e-02	2.321395646e-01	-2.964831556e-05	1.602774122e-11
-2.710000000e-02	2.321395540e-01	-2.729219304e-05	4.996554286e-12
-2.720000000e-02	2.321395432e-01	-2.493607114e-05	1.023460363e-11
-2.730000000e-02	2.321395324e-01	-2.257994987e-05	9.922385570e-12
-2.740000000e-02	2.321395216e-01	-2.022382922e-05	1.070427365e-11
-2.750000000e-02	2.321395106e-01	-1.786770919e-05	2.959648343e-11
-2.760000000e-02	2.321394996e-01	-1.551158981e-05	1.587525989e-11
-2.770000000e-02	2.321394885e-01	-1.315547106e-05	1.475606228e-11
-2.780000000e-02	2.321394773e-01	-1.079935296e-05	6.579707145e-12
-2.790000000e-02	2.321394661e-01	-8.443235497e-06	6.631493642e-12
-2.800000000e-02	2.321394548e-01	-6.087118684e-06	1.253933221e-11
-2.810000000e-02	2.321394434e-01	-3.731002526e-06	1.370093722e-11
-2.820000000e-02	2.321394320e-01	-1.374887021e-06	1.232209234e-11
-2.830000000e-02	2.321394205e-01	9.812278218e-07	8.511256618e-12
-2.840000000e-02	2.321394089e-01	3.337342003e-06	7.744400071e-12
-2.850000000e-02	2.321393972e-01	5.693455518e-06	2.223134701e-11
-2.860000000e-02	2.321393855e-01	8.049568361e-06	1.997599685e-11
-2.870000000e-02	2.321393736e-01	1.040568053e-05	1.184129789e-11
-2.880000000e-02	2.321393618e-01	1.276179202e-05	8.843749813e-12
-2.890000000e-02	2.321393498e-01	1.511790283e-05	8.945016172e-12
-2.900000000e-02	2.321393378e-01	1.747401296e-05	2.675779203e-11
-2.910000000e-02	2.321393257e-01	1.983012239e-05	8.274153897e-12
-2.920000000e-02	2.321393135e-01	2.218623113e-05	6.685744790e-12
-2.930000000e-02	2.321393013e-01	2.454233918e-05	1.590622542e-11
-2.940000000e-02	2.321392890e-01	2.689844653e-05	2.299535229e-11
-2.950000000e-02	2.321392766e-01	2.925455317e-05	1.636940944e-11
-2.960000000e-02	2.321392641e-01	3.161065911e-05	1.431725471e-11
-2.970000000e-02	2.321392516e-01	3.396676434e-05	8.630221771e-12
-2.980000000e-02	2.321392390e-01	3.632286885e-05	1.081574476e-11
-2.990000000e-02	2.321392264e-01	3.867897264e-05	5.881825100e-11
-3.000000000e-02	2.321392136e-01	4.103507572e-05	2.198303507e-11
