# Im(epsi1)     Re(omega/c)      Im(omega/c)      Eq(det).Opt det CON kz, R=0.5 \mum, mu_c=0.3, Re(epsi1)=3.90solve_det_conkz_vs_kz.py
0.000000000e+00	2.321407438e-01	-6.658154329e-04	1.438637766e-11
-1.000000000e-04	2.321407525e-01	-6.634592694e-04	6.941543163e-12
-2.000000000e-04	2.321407612e-01	-6.611031055e-04	8.900459321e-12
-3.000000000e-04	2.321407697e-01	-6.587469413e-04	1.323468025e-11
-4.000000000e-04	2.321407782e-01	-6.563907767e-04	1.614372954e-11
-5.000000000e-04	2.321407866e-01	-6.540346118e-04	1.510872939e-11
-6.000000000e-04	2.321407950e-01	-6.516784465e-04	1.168735433e-11
-7.000000000e-04	2.321408032e-01	-6.493222809e-04	8.793547769e-12
-8.000000000e-04	2.321408114e-01	-6.469661150e-04	8.337040039e-12
-9.000000000e-04	2.321408196e-01	-6.446099487e-04	1.433253343e-11
-1.000000000e-03	2.321408276e-01	-6.422537821e-04	2.354375653e-11
-1.100000000e-03	2.321408356e-01	-6.398976151e-04	2.304506163e-11
-1.200000000e-03	2.321408435e-01	-6.375414479e-04	1.148792957e-11
-1.300000000e-03	2.321408513e-01	-6.351852803e-04	6.646905954e-12
-1.400000000e-03	2.321408591e-01	-6.328291124e-04	1.554795754e-11
-1.500000000e-03	2.321408668e-01	-6.304729441e-04	9.407242263e-12
-1.600000000e-03	2.321408744e-01	-6.281167756e-04	7.547236035e-12
-1.700000000e-03	2.321408820e-01	-6.257606067e-04	1.930470370e-11
-1.800000000e-03	2.321408895e-01	-6.234044376e-04	8.136501370e-12
-1.900000000e-03	2.321408969e-01	-6.210482681e-04	5.979773508e-12
-2.000000000e-03	2.321409042e-01	-6.186920984e-04	1.253037185e-11
-2.100000000e-03	2.321409115e-01	-6.163359284e-04	8.023773777e-12
-2.200000000e-03	2.321409187e-01	-6.139797580e-04	2.223847086e-11
-2.300000000e-03	2.321409258e-01	-6.116235874e-04	2.713927979e-11
-2.400000000e-03	2.321409328e-01	-6.092674165e-04	3.210325938e-12
-2.500000000e-03	2.321409398e-01	-6.069112453e-04	5.907067484e-11
-2.600000000e-03	2.321409467e-01	-6.045550739e-04	1.188091171e-11
-2.700000000e-03	2.321409536e-01	-6.021989022e-04	2.256039773e-11
-2.800000000e-03	2.321409603e-01	-5.998427302e-04	7.853002661e-11
-2.900000000e-03	2.321409670e-01	-5.974865579e-04	2.126887019e-11
-3.000000000e-03	2.321409736e-01	-5.951303854e-04	4.374409501e-11
-3.100000000e-03	2.321409802e-01	-5.927742126e-04	4.745993573e-11
-3.200000000e-03	2.321409867e-01	-5.904180396e-04	5.729628813e-12
-3.300000000e-03	2.321409931e-01	-5.880618664e-04	1.214634949e-11
-3.400000000e-03	2.321409994e-01	-5.857056928e-04	3.247019465e-11
-3.500000000e-03	2.321410057e-01	-5.833495191e-04	8.172835587e-12
-3.600000000e-03	2.321410119e-01	-5.809933451e-04	1.614364329e-11
-3.700000000e-03	2.321410180e-01	-5.786371709e-04	1.085264515e-11
-3.800000000e-03	2.321410240e-01	-5.762809964e-04	1.436348343e-11
-3.900000000e-03	2.321410300e-01	-5.739248217e-04	1.653509840e-11
-4.000000000e-03	2.321410359e-01	-5.715686468e-04	9.837157700e-12
-4.100000000e-03	2.321410417e-01	-5.692124717e-04	6.117675701e-11
-4.200000000e-03	2.321410475e-01	-5.668562963e-04	7.264196030e-12
-4.300000000e-03	2.321410532e-01	-5.645001208e-04	1.379602159e-11
-4.400000000e-03	2.321410588e-01	-5.621439450e-04	1.010331666e-11
-4.500000000e-03	2.321410643e-01	-5.597877690e-04	1.338803290e-11
-4.600000000e-03	2.321410698e-01	-5.574315928e-04	7.426837493e-12
-4.700000000e-03	2.321410752e-01	-5.550754165e-04	4.715759865e-12
-4.800000000e-03	2.321410805e-01	-5.527192399e-04	1.894275947e-11
-4.900000000e-03	2.321410858e-01	-5.503630631e-04	2.223706101e-11
-5.000000000e-03	2.321410910e-01	-5.480068862e-04	2.058879675e-11
-5.100000000e-03	2.321410961e-01	-5.456507090e-04	1.209378583e-11
-5.200000000e-03	2.321411011e-01	-5.432945317e-04	1.248821842e-11
-5.300000000e-03	2.321411061e-01	-5.409383542e-04	1.383263018e-11
-5.400000000e-03	2.321411110e-01	-5.385821766e-04	1.634242875e-11
-5.500000000e-03	2.321411158e-01	-5.362259987e-04	1.818930892e-11
-5.600000000e-03	2.321411206e-01	-5.338698207e-04	1.444825061e-11
-5.700000000e-03	2.321411253e-01	-5.315136426e-04	5.998230291e-12
-5.800000000e-03	2.321411299e-01	-5.291574643e-04	2.148521756e-11
-5.900000000e-03	2.321411344e-01	-5.268012858e-04	6.055700331e-11
-6.000000000e-03	2.321411389e-01	-5.244451072e-04	3.112974077e-11
-6.100000000e-03	2.321411433e-01	-5.220889284e-04	6.479256454e-12
-6.200000000e-03	2.321411476e-01	-5.197327495e-04	5.387356315e-12
-6.300000000e-03	2.321411519e-01	-5.173765704e-04	1.911857945e-11
-6.400000000e-03	2.321411561e-01	-5.150203912e-04	1.670197983e-11
-6.500000000e-03	2.321411602e-01	-5.126642119e-04	1.385414471e-11
-6.600000000e-03	2.321411642e-01	-5.103080325e-04	9.088811980e-12
-6.700000000e-03	2.321411682e-01	-5.079518529e-04	7.071872242e-12
-6.800000000e-03	2.321411721e-01	-5.055956732e-04	2.883558639e-11
-6.900000000e-03	2.321411759e-01	-5.032394934e-04	1.270144438e-11
-7.000000000e-03	2.321411796e-01	-5.008833134e-04	9.414644291e-12
-7.100000000e-03	2.321411833e-01	-4.985271334e-04	8.843625465e-12
-7.200000000e-03	2.321411869e-01	-4.961709532e-04	8.340392237e-12
-7.300000000e-03	2.321411905e-01	-4.938147730e-04	1.413878542e-11
-7.400000000e-03	2.321411939e-01	-4.914585926e-04	3.122710736e-11
-7.500000000e-03	2.321411973e-01	-4.891024122e-04	1.220952443e-11
-7.600000000e-03	2.321412006e-01	-4.867462316e-04	1.837843512e-11
-7.700000000e-03	2.321412039e-01	-4.843900510e-04	1.293623543e-11
-7.800000000e-03	2.321412071e-01	-4.820338703e-04	2.058724375e-11
-7.900000000e-03	2.321412102e-01	-4.796776895e-04	1.823809207e-11
-8.000000000e-03	2.321412132e-01	-4.773215086e-04	2.182343047e-11
-8.100000000e-03	2.321412162e-01	-4.749653276e-04	7.489864837e-12
-8.200000000e-03	2.321412191e-01	-4.726091466e-04	8.073865133e-12
-8.300000000e-03	2.321412219e-01	-4.702529655e-04	2.003750062e-11
-8.400000000e-03	2.321412246e-01	-4.678967844e-04	1.491980200e-11
-8.500000000e-03	2.321412273e-01	-4.655406031e-04	1.195161291e-11
-8.600000000e-03	2.321412299e-01	-4.631844219e-04	9.290818236e-12
-8.700000000e-03	2.321412324e-01	-4.608282405e-04	1.308679826e-11
-8.800000000e-03	2.321412349e-01	-4.584720592e-04	2.539497443e-11
-8.900000000e-03	2.321412373e-01	-4.561158777e-04	1.054545206e-11
-9.000000000e-03	2.321412396e-01	-4.537596963e-04	1.705052557e-11
-9.100000000e-03	2.321412419e-01	-4.514035148e-04	1.022700001e-11
-9.200000000e-03	2.321412440e-01	-4.490473333e-04	3.067080772e-11
-9.300000000e-03	2.321412461e-01	-4.466911517e-04	4.395025299e-11
-9.400000000e-03	2.321412482e-01	-4.443349701e-04	1.989312940e-11
-9.500000000e-03	2.321412501e-01	-4.419787885e-04	1.474899819e-11
-9.600000000e-03	2.321412520e-01	-4.396226068e-04	7.751468830e-12
-9.700000000e-03	2.321412538e-01	-4.372664252e-04	1.726969240e-11
-9.800000000e-03	2.321412556e-01	-4.349102435e-04	1.932699156e-11
-9.900000000e-03	2.321412572e-01	-4.325540618e-04	1.636332636e-11
-1.000000000e-02	2.321412588e-01	-4.301978801e-04	1.092758568e-11
-1.010000000e-02	2.321412604e-01	-4.278416985e-04	9.158866426e-12
-1.020000000e-02	2.321412618e-01	-4.254855168e-04	1.749465024e-11
-1.030000000e-02	2.321412632e-01	-4.231293351e-04	1.350931781e-11
-1.040000000e-02	2.321412645e-01	-4.207731534e-04	1.138882415e-11
-1.050000000e-02	2.321412658e-01	-4.184169718e-04	1.587032759e-11
-1.060000000e-02	2.321412669e-01	-4.160607901e-04	2.036706235e-11
-1.070000000e-02	2.321412680e-01	-4.137046085e-04	5.699893145e-12
-1.080000000e-02	2.321412691e-01	-4.113484269e-04	7.290647216e-12
-1.090000000e-02	2.321412700e-01	-4.089922453e-04	2.795955686e-11
-1.100000000e-02	2.321412709e-01	-4.066360638e-04	5.113060930e-11
-1.110000000e-02	2.321412717e-01	-4.042798823e-04	1.571155651e-11
-1.120000000e-02	2.321412725e-01	-4.019237008e-04	1.125360050e-11
-1.130000000e-02	2.321412731e-01	-3.995675194e-04	1.080891543e-11
-1.140000000e-02	2.321412737e-01	-3.972113380e-04	9.024929830e-12
-1.150000000e-02	2.321412742e-01	-3.948551567e-04	7.445177335e-12
-1.160000000e-02	2.321412747e-01	-3.924989754e-04	1.130743163e-11
-1.170000000e-02	2.321412751e-01	-3.901427942e-04	9.194107337e-12
-1.180000000e-02	2.321412754e-01	-3.877866130e-04	1.093974388e-11
-1.190000000e-02	2.321412756e-01	-3.854304319e-04	1.732891030e-11
-1.200000000e-02	2.321412758e-01	-3.830742509e-04	8.824001113e-12
-1.210000000e-02	2.321412759e-01	-3.807180700e-04	7.522425684e-12
-1.220000000e-02	2.321412759e-01	-3.783618891e-04	1.366694297e-11
-1.230000000e-02	2.321412759e-01	-3.760057083e-04	7.556183077e-12
-1.240000000e-02	2.321412757e-01	-3.736495275e-04	7.384254613e-11
-1.250000000e-02	2.321412756e-01	-3.712933469e-04	1.101781674e-11
-1.260000000e-02	2.321412753e-01	-3.689371663e-04	1.196867975e-11
-1.270000000e-02	2.321412750e-01	-3.665809859e-04	1.217409488e-11
-1.280000000e-02	2.321412745e-01	-3.642248055e-04	1.000566875e-11
-1.290000000e-02	2.321412741e-01	-3.618686253e-04	8.979575675e-12
-1.300000000e-02	2.321412735e-01	-3.595124451e-04	8.686342703e-12
-1.310000000e-02	2.321412729e-01	-3.571562650e-04	1.561090987e-11
-1.320000000e-02	2.321412722e-01	-3.548000851e-04	8.520913402e-12
-1.330000000e-02	2.321412714e-01	-3.524439053e-04	9.992143448e-12
-1.340000000e-02	2.321412706e-01	-3.500877256e-04	1.868823489e-11
-1.350000000e-02	2.321412697e-01	-3.477315460e-04	1.332895743e-11
-1.360000000e-02	2.321412687e-01	-3.453753665e-04	1.612972344e-11
-1.370000000e-02	2.321412677e-01	-3.430191872e-04	3.150126167e-11
-1.380000000e-02	2.321412665e-01	-3.406630080e-04	1.028949534e-11
-1.390000000e-02	2.321412653e-01	-3.383068289e-04	1.104165412e-11
-1.400000000e-02	2.321412641e-01	-3.359506500e-04	9.074169212e-12
-1.410000000e-02	2.321412627e-01	-3.335944712e-04	1.148189952e-11
-1.420000000e-02	2.321412613e-01	-3.312382926e-04	1.712210640e-11
-1.430000000e-02	2.321412598e-01	-3.288821141e-04	9.562669873e-12
-1.440000000e-02	2.321412583e-01	-3.265259357e-04	1.082139590e-11
-1.450000000e-02	2.321412567e-01	-3.241697576e-04	6.708547231e-12
-1.460000000e-02	2.321412550e-01	-3.218135796e-04	8.589996230e-12
-1.470000000e-02	2.321412532e-01	-3.194574017e-04	1.328882901e-10
-1.480000000e-02	2.321412513e-01	-3.171012240e-04	7.163306160e-11
-1.490000000e-02	2.321412494e-01	-3.147450465e-04	3.226585102e-11
-1.500000000e-02	2.321412474e-01	-3.123888692e-04	3.005845538e-11
-1.510000000e-02	2.321412454e-01	-3.100326921e-04	3.143219939e-11
-1.520000000e-02	2.321412433e-01	-3.076765151e-04	7.707863551e-12
-1.530000000e-02	2.321412411e-01	-3.053203383e-04	1.028082239e-11
-1.540000000e-02	2.321412388e-01	-3.029641617e-04	6.957956486e-12
-1.550000000e-02	2.321412364e-01	-3.006079853e-04	5.923276310e-12
-1.560000000e-02	2.321412340e-01	-2.982518091e-04	1.434822124e-11
-1.570000000e-02	2.321412315e-01	-2.958956332e-04	2.062573169e-11
-1.580000000e-02	2.321412290e-01	-2.935394574e-04	1.066200105e-11
-1.590000000e-02	2.321412264e-01	-2.911832818e-04	1.958858914e-11
-1.600000000e-02	2.321412237e-01	-2.888271064e-04	3.170725045e-11
-1.610000000e-02	2.321412209e-01	-2.864709313e-04	1.216106470e-11
-1.620000000e-02	2.321412180e-01	-2.841147563e-04	1.632501346e-11
-1.630000000e-02	2.321412151e-01	-2.817585816e-04	8.299475179e-12
-1.640000000e-02	2.321412121e-01	-2.794024072e-04	2.249518325e-11
-1.650000000e-02	2.321412091e-01	-2.770462329e-04	4.117711729e-11
-1.660000000e-02	2.321412059e-01	-2.746900589e-04	1.385527508e-11
-1.670000000e-02	2.321412027e-01	-2.723338851e-04	1.899447108e-11
-1.680000000e-02	2.321411995e-01	-2.699777116e-04	1.443467249e-11
-1.690000000e-02	2.321411961e-01	-2.676215383e-04	2.112990797e-11
-1.700000000e-02	2.321411927e-01	-2.652653653e-04	1.592125815e-11
-1.710000000e-02	2.321411892e-01	-2.629091925e-04	9.419239377e-12
-1.720000000e-02	2.321411856e-01	-2.605530199e-04	1.114952120e-11
-1.730000000e-02	2.321411820e-01	-2.581968477e-04	2.242807628e-11
-1.740000000e-02	2.321411783e-01	-2.558406757e-04	1.136023517e-11
-1.750000000e-02	2.321411745e-01	-2.534845039e-04	7.445782007e-12
-1.760000000e-02	2.321411707e-01	-2.511283324e-04	2.135578204e-11
-1.770000000e-02	2.321411667e-01	-2.487721612e-04	8.541395919e-12
-1.780000000e-02	2.321411628e-01	-2.464159903e-04	1.877564493e-11
-1.790000000e-02	2.321411587e-01	-2.440598197e-04	2.085328469e-11
-1.800000000e-02	2.321411546e-01	-2.417036493e-04	9.806685556e-12
-1.810000000e-02	2.321411503e-01	-2.393474793e-04	5.912750773e-12
-1.820000000e-02	2.321411461e-01	-2.369913095e-04	3.754971556e-11
-1.830000000e-02	2.321411417e-01	-2.346351400e-04	1.894324705e-11
-1.840000000e-02	2.321411373e-01	-2.322789709e-04	7.611424552e-11
-1.850000000e-02	2.321411328e-01	-2.299228020e-04	1.386376157e-11
-1.860000000e-02	2.321411282e-01	-2.275666334e-04	2.650766039e-11
-1.870000000e-02	2.321411236e-01	-2.252104652e-04	1.200849625e-11
-1.880000000e-02	2.321411189e-01	-2.228542972e-04	1.375096297e-11
-1.890000000e-02	2.321411141e-01	-2.204981296e-04	1.204363389e-11
-1.900000000e-02	2.321411092e-01	-2.181419623e-04	6.372118029e-12
-1.910000000e-02	2.321411043e-01	-2.157857953e-04	1.919005213e-11
-1.920000000e-02	2.321410993e-01	-2.134296287e-04	2.076637612e-11
-1.930000000e-02	2.321410943e-01	-2.110734624e-04	9.736409057e-12
-1.940000000e-02	2.321410891e-01	-2.087172964e-04	1.722604342e-11
-1.950000000e-02	2.321410839e-01	-2.063611308e-04	1.211529132e-11
-1.960000000e-02	2.321410786e-01	-2.040049655e-04	1.770923100e-11
-1.970000000e-02	2.321410733e-01	-2.016488005e-04	1.522670736e-11
-1.980000000e-02	2.321410678e-01	-1.992926359e-04	7.442454381e-12
-1.990000000e-02	2.321410623e-01	-1.969364717e-04	5.235733742e-11
-2.000000000e-02	2.321410568e-01	-1.945803078e-04	1.707909337e-11
-2.010000000e-02	2.321410511e-01	-1.922241443e-04	5.450452080e-12
-2.020000000e-02	2.321410454e-01	-1.898679811e-04	9.691088439e-12
-2.030000000e-02	2.321410396e-01	-1.875118183e-04	2.279549654e-11
-2.040000000e-02	2.321410338e-01	-1.851556559e-04	7.427016192e-11
-2.050000000e-02	2.321410278e-01	-1.827994939e-04	1.179706706e-11
-2.060000000e-02	2.321410218e-01	-1.804433322e-04	2.174363353e-11
-2.070000000e-02	2.321410158e-01	-1.780871709e-04	9.716371639e-12
-2.080000000e-02	2.321410096e-01	-1.757310101e-04	1.130461013e-11
-2.090000000e-02	2.321410034e-01	-1.733748496e-04	2.268607878e-11
-2.100000000e-02	2.321409971e-01	-1.710186895e-04	1.176218761e-11
-2.110000000e-02	2.321409908e-01	-1.686625297e-04	1.033878219e-11
-2.120000000e-02	2.321409843e-01	-1.663063704e-04	2.324748069e-11
-2.130000000e-02	2.321409778e-01	-1.639502115e-04	3.759774237e-11
-2.140000000e-02	2.321409713e-01	-1.615940530e-04	9.814896776e-12
-2.150000000e-02	2.321409646e-01	-1.592378950e-04	8.715176650e-12
-2.160000000e-02	2.321409579e-01	-1.568817373e-04	3.993993068e-11
-2.170000000e-02	2.321409511e-01	-1.545255801e-04	1.421321548e-11
-2.180000000e-02	2.321409442e-01	-1.521694232e-04	1.859644799e-11
-2.190000000e-02	2.321409373e-01	-1.498132669e-04	1.128455790e-11
-2.200000000e-02	2.321409303e-01	-1.474571109e-04	1.297768139e-11
-2.210000000e-02	2.321409232e-01	-1.451009554e-04	1.405902737e-11
-2.220000000e-02	2.321409161e-01	-1.427448003e-04	1.201067646e-11
-2.230000000e-02	2.321409089e-01	-1.403886456e-04	1.986167991e-11
-2.240000000e-02	2.321409016e-01	-1.380324914e-04	2.156068598e-11
-2.250000000e-02	2.321408942e-01	-1.356763377e-04	9.511998762e-12
-2.260000000e-02	2.321408868e-01	-1.333201844e-04	1.024609234e-11
-2.270000000e-02	2.321408793e-01	-1.309640315e-04	1.841749869e-11
-2.280000000e-02	2.321408717e-01	-1.286078791e-04	2.181475307e-11
-2.290000000e-02	2.321408640e-01	-1.262517272e-04	8.134051782e-12
-2.300000000e-02	2.321408563e-01	-1.238955758e-04	5.644910043e-11
-2.310000000e-02	2.321408485e-01	-1.215394248e-04	1.601172285e-11
-2.320000000e-02	2.321408407e-01	-1.191832743e-04	1.240057857e-11
-2.330000000e-02	2.321408327e-01	-1.168271242e-04	3.900830214e-11
-2.340000000e-02	2.321408247e-01	-1.144709747e-04	1.227156888e-11
-2.350000000e-02	2.321408166e-01	-1.121148256e-04	4.571150192e-11
-2.360000000e-02	2.321408085e-01	-1.097586770e-04	1.057715189e-11
-2.370000000e-02	2.321408003e-01	-1.074025290e-04	7.212525823e-12
-2.380000000e-02	2.321407920e-01	-1.050463814e-04	1.447602019e-11
-2.390000000e-02	2.321407836e-01	-1.026902343e-04	1.087489179e-11
-2.400000000e-02	2.321407752e-01	-1.003340877e-04	7.543123563e-12
-2.410000000e-02	2.321407667e-01	-9.797794162e-05	5.673288862e-12
-2.420000000e-02	2.321407581e-01	-9.562179606e-05	7.561646392e-12
-2.430000000e-02	2.321407494e-01	-9.326565100e-05	2.714842767e-11
-2.440000000e-02	2.321407407e-01	-9.090950647e-05	1.376261674e-11
-2.450000000e-02	2.321407319e-01	-8.855336245e-05	1.753212261e-11
-2.460000000e-02	2.321407230e-01	-8.619721897e-05	5.550976732e-12
-2.470000000e-02	2.321407141e-01	-8.384107601e-05	7.234946605e-12
-2.480000000e-02	2.321407051e-01	-8.148493358e-05	7.191774967e-12
-2.490000000e-02	2.321406960e-01	-7.912879169e-05	1.104013420e-11
-2.500000000e-02	2.321406868e-01	-7.677265034e-05	1.082738413e-11
-2.510000000e-02	2.321406776e-01	-7.441650953e-05	1.042846419e-11
-2.520000000e-02	2.321406683e-01	-7.206036927e-05	1.771178569e-11
-2.530000000e-02	2.321406589e-01	-6.970422956e-05	8.144642145e-12
-2.540000000e-02	2.321406495e-01	-6.734809040e-05	2.031731324e-11
-2.550000000e-02	2.321406400e-01	-6.499195180e-05	3.497238467e-12
-2.560000000e-02	2.321406304e-01	-6.263581376e-05	5.700496620e-12
-2.570000000e-02	2.321406207e-01	-6.027967629e-05	3.676553559e-11
-2.580000000e-02	2.321406110e-01	-5.792353939e-05	2.152270917e-11
-2.590000000e-02	2.321406012e-01	-5.556740306e-05	1.702948982e-11
-2.600000000e-02	2.321405913e-01	-5.321126730e-05	8.302044465e-12
-2.610000000e-02	2.321405814e-01	-5.085513213e-05	1.174424109e-11
-2.620000000e-02	2.321405714e-01	-4.849899754e-05	2.543258197e-11
-2.630000000e-02	2.321405613e-01	-4.614286353e-05	9.235491955e-12
-2.640000000e-02	2.321405511e-01	-4.378673012e-05	8.485644520e-12
-2.650000000e-02	2.321405409e-01	-4.143059730e-05	1.350961768e-11
-2.660000000e-02	2.321405306e-01	-3.907446508e-05	1.303288955e-11
-2.670000000e-02	2.321405202e-01	-3.671833346e-05	1.696023872e-11
-2.680000000e-02	2.321405098e-01	-3.436220244e-05	4.157422734e-11
-2.690000000e-02	2.321404993e-01	-3.200607203e-05	1.241438256e-11
-2.700000000e-02	2.321404887e-01	-2.964994224e-05	1.372221159e-11
-2.710000000e-02	2.321404780e-01	-2.729381306e-05	1.143125938e-11
-2.720000000e-02	2.321404673e-01	-2.493768450e-05	8.112740350e-12
-2.730000000e-02	2.321404565e-01	-2.258155657e-05	1.210855504e-11
-2.740000000e-02	2.321404456e-01	-2.022542926e-05	2.265347023e-11
-2.750000000e-02	2.321404346e-01	-1.786930258e-05	8.787176121e-12
-2.760000000e-02	2.321404236e-01	-1.551317654e-05	1.022400799e-11
-2.770000000e-02	2.321404125e-01	-1.315705113e-05	9.113342995e-12
-2.780000000e-02	2.321404014e-01	-1.080092637e-05	3.413145144e-11
-2.790000000e-02	2.321403901e-01	-8.444802253e-06	1.587906992e-11
-2.800000000e-02	2.321403788e-01	-6.088678784e-06	4.273540571e-11
-2.810000000e-02	2.321403674e-01	-3.732555966e-06	1.553799124e-11
-2.820000000e-02	2.321403560e-01	-1.376433806e-06	2.910845968e-11
-2.830000000e-02	2.321403445e-01	9.796876994e-07	1.582238975e-11
-2.840000000e-02	2.321403329e-01	3.335808538e-06	9.552388691e-12
-2.850000000e-02	2.321403212e-01	5.691928710e-06	1.409732233e-11
-2.860000000e-02	2.321403095e-01	8.048048211e-06	1.000476435e-11
-2.870000000e-02	2.321402977e-01	1.040416704e-05	1.080315916e-11
-2.880000000e-02	2.321402858e-01	1.276028519e-05	9.296576146e-12
-2.890000000e-02	2.321402738e-01	1.511640265e-05	9.130917128e-12
-2.900000000e-02	2.321402618e-01	1.747251944e-05	1.509424057e-11
-2.910000000e-02	2.321402497e-01	1.982863553e-05	1.570277598e-11
-2.920000000e-02	2.321402376e-01	2.218475093e-05	7.727217143e-12
-2.930000000e-02	2.321402253e-01	2.454086564e-05	8.727179241e-12
-2.940000000e-02	2.321402130e-01	2.689697964e-05	1.698995164e-11
-2.950000000e-02	2.321402006e-01	2.925309295e-05	6.776946341e-12
-2.960000000e-02	2.321401882e-01	3.160920554e-05	3.135296470e-11
-2.970000000e-02	2.321401756e-01	3.396531743e-05	6.141760792e-11
-2.980000000e-02	2.321401630e-01	3.632142860e-05	2.560441367e-11
-2.990000000e-02	2.321401504e-01	3.867753905e-05	1.452197577e-11
-3.000000000e-02	2.321401376e-01	4.103364878e-05	1.402484943e-11
