# Im(epsi1)     Re(omega/c)      Im(omega/c)      Eq(det).Opt det CON kz, R=0.5 \mum, mu_c=0.3, Re(epsi1)=3.90solve_det_conkz_vs_kz.py
0.000000000e+00	2.321394749e-01	-6.658107302e-04	1.223695941e-11
-1.000000000e-04	2.321394836e-01	-6.634545758e-04	7.847966999e-12
-2.000000000e-04	2.321394922e-01	-6.610984211e-04	4.165130834e-11
-3.000000000e-04	2.321395007e-01	-6.587422660e-04	6.880781784e-11
-4.000000000e-04	2.321395092e-01	-6.563861106e-04	2.252847463e-11
-5.000000000e-04	2.321395176e-01	-6.540299548e-04	4.553210628e-11
-6.000000000e-04	2.321395260e-01	-6.516737987e-04	2.209085421e-11
-7.000000000e-04	2.321395343e-01	-6.493176422e-04	6.787498249e-12
-8.000000000e-04	2.321395425e-01	-6.469614854e-04	1.964818076e-11
-9.000000000e-04	2.321395506e-01	-6.446053283e-04	2.947964415e-11
-1.000000000e-03	2.321395586e-01	-6.422491708e-04	9.255137458e-12
-1.100000000e-03	2.321395666e-01	-6.398930130e-04	1.423933652e-11
-1.200000000e-03	2.321395745e-01	-6.375368549e-04	1.048266148e-11
-1.300000000e-03	2.321395824e-01	-6.351806964e-04	2.209638189e-11
-1.400000000e-03	2.321395901e-01	-6.328245377e-04	2.248566309e-11
-1.500000000e-03	2.321395978e-01	-6.304683786e-04	5.076026086e-12
-1.600000000e-03	2.321396055e-01	-6.281122192e-04	8.161995989e-12
-1.700000000e-03	2.321396130e-01	-6.257560595e-04	1.116844669e-11
-1.800000000e-03	2.321396205e-01	-6.233998995e-04	2.150723132e-11
-1.900000000e-03	2.321396279e-01	-6.210437392e-04	2.207239463e-11
-2.000000000e-03	2.321396352e-01	-6.186875786e-04	1.530584647e-11
-2.100000000e-03	2.321396425e-01	-6.163314177e-04	2.698931594e-11
-2.200000000e-03	2.321396497e-01	-6.139752565e-04	2.059768361e-11
-2.300000000e-03	2.321396568e-01	-6.116190950e-04	3.147247829e-11
-2.400000000e-03	2.321396639e-01	-6.092629333e-04	8.793905861e-11
-2.500000000e-03	2.321396708e-01	-6.069067712e-04	3.634255492e-11
-2.600000000e-03	2.321396777e-01	-6.045506089e-04	1.671664159e-11
-2.700000000e-03	2.321396846e-01	-6.021944463e-04	7.650418361e-12
-2.800000000e-03	2.321396913e-01	-5.998382835e-04	1.322061592e-11
-2.900000000e-03	2.321396980e-01	-5.974821204e-04	1.625955401e-11
-3.000000000e-03	2.321397047e-01	-5.951259570e-04	1.565148883e-11
-3.100000000e-03	2.321397112e-01	-5.927697934e-04	2.339011253e-11
-3.200000000e-03	2.321397177e-01	-5.904136295e-04	9.031021699e-12
-3.300000000e-03	2.321397241e-01	-5.880574654e-04	7.492414861e-12
-3.400000000e-03	2.321397304e-01	-5.857013010e-04	8.703357961e-12
-3.500000000e-03	2.321397367e-01	-5.833451364e-04	1.551446276e-11
-3.600000000e-03	2.321397429e-01	-5.809889715e-04	2.121523537e-11
-3.700000000e-03	2.321397490e-01	-5.786328065e-04	1.211741567e-11
-3.800000000e-03	2.321397550e-01	-5.762766411e-04	6.165782548e-12
-3.900000000e-03	2.321397610e-01	-5.739204756e-04	1.442621420e-11
-4.000000000e-03	2.321397669e-01	-5.715643098e-04	9.843857776e-12
-4.100000000e-03	2.321397727e-01	-5.692081438e-04	8.460116277e-12
-4.200000000e-03	2.321397785e-01	-5.668519776e-04	2.622918196e-11
-4.300000000e-03	2.321397842e-01	-5.644958112e-04	1.912630105e-11
-4.400000000e-03	2.321397898e-01	-5.621396446e-04	1.478051589e-11
-4.500000000e-03	2.321397954e-01	-5.597834778e-04	4.338479583e-11
-4.600000000e-03	2.321398008e-01	-5.574273107e-04	4.823981273e-12
-4.700000000e-03	2.321398062e-01	-5.550711435e-04	1.135453853e-11
-4.800000000e-03	2.321398116e-01	-5.527149761e-04	1.695587192e-11
-4.900000000e-03	2.321398168e-01	-5.503588084e-04	1.216035113e-10
-5.000000000e-03	2.321398220e-01	-5.480026406e-04	1.464698838e-11
-5.100000000e-03	2.321398271e-01	-5.456464726e-04	2.861272427e-11
-5.200000000e-03	2.321398322e-01	-5.432903045e-04	6.247115981e-12
-5.300000000e-03	2.321398371e-01	-5.409341361e-04	9.049318594e-12
-5.400000000e-03	2.321398420e-01	-5.385779676e-04	1.814802693e-11
-5.500000000e-03	2.321398468e-01	-5.362217989e-04	2.169433284e-11
-5.600000000e-03	2.321398516e-01	-5.338656301e-04	1.763040885e-11
-5.700000000e-03	2.321398563e-01	-5.315094610e-04	9.463637945e-12
-5.800000000e-03	2.321398609e-01	-5.291532919e-04	8.274160737e-12
-5.900000000e-03	2.321398654e-01	-5.267971225e-04	1.574908489e-11
-6.000000000e-03	2.321398699e-01	-5.244409531e-04	2.091240290e-11
-6.100000000e-03	2.321398743e-01	-5.220847834e-04	1.263168539e-11
-6.200000000e-03	2.321398786e-01	-5.197286137e-04	9.349245147e-12
-6.300000000e-03	2.321398829e-01	-5.173724438e-04	8.513111138e-12
-6.400000000e-03	2.321398871e-01	-5.150162737e-04	3.975958888e-11
-6.500000000e-03	2.321398912e-01	-5.126601035e-04	2.981606698e-12
-6.600000000e-03	2.321398952e-01	-5.103039332e-04	3.077217229e-11
-6.700000000e-03	2.321398992e-01	-5.079477628e-04	5.388515629e-11
-6.800000000e-03	2.321399031e-01	-5.055915922e-04	7.927204727e-12
-6.900000000e-03	2.321399069e-01	-5.032354215e-04	2.370632232e-11
-7.000000000e-03	2.321399107e-01	-5.008792508e-04	2.115731857e-11
-7.100000000e-03	2.321399143e-01	-4.985230799e-04	1.304762359e-11
-7.200000000e-03	2.321399179e-01	-4.961669088e-04	8.829518816e-12
-7.300000000e-03	2.321399215e-01	-4.938107377e-04	8.668139290e-12
-7.400000000e-03	2.321399249e-01	-4.914545665e-04	8.588319338e-12
-7.500000000e-03	2.321399283e-01	-4.890983952e-04	9.581993439e-12
-7.600000000e-03	2.321399317e-01	-4.867422238e-04	1.530190606e-11
-7.700000000e-03	2.321399349e-01	-4.843860523e-04	1.305503794e-11
-7.800000000e-03	2.321399381e-01	-4.820298807e-04	8.183544086e-12
-7.900000000e-03	2.321399412e-01	-4.796737091e-04	1.540447563e-10
-8.000000000e-03	2.321399442e-01	-4.773175373e-04	8.769082482e-12
-8.100000000e-03	2.321399472e-01	-4.749613655e-04	6.455084335e-12
-8.200000000e-03	2.321399501e-01	-4.726051937e-04	9.490824229e-12
-8.300000000e-03	2.321399529e-01	-4.702490217e-04	2.677837342e-11
-8.400000000e-03	2.321399556e-01	-4.678928497e-04	1.860841831e-11
-8.500000000e-03	2.321399583e-01	-4.655366776e-04	1.825360403e-11
-8.600000000e-03	2.321399609e-01	-4.631805055e-04	1.756970477e-11
-8.700000000e-03	2.321399635e-01	-4.608243333e-04	6.217677229e-12
-8.800000000e-03	2.321399659e-01	-4.584681611e-04	1.618981803e-11
-8.900000000e-03	2.321399683e-01	-4.561119888e-04	1.108914839e-11
-9.000000000e-03	2.321399706e-01	-4.537558165e-04	1.290386045e-11
-9.100000000e-03	2.321399729e-01	-4.513996441e-04	1.250571653e-11
-9.200000000e-03	2.321399750e-01	-4.490434717e-04	6.872202016e-12
-9.300000000e-03	2.321399772e-01	-4.466872993e-04	1.347597523e-10
-9.400000000e-03	2.321399792e-01	-4.443311268e-04	2.587013281e-11
-9.500000000e-03	2.321399811e-01	-4.419749544e-04	1.895955664e-11
-9.600000000e-03	2.321399830e-01	-4.396187819e-04	9.046079765e-12
-9.700000000e-03	2.321399848e-01	-4.372626094e-04	1.346558467e-11
-9.800000000e-03	2.321399866e-01	-4.349064368e-04	2.680519990e-11
-9.900000000e-03	2.321399883e-01	-4.325502643e-04	2.325701897e-11
-1.000000000e-02	2.321399899e-01	-4.301940918e-04	1.046920499e-11
-1.010000000e-02	2.321399914e-01	-4.278379192e-04	1.725080803e-11
-1.020000000e-02	2.321399928e-01	-4.254817467e-04	8.832553981e-12
-1.030000000e-02	2.321399942e-01	-4.231255741e-04	1.042886658e-11
-1.040000000e-02	2.321399955e-01	-4.207694016e-04	2.251804228e-11
-1.050000000e-02	2.321399968e-01	-4.184132291e-04	6.961618218e-12
-1.060000000e-02	2.321399980e-01	-4.160570566e-04	8.232392906e-12
-1.070000000e-02	2.321399991e-01	-4.137008841e-04	8.823795137e-12
-1.080000000e-02	2.321400001e-01	-4.113447117e-04	1.489485592e-11
-1.090000000e-02	2.321400010e-01	-4.089885393e-04	1.061524942e-11
-1.100000000e-02	2.321400019e-01	-4.066323669e-04	9.104246646e-12
-1.110000000e-02	2.321400027e-01	-4.042761945e-04	2.387171276e-11
-1.120000000e-02	2.321400035e-01	-4.019200222e-04	1.911641842e-11
-1.130000000e-02	2.321400041e-01	-3.995638499e-04	1.372436952e-11
-1.140000000e-02	2.321400047e-01	-3.972076777e-04	9.844940343e-12
-1.150000000e-02	2.321400053e-01	-3.948515055e-04	5.063837683e-12
-1.160000000e-02	2.321400057e-01	-3.924953333e-04	6.592664300e-12
-1.170000000e-02	2.321400061e-01	-3.901391613e-04	9.465252166e-12
-1.180000000e-02	2.321400064e-01	-3.877829892e-04	1.579527023e-11
-1.190000000e-02	2.321400066e-01	-3.854268173e-04	6.764893503e-11
-1.200000000e-02	2.321400068e-01	-3.830706454e-04	1.574892237e-11
-1.210000000e-02	2.321400069e-01	-3.807144736e-04	6.859724915e-12
-1.220000000e-02	2.321400069e-01	-3.783583018e-04	9.610993793e-12
-1.230000000e-02	2.321400069e-01	-3.760021302e-04	2.441171429e-11
-1.240000000e-02	2.321400068e-01	-3.736459586e-04	1.239420582e-11
-1.250000000e-02	2.321400066e-01	-3.712897871e-04	2.235737832e-11
-1.260000000e-02	2.321400063e-01	-3.689336157e-04	3.076616948e-11
-1.270000000e-02	2.321400060e-01	-3.665774444e-04	9.610856201e-12
-1.280000000e-02	2.321400056e-01	-3.642212731e-04	9.373272643e-12
-1.290000000e-02	2.321400051e-01	-3.618651020e-04	4.614073475e-11
-1.300000000e-02	2.321400045e-01	-3.595089310e-04	2.082241359e-11
-1.310000000e-02	2.321400039e-01	-3.571527601e-04	9.251230131e-12
-1.320000000e-02	2.321400032e-01	-3.547965893e-04	9.897306422e-11
-1.330000000e-02	2.321400024e-01	-3.524404186e-04	1.026946919e-11
-1.340000000e-02	2.321400016e-01	-3.500842480e-04	1.639332274e-11
-1.350000000e-02	2.321400007e-01	-3.477280776e-04	1.621825032e-11
-1.360000000e-02	2.321399997e-01	-3.453719073e-04	1.746541423e-11
-1.370000000e-02	2.321399987e-01	-3.430157371e-04	9.668819961e-12
-1.380000000e-02	2.321399975e-01	-3.406595670e-04	3.987816488e-11
-1.390000000e-02	2.321399963e-01	-3.383033971e-04	1.533842058e-11
-1.400000000e-02	2.321399951e-01	-3.359472273e-04	3.029205162e-11
-1.410000000e-02	2.321399937e-01	-3.335910577e-04	1.237415305e-11
-1.420000000e-02	2.321399923e-01	-3.312348882e-04	7.103126826e-12
-1.430000000e-02	2.321399908e-01	-3.288787189e-04	1.071539853e-11
-1.440000000e-02	2.321399893e-01	-3.265225497e-04	6.730426688e-11
-1.450000000e-02	2.321399877e-01	-3.241663806e-04	1.098683882e-11
-1.460000000e-02	2.321399860e-01	-3.218102118e-04	6.494998890e-12
-1.470000000e-02	2.321399842e-01	-3.194540431e-04	2.206782457e-11
-1.480000000e-02	2.321399824e-01	-3.170978745e-04	1.303576656e-11
-1.490000000e-02	2.321399804e-01	-3.147417062e-04	1.682022986e-11
-1.500000000e-02	2.321399785e-01	-3.123855380e-04	2.027903381e-11
-1.510000000e-02	2.321399764e-01	-3.100293700e-04	6.106692357e-12
-1.520000000e-02	2.321399743e-01	-3.076732022e-04	9.272131332e-12
-1.530000000e-02	2.321399721e-01	-3.053170345e-04	1.125102416e-11
-1.540000000e-02	2.321399698e-01	-3.029608671e-04	1.280185564e-11
-1.550000000e-02	2.321399675e-01	-3.006046998e-04	1.002552807e-11
-1.560000000e-02	2.321399650e-01	-2.982485328e-04	1.359795900e-11
-1.570000000e-02	2.321399626e-01	-2.958923659e-04	1.933989875e-11
-1.580000000e-02	2.321399600e-01	-2.935361993e-04	6.763896794e-12
-1.590000000e-02	2.321399574e-01	-2.911800329e-04	4.466229281e-11
-1.600000000e-02	2.321399547e-01	-2.888238666e-04	1.823065112e-11
-1.610000000e-02	2.321399519e-01	-2.864677006e-04	1.857115599e-11
-1.620000000e-02	2.321399490e-01	-2.841115348e-04	1.014590702e-11
-1.630000000e-02	2.321399461e-01	-2.817553693e-04	1.532483522e-11
-1.640000000e-02	2.321399431e-01	-2.793992039e-04	1.716627959e-11
-1.650000000e-02	2.321399401e-01	-2.770430388e-04	2.373101003e-11
-1.660000000e-02	2.321399369e-01	-2.746868740e-04	1.548925668e-11
-1.670000000e-02	2.321399337e-01	-2.723307093e-04	7.545413826e-12
-1.680000000e-02	2.321399305e-01	-2.699745449e-04	5.106892574e-12
-1.690000000e-02	2.321399271e-01	-2.676183808e-04	6.350506973e-12
-1.700000000e-02	2.321399237e-01	-2.652622169e-04	2.605145200e-11
-1.710000000e-02	2.321399202e-01	-2.629060533e-04	1.618553945e-11
-1.720000000e-02	2.321399166e-01	-2.605498899e-04	2.083747180e-11
-1.730000000e-02	2.321399130e-01	-2.581937267e-04	7.662463657e-12
-1.740000000e-02	2.321399093e-01	-2.558375639e-04	1.730473811e-11
-1.750000000e-02	2.321399055e-01	-2.534814013e-04	1.804897605e-11
-1.760000000e-02	2.321399017e-01	-2.511252390e-04	1.473918696e-11
-1.770000000e-02	2.321398978e-01	-2.487690769e-04	1.784736599e-11
-1.780000000e-02	2.321398938e-01	-2.464129151e-04	8.311236241e-12
-1.790000000e-02	2.321398897e-01	-2.440567536e-04	5.394734394e-12
-1.800000000e-02	2.321398856e-01	-2.417005924e-04	7.514799620e-11
-1.810000000e-02	2.321398814e-01	-2.393444315e-04	1.081394404e-10
-1.820000000e-02	2.321398771e-01	-2.369882709e-04	1.026690660e-11
-1.830000000e-02	2.321398727e-01	-2.346321105e-04	9.795636413e-12
-1.840000000e-02	2.321398683e-01	-2.322759505e-04	2.948351940e-11
-1.850000000e-02	2.321398638e-01	-2.299197908e-04	6.755194173e-12
-1.860000000e-02	2.321398592e-01	-2.275636314e-04	1.181197192e-11
-1.870000000e-02	2.321398546e-01	-2.252074723e-04	2.353375710e-11
-1.880000000e-02	2.321398499e-01	-2.228513135e-04	1.016146583e-11
-1.890000000e-02	2.321398451e-01	-2.204951550e-04	1.277872685e-11
-1.900000000e-02	2.321398403e-01	-2.181389968e-04	2.423180110e-11
-1.910000000e-02	2.321398353e-01	-2.157828390e-04	5.340457423e-11
-1.920000000e-02	2.321398303e-01	-2.134266815e-04	2.374101991e-11
-1.930000000e-02	2.321398253e-01	-2.110705243e-04	8.058082771e-12
-1.940000000e-02	2.321398201e-01	-2.087143675e-04	1.124445212e-11
-1.950000000e-02	2.321398149e-01	-2.063582110e-04	2.176291184e-11
-1.960000000e-02	2.321398096e-01	-2.040020548e-04	7.790391756e-12
-1.970000000e-02	2.321398043e-01	-2.016458990e-04	1.752474226e-11
-1.980000000e-02	2.321397988e-01	-1.992897436e-04	7.363650113e-12
-1.990000000e-02	2.321397933e-01	-1.969335885e-04	1.698181746e-11
-2.000000000e-02	2.321397878e-01	-1.945774338e-04	1.215047647e-11
-2.010000000e-02	2.321397821e-01	-1.922212794e-04	2.515481337e-11
-2.020000000e-02	2.321397764e-01	-1.898651254e-04	6.389237251e-12
-2.030000000e-02	2.321397706e-01	-1.875089717e-04	1.691513997e-11
-2.040000000e-02	2.321397648e-01	-1.851528184e-04	2.722765832e-11
-2.050000000e-02	2.321397589e-01	-1.827966655e-04	6.983886580e-12
-2.060000000e-02	2.321397529e-01	-1.804405130e-04	8.970759314e-12
-2.070000000e-02	2.321397468e-01	-1.780843609e-04	1.342529017e-11
-2.080000000e-02	2.321397406e-01	-1.757282092e-04	9.300484155e-12
-2.090000000e-02	2.321397344e-01	-1.733720578e-04	8.167822329e-12
-2.100000000e-02	2.321397281e-01	-1.710159068e-04	1.800434092e-11
-2.110000000e-02	2.321397218e-01	-1.686597563e-04	2.156082685e-11
-2.120000000e-02	2.321397153e-01	-1.663036061e-04	3.048818082e-11
-2.130000000e-02	2.321397088e-01	-1.639474564e-04	9.954006734e-12
-2.140000000e-02	2.321397023e-01	-1.615913070e-04	6.864257786e-12
-2.150000000e-02	2.321396956e-01	-1.592351581e-04	7.649920721e-12
-2.160000000e-02	2.321396889e-01	-1.568790096e-04	2.026486604e-11
-2.170000000e-02	2.321396821e-01	-1.545228615e-04	1.332983070e-11
-2.180000000e-02	2.321396753e-01	-1.521667138e-04	7.239974529e-12
-2.190000000e-02	2.321396683e-01	-1.498105665e-04	1.110851724e-11
-2.200000000e-02	2.321396613e-01	-1.474544197e-04	8.233467334e-12
-2.210000000e-02	2.321396542e-01	-1.450982733e-04	1.428515864e-11
-2.220000000e-02	2.321396471e-01	-1.427421274e-04	1.795664117e-11
-2.230000000e-02	2.321396399e-01	-1.403859819e-04	7.175966312e-12
-2.240000000e-02	2.321396326e-01	-1.380298368e-04	1.229718778e-11
-2.250000000e-02	2.321396252e-01	-1.356736922e-04	1.305253131e-11
-2.260000000e-02	2.321396178e-01	-1.333175481e-04	1.918417197e-11
-2.270000000e-02	2.321396103e-01	-1.309614044e-04	1.213372682e-11
-2.280000000e-02	2.321396027e-01	-1.286052611e-04	1.130228535e-11
-2.290000000e-02	2.321395950e-01	-1.262491183e-04	1.387243607e-11
-2.300000000e-02	2.321395873e-01	-1.238929760e-04	2.106830691e-11
-2.310000000e-02	2.321395795e-01	-1.215368342e-04	1.641895781e-11
-2.320000000e-02	2.321395717e-01	-1.191806928e-04	5.599601328e-12
-2.330000000e-02	2.321395637e-01	-1.168245519e-04	1.788059524e-11
-2.340000000e-02	2.321395557e-01	-1.144684115e-04	1.503222707e-11
-2.350000000e-02	2.321395476e-01	-1.121122716e-04	1.672074620e-11
-2.360000000e-02	2.321395395e-01	-1.097561322e-04	7.963618552e-11
-2.370000000e-02	2.321395313e-01	-1.073999932e-04	7.955249372e-12
-2.380000000e-02	2.321395230e-01	-1.050438548e-04	6.538547590e-12
-2.390000000e-02	2.321395146e-01	-1.026877168e-04	1.290866917e-11
-2.400000000e-02	2.321395062e-01	-1.003315794e-04	3.400941956e-11
-2.410000000e-02	2.321394977e-01	-9.797544246e-05	1.791257663e-11
-2.420000000e-02	2.321394891e-01	-9.561930604e-05	6.850725129e-12
-2.430000000e-02	2.321394804e-01	-9.326317013e-05	1.244414413e-11
-2.440000000e-02	2.321394717e-01	-9.090703473e-05	1.346503380e-11
-2.450000000e-02	2.321394629e-01	-8.855089986e-05	1.003701173e-11
-2.460000000e-02	2.321394540e-01	-8.619476552e-05	1.018403789e-11
-2.470000000e-02	2.321394451e-01	-8.383863170e-05	3.335878422e-11
-2.480000000e-02	2.321394361e-01	-8.148249842e-05	1.079633678e-11
-2.490000000e-02	2.321394270e-01	-7.912636567e-05	1.201481780e-11
-2.500000000e-02	2.321394178e-01	-7.677023346e-05	8.624585985e-12
-2.510000000e-02	2.321394086e-01	-7.441410180e-05	8.919642755e-12
-2.520000000e-02	2.321393993e-01	-7.205797068e-05	2.138032775e-11
-2.530000000e-02	2.321393899e-01	-6.970184011e-05	6.191026395e-12
-2.540000000e-02	2.321393805e-01	-6.734571010e-05	4.931916687e-11
-2.550000000e-02	2.321393710e-01	-6.498958065e-05	5.368856982e-12
-2.560000000e-02	2.321393614e-01	-6.263345175e-05	6.306277130e-12
-2.570000000e-02	2.321393517e-01	-6.027732342e-05	1.014562756e-11
-2.580000000e-02	2.321393420e-01	-5.792119567e-05	1.568295257e-11
-2.590000000e-02	2.321393322e-01	-5.556506848e-05	1.061468733e-11
-2.600000000e-02	2.321393223e-01	-5.320894187e-05	9.981096540e-12
-2.610000000e-02	2.321393124e-01	-5.085281584e-05	9.116609289e-12
-2.620000000e-02	2.321393024e-01	-4.849669039e-05	2.606480871e-11
-2.630000000e-02	2.321392923e-01	-4.614056553e-05	1.180190059e-11
-2.640000000e-02	2.321392821e-01	-4.378444126e-05	2.483599947e-11
-2.650000000e-02	2.321392719e-01	-4.142831758e-05	1.381164411e-11
-2.660000000e-02	2.321392616e-01	-3.907219450e-05	1.026905352e-11
-2.670000000e-02	2.321392512e-01	-3.671607203e-05	7.007479742e-12
-2.680000000e-02	2.321392408e-01	-3.435995015e-05	1.023700809e-11
-2.690000000e-02	2.321392303e-01	-3.200382889e-05	1.097618569e-11
-2.700000000e-02	2.321392197e-01	-2.964770824e-05	1.332416099e-11
-2.710000000e-02	2.321392090e-01	-2.729158821e-05	1.069931768e-11
-2.720000000e-02	2.321391983e-01	-2.493546879e-05	5.634625310e-11
-2.730000000e-02	2.321391875e-01	-2.257935000e-05	2.279067038e-11
-2.740000000e-02	2.321391766e-01	-2.022323184e-05	2.124447744e-11
-2.750000000e-02	2.321391656e-01	-1.786711430e-05	2.545822598e-11
-2.760000000e-02	2.321391546e-01	-1.551099740e-05	6.414447857e-12
-2.770000000e-02	2.321391435e-01	-1.315488114e-05	1.710777916e-11
-2.780000000e-02	2.321391324e-01	-1.079876552e-05	1.285023585e-11
-2.790000000e-02	2.321391211e-01	-8.442650543e-06	3.392577781e-11
-2.800000000e-02	2.321391098e-01	-6.086536218e-06	1.605919574e-11
-2.810000000e-02	2.321390985e-01	-3.730422544e-06	2.246111820e-11
-2.820000000e-02	2.321390870e-01	-1.374309526e-06	8.800451695e-12
-2.830000000e-02	2.321390755e-01	9.818028311e-07	1.554009122e-11
-2.840000000e-02	2.321390639e-01	3.337914526e-06	1.134370798e-11
-2.850000000e-02	2.321390522e-01	5.694025554e-06	1.236651917e-11
-2.860000000e-02	2.321390405e-01	8.050135912e-06	1.100061075e-11
-2.870000000e-02	2.321390287e-01	1.040624559e-05	1.067641053e-11
-2.880000000e-02	2.321390168e-01	1.276235460e-05	1.079750290e-11
-2.890000000e-02	2.321390048e-01	1.511846292e-05	9.211928952e-12
-2.900000000e-02	2.321389928e-01	1.747457056e-05	1.164915591e-11
-2.910000000e-02	2.321389807e-01	1.983067751e-05	1.712276617e-11
-2.920000000e-02	2.321389686e-01	2.218678377e-05	1.084113647e-11
-2.930000000e-02	2.321389563e-01	2.454288933e-05	1.090546196e-11
-2.940000000e-02	2.321389440e-01	2.689899419e-05	3.820430984e-11
-2.950000000e-02	2.321389316e-01	2.925509836e-05	1.984532814e-10
-2.960000000e-02	2.321389192e-01	3.161120181e-05	5.134659854e-12
-2.970000000e-02	2.321389066e-01	3.396730455e-05	6.039896601e-12
-2.980000000e-02	2.321388940e-01	3.632340658e-05	1.832352496e-11
-2.990000000e-02	2.321388814e-01	3.867950788e-05	1.940886796e-11
-3.000000000e-02	2.321388686e-01	4.103560847e-05	7.877801481e-12
