# Im(epsi1)     Re(omega/c)      Im(omega/c)      Eq(det).Opt det CON kz, R=0.5 \mum, mu_c=0.3, Re(epsi1)=3.90solve_det_conkz_vs_kz.py
0.000000000e+00	2.321440438e-01	-6.658276618e-04	9.450663978e-12
-1.000000000e-04	2.321440525e-01	-6.634714745e-04	1.986339039e-11
-2.000000000e-04	2.321440612e-01	-6.611152869e-04	2.651108206e-11
-3.000000000e-04	2.321440697e-01	-6.587590989e-04	1.656459137e-11
-4.000000000e-04	2.321440782e-01	-6.564029106e-04	1.737187995e-11
-5.000000000e-04	2.321440866e-01	-6.540467219e-04	1.272725721e-11
-6.000000000e-04	2.321440950e-01	-6.516905328e-04	3.031368518e-11
-7.000000000e-04	2.321441032e-01	-6.493343434e-04	5.246683098e-11
-8.000000000e-04	2.321441114e-01	-6.469781537e-04	7.298837245e-12
-9.000000000e-04	2.321441196e-01	-6.446219636e-04	1.945573940e-11
-1.000000000e-03	2.321441276e-01	-6.422657732e-04	9.054170962e-12
-1.100000000e-03	2.321441356e-01	-6.399095825e-04	5.897036373e-12
-1.200000000e-03	2.321441435e-01	-6.375533915e-04	2.872915266e-11
-1.300000000e-03	2.321441513e-01	-6.351972001e-04	1.469701847e-11
-1.400000000e-03	2.321441591e-01	-6.328410084e-04	8.083319636e-11
-1.500000000e-03	2.321441668e-01	-6.304848164e-04	5.126098166e-12
-1.600000000e-03	2.321441744e-01	-6.281286241e-04	3.804037573e-11
-1.700000000e-03	2.321441820e-01	-6.257724314e-04	9.981179972e-12
-1.800000000e-03	2.321441895e-01	-6.234162385e-04	7.801028235e-12
-1.900000000e-03	2.321441969e-01	-6.210600453e-04	1.372034400e-11
-2.000000000e-03	2.321442042e-01	-6.187038518e-04	1.618069492e-11
-2.100000000e-03	2.321442115e-01	-6.163476579e-04	1.498395274e-11
-2.200000000e-03	2.321442187e-01	-6.139914638e-04	2.224535261e-11
-2.300000000e-03	2.321442258e-01	-6.116352694e-04	5.157119899e-11
-2.400000000e-03	2.321442328e-01	-6.092790748e-04	9.354118809e-12
-2.500000000e-03	2.321442398e-01	-6.069228798e-04	3.922878019e-11
-2.600000000e-03	2.321442467e-01	-6.045666846e-04	8.371574608e-12
-2.700000000e-03	2.321442536e-01	-6.022104891e-04	1.537502020e-11
-2.800000000e-03	2.321442603e-01	-5.998542933e-04	1.367128396e-11
-2.900000000e-03	2.321442670e-01	-5.974980973e-04	1.206012064e-11
-3.000000000e-03	2.321442736e-01	-5.951419010e-04	1.130817889e-11
-3.100000000e-03	2.321442802e-01	-5.927857045e-04	1.486827069e-11
-3.200000000e-03	2.321442867e-01	-5.904295077e-04	1.588636345e-11
-3.300000000e-03	2.321442931e-01	-5.880733106e-04	2.505800174e-11
-3.400000000e-03	2.321442994e-01	-5.857171133e-04	1.080596720e-11
-3.500000000e-03	2.321443057e-01	-5.833609158e-04	3.395824044e-11
-3.600000000e-03	2.321443119e-01	-5.810047180e-04	1.645425388e-11
-3.700000000e-03	2.321443180e-01	-5.786485200e-04	4.950595653e-12
-3.800000000e-03	2.321443240e-01	-5.762923218e-04	9.816213184e-12
-3.900000000e-03	2.321443300e-01	-5.739361233e-04	1.562385487e-11
-4.000000000e-03	2.321443359e-01	-5.715799246e-04	1.041718389e-11
-4.100000000e-03	2.321443417e-01	-5.692237257e-04	1.111969125e-11
-4.200000000e-03	2.321443475e-01	-5.668675266e-04	4.937928308e-11
-4.300000000e-03	2.321443532e-01	-5.645113272e-04	1.845467242e-11
-4.400000000e-03	2.321443588e-01	-5.621551277e-04	1.079849606e-11
-4.500000000e-03	2.321443643e-01	-5.597989279e-04	2.344998814e-11
-4.600000000e-03	2.321443698e-01	-5.574427280e-04	5.049157709e-11
-4.700000000e-03	2.321443752e-01	-5.550865278e-04	1.411355241e-11
-4.800000000e-03	2.321443805e-01	-5.527303275e-04	6.871481723e-12
-4.900000000e-03	2.321443858e-01	-5.503741269e-04	2.178817744e-11
-5.000000000e-03	2.321443910e-01	-5.480179262e-04	1.944505860e-11
-5.100000000e-03	2.321443961e-01	-5.456617253e-04	7.481510400e-12
-5.200000000e-03	2.321444011e-01	-5.433055242e-04	2.994265351e-11
-5.300000000e-03	2.321444061e-01	-5.409493229e-04	1.297426042e-11
-5.400000000e-03	2.321444110e-01	-5.385931215e-04	9.839266068e-12
-5.500000000e-03	2.321444158e-01	-5.362369199e-04	1.308021506e-11
-5.600000000e-03	2.321444206e-01	-5.338807181e-04	1.094868596e-11
-5.700000000e-03	2.321444253e-01	-5.315245162e-04	9.523878858e-12
-5.800000000e-03	2.321444299e-01	-5.291683141e-04	2.828984947e-11
-5.900000000e-03	2.321444344e-01	-5.268121118e-04	1.321467947e-11
-6.000000000e-03	2.321444389e-01	-5.244559094e-04	6.475111776e-12
-6.100000000e-03	2.321444433e-01	-5.220997069e-04	1.138986788e-11
-6.200000000e-03	2.321444476e-01	-5.197435042e-04	1.094591696e-11
-6.300000000e-03	2.321444519e-01	-5.173873014e-04	1.564037133e-11
-6.400000000e-03	2.321444561e-01	-5.150310984e-04	9.171595982e-12
-6.500000000e-03	2.321444602e-01	-5.126748953e-04	3.207930638e-11
-6.600000000e-03	2.321444642e-01	-5.103186920e-04	1.732714699e-11
-6.700000000e-03	2.321444682e-01	-5.079624887e-04	8.187255052e-12
-6.800000000e-03	2.321444721e-01	-5.056062852e-04	1.402772882e-11
-6.900000000e-03	2.321444759e-01	-5.032500816e-04	2.278363808e-11
-7.000000000e-03	2.321444797e-01	-5.008938779e-04	1.410620366e-11
-7.100000000e-03	2.321444833e-01	-4.985376741e-04	1.460980000e-11
-7.200000000e-03	2.321444869e-01	-4.961814701e-04	3.205905377e-11
-7.300000000e-03	2.321444905e-01	-4.938252661e-04	1.038273426e-11
-7.400000000e-03	2.321444939e-01	-4.914690620e-04	8.003823301e-12
-7.500000000e-03	2.321444973e-01	-4.891128578e-04	2.522804271e-11
-7.600000000e-03	2.321445007e-01	-4.867566534e-04	4.361486014e-11
-7.700000000e-03	2.321445039e-01	-4.844004490e-04	1.976477537e-11
-7.800000000e-03	2.321445071e-01	-4.820442445e-04	9.077456196e-12
-7.900000000e-03	2.321445102e-01	-4.796880399e-04	1.142454496e-11
-8.000000000e-03	2.321445132e-01	-4.773318353e-04	6.913983994e-12
-8.100000000e-03	2.321445162e-01	-4.749756305e-04	1.191455938e-11
-8.200000000e-03	2.321445191e-01	-4.726194257e-04	1.767071713e-11
-8.300000000e-03	2.321445219e-01	-4.702632209e-04	1.573341861e-11
-8.400000000e-03	2.321445246e-01	-4.679070159e-04	7.076135949e-12
-8.500000000e-03	2.321445273e-01	-4.655508109e-04	1.120786152e-11
-8.600000000e-03	2.321445299e-01	-4.631946059e-04	2.486201692e-11
-8.700000000e-03	2.321445325e-01	-4.608384008e-04	4.013446944e-11
-8.800000000e-03	2.321445349e-01	-4.584821956e-04	1.945965765e-11
-8.900000000e-03	2.321445373e-01	-4.561259904e-04	8.188715006e-12
-9.000000000e-03	2.321445396e-01	-4.537697852e-04	6.831300776e-12
-9.100000000e-03	2.321445419e-01	-4.514135799e-04	9.888859044e-12
-9.200000000e-03	2.321445441e-01	-4.490573746e-04	1.587400677e-11
-9.300000000e-03	2.321445462e-01	-4.467011692e-04	2.793880166e-11
-9.400000000e-03	2.321445482e-01	-4.443449639e-04	6.820295934e-12
-9.500000000e-03	2.321445501e-01	-4.419887585e-04	5.670173141e-12
-9.600000000e-03	2.321445520e-01	-4.396325531e-04	7.478362271e-12
-9.700000000e-03	2.321445538e-01	-4.372763476e-04	1.085134455e-11
-9.800000000e-03	2.321445556e-01	-4.349201422e-04	2.158394611e-11
-9.900000000e-03	2.321445573e-01	-4.325639367e-04	9.468939017e-12
-1.000000000e-02	2.321445589e-01	-4.302077313e-04	7.268286557e-12
-1.010000000e-02	2.321445604e-01	-4.278515258e-04	2.093423787e-11
-1.020000000e-02	2.321445619e-01	-4.254953203e-04	1.281550167e-11
-1.030000000e-02	2.321445632e-01	-4.231391149e-04	1.303042243e-11
-1.040000000e-02	2.321445646e-01	-4.207829094e-04	8.839088491e-12
-1.050000000e-02	2.321445658e-01	-4.184267040e-04	1.651222044e-11
-1.060000000e-02	2.321445670e-01	-4.160704986e-04	1.252456069e-11
-1.070000000e-02	2.321445681e-01	-4.137142932e-04	1.979519849e-11
-1.080000000e-02	2.321445691e-01	-4.113580878e-04	1.400000440e-11
-1.090000000e-02	2.321445700e-01	-4.090018825e-04	1.159624680e-11
-1.100000000e-02	2.321445709e-01	-4.066456771e-04	1.283202952e-11
-1.110000000e-02	2.321445717e-01	-4.042894719e-04	2.180317068e-11
-1.120000000e-02	2.321445725e-01	-4.019332666e-04	1.811792757e-11
-1.130000000e-02	2.321445731e-01	-3.995770614e-04	7.950474516e-12
-1.140000000e-02	2.321445737e-01	-3.972208563e-04	1.023813521e-11
-1.150000000e-02	2.321445743e-01	-3.948646511e-04	5.547453632e-12
-1.160000000e-02	2.321445747e-01	-3.925084461e-04	1.454807091e-11
-1.170000000e-02	2.321445751e-01	-3.901522411e-04	6.432166887e-12
-1.180000000e-02	2.321445754e-01	-3.877960361e-04	2.060786035e-11
-1.190000000e-02	2.321445757e-01	-3.854398313e-04	6.556687307e-12
-1.200000000e-02	2.321445758e-01	-3.830836265e-04	3.916243969e-11
-1.210000000e-02	2.321445759e-01	-3.807274217e-04	6.833329968e-12
-1.220000000e-02	2.321445759e-01	-3.783712171e-04	1.110796405e-11
-1.230000000e-02	2.321445759e-01	-3.760150125e-04	1.126735818e-11
-1.240000000e-02	2.321445758e-01	-3.736588080e-04	1.836547679e-11
-1.250000000e-02	2.321445756e-01	-3.713026035e-04	1.663851243e-10
-1.260000000e-02	2.321445753e-01	-3.689463992e-04	9.136652380e-12
-1.270000000e-02	2.321445750e-01	-3.665901950e-04	3.920930225e-11
-1.280000000e-02	2.321445746e-01	-3.642339908e-04	1.386143579e-11
-1.290000000e-02	2.321445741e-01	-3.618777868e-04	1.149798112e-11
-1.300000000e-02	2.321445735e-01	-3.595215828e-04	8.612485695e-12
-1.310000000e-02	2.321445729e-01	-3.571653790e-04	9.432385575e-12
-1.320000000e-02	2.321445722e-01	-3.548091753e-04	8.434542723e-12
-1.330000000e-02	2.321445715e-01	-3.524529717e-04	6.815957938e-11
-1.340000000e-02	2.321445706e-01	-3.500967682e-04	1.938384075e-11
-1.350000000e-02	2.321445697e-01	-3.477405648e-04	2.436732193e-11
-1.360000000e-02	2.321445687e-01	-3.453843616e-04	9.434984204e-12
-1.370000000e-02	2.321445677e-01	-3.430281585e-04	1.471075831e-11
-1.380000000e-02	2.321445666e-01	-3.406719555e-04	8.811685822e-12
-1.390000000e-02	2.321445654e-01	-3.383157527e-04	4.106857614e-11
-1.400000000e-02	2.321445641e-01	-3.359595499e-04	7.203263167e-12
-1.410000000e-02	2.321445628e-01	-3.336033474e-04	1.271287533e-11
-1.420000000e-02	2.321445613e-01	-3.312471450e-04	1.176018281e-11
-1.430000000e-02	2.321445599e-01	-3.288909427e-04	1.675038036e-11
-1.440000000e-02	2.321445583e-01	-3.265347406e-04	5.771425681e-12
-1.450000000e-02	2.321445567e-01	-3.241785387e-04	1.160482540e-11
-1.460000000e-02	2.321445550e-01	-3.218223369e-04	1.516694822e-11
-1.470000000e-02	2.321445532e-01	-3.194661352e-04	7.005113439e-12
-1.480000000e-02	2.321445514e-01	-3.171099338e-04	1.120563002e-11
-1.490000000e-02	2.321445495e-01	-3.147537325e-04	1.250692179e-11
-1.500000000e-02	2.321445475e-01	-3.123975314e-04	2.176426487e-11
-1.510000000e-02	2.321445454e-01	-3.100413305e-04	6.773827942e-12
-1.520000000e-02	2.321445433e-01	-3.076851297e-04	2.910210874e-11
-1.530000000e-02	2.321445411e-01	-3.053289292e-04	2.411135396e-11
-1.540000000e-02	2.321445388e-01	-3.029727288e-04	2.292690716e-11
-1.550000000e-02	2.321445365e-01	-3.006165286e-04	1.027322539e-11
-1.560000000e-02	2.321445341e-01	-2.982603287e-04	9.781706258e-12
-1.570000000e-02	2.321445316e-01	-2.959041289e-04	3.002236238e-11
-1.580000000e-02	2.321445290e-01	-2.935479293e-04	8.545076651e-11
-1.590000000e-02	2.321445264e-01	-2.911917300e-04	1.820369632e-11
-1.600000000e-02	2.321445237e-01	-2.888355308e-04	1.831499544e-11
-1.610000000e-02	2.321445209e-01	-2.864793319e-04	1.401653973e-11
-1.620000000e-02	2.321445181e-01	-2.841231332e-04	1.410806484e-11
-1.630000000e-02	2.321445151e-01	-2.817669347e-04	1.122864649e-11
-1.640000000e-02	2.321445122e-01	-2.794107364e-04	2.380177684e-11
-1.650000000e-02	2.321445091e-01	-2.770545384e-04	9.741609509e-12
-1.660000000e-02	2.321445060e-01	-2.746983406e-04	2.158912945e-11
-1.670000000e-02	2.321445028e-01	-2.723421431e-04	3.571804633e-11
-1.680000000e-02	2.321444995e-01	-2.699859457e-04	1.454121584e-11
-1.690000000e-02	2.321444961e-01	-2.676297487e-04	1.313423787e-11
-1.700000000e-02	2.321444927e-01	-2.652735519e-04	8.884731397e-12
-1.710000000e-02	2.321444892e-01	-2.629173553e-04	1.059044548e-11
-1.720000000e-02	2.321444857e-01	-2.605611590e-04	1.007146905e-11
-1.730000000e-02	2.321444820e-01	-2.582049629e-04	1.954973807e-11
-1.740000000e-02	2.321444783e-01	-2.558487671e-04	1.906622299e-11
-1.750000000e-02	2.321444745e-01	-2.534925716e-04	1.046401031e-11
-1.760000000e-02	2.321444707e-01	-2.511363764e-04	7.407956229e-12
-1.770000000e-02	2.321444668e-01	-2.487801814e-04	1.149219546e-11
-1.780000000e-02	2.321444628e-01	-2.464239867e-04	5.780066371e-12
-1.790000000e-02	2.321444587e-01	-2.440677923e-04	1.141554941e-11
-1.800000000e-02	2.321444546e-01	-2.417115982e-04	8.067913831e-12
-1.810000000e-02	2.321444504e-01	-2.393554043e-04	6.867412681e-12
-1.820000000e-02	2.321444461e-01	-2.369992108e-04	4.788342915e-11
-1.830000000e-02	2.321444417e-01	-2.346430175e-04	1.644393917e-11
-1.840000000e-02	2.321444373e-01	-2.322868246e-04	2.149466365e-11
-1.850000000e-02	2.321444328e-01	-2.299306319e-04	9.940073913e-12
-1.860000000e-02	2.321444283e-01	-2.275744396e-04	9.959733640e-12
-1.870000000e-02	2.321444236e-01	-2.252182475e-04	1.818420700e-11
-1.880000000e-02	2.321444189e-01	-2.228620558e-04	1.075604579e-11
-1.890000000e-02	2.321444141e-01	-2.205058644e-04	7.834890781e-12
-1.900000000e-02	2.321444093e-01	-2.181496733e-04	1.176186183e-11
-1.910000000e-02	2.321444044e-01	-2.157934826e-04	1.637709749e-11
-1.920000000e-02	2.321443994e-01	-2.134372922e-04	7.355957638e-12
-1.930000000e-02	2.321443943e-01	-2.110811021e-04	1.502159323e-11
-1.940000000e-02	2.321443892e-01	-2.087249123e-04	4.321879684e-11
-1.950000000e-02	2.321443839e-01	-2.063687229e-04	7.681336461e-12
-1.960000000e-02	2.321443787e-01	-2.040125338e-04	1.491645354e-11
-1.970000000e-02	2.321443733e-01	-2.016563451e-04	1.416906054e-11
-1.980000000e-02	2.321443679e-01	-1.993001567e-04	5.914404449e-12
-1.990000000e-02	2.321443624e-01	-1.969439687e-04	9.109268604e-12
-2.000000000e-02	2.321443568e-01	-1.945877810e-04	4.919777891e-10
-2.010000000e-02	2.321443512e-01	-1.922315937e-04	2.092368360e-11
-2.020000000e-02	2.321443455e-01	-1.898754068e-04	1.960628109e-11
-2.030000000e-02	2.321443397e-01	-1.875192202e-04	1.939816463e-11
-2.040000000e-02	2.321443338e-01	-1.851630340e-04	9.479818708e-12
-2.050000000e-02	2.321443279e-01	-1.828068482e-04	1.141392229e-11
-2.060000000e-02	2.321443219e-01	-1.804506628e-04	1.527052487e-11
-2.070000000e-02	2.321443158e-01	-1.780944777e-04	1.120354312e-11
-2.080000000e-02	2.321443097e-01	-1.757382930e-04	6.036830468e-12
-2.090000000e-02	2.321443035e-01	-1.733821088e-04	8.209708007e-12
-2.100000000e-02	2.321442972e-01	-1.710259249e-04	8.422420918e-12
-2.110000000e-02	2.321442908e-01	-1.686697414e-04	8.871176054e-12
-2.120000000e-02	2.321442844e-01	-1.663135583e-04	7.525620216e-12
-2.130000000e-02	2.321442779e-01	-1.639573756e-04	1.259064509e-11
-2.140000000e-02	2.321442713e-01	-1.616011934e-04	1.713254624e-11
-2.150000000e-02	2.321442647e-01	-1.592450115e-04	8.063174050e-12
-2.160000000e-02	2.321442579e-01	-1.568888301e-04	5.761509135e-11
-2.170000000e-02	2.321442511e-01	-1.545326491e-04	5.070094003e-11
-2.180000000e-02	2.321442443e-01	-1.521764685e-04	6.652183927e-12
-2.190000000e-02	2.321442374e-01	-1.498202883e-04	1.145723877e-11
-2.200000000e-02	2.321442303e-01	-1.474641085e-04	5.894671657e-12
-2.210000000e-02	2.321442233e-01	-1.451079292e-04	9.875863750e-12
-2.220000000e-02	2.321442161e-01	-1.427517504e-04	1.376021832e-11
-2.230000000e-02	2.321442089e-01	-1.403955719e-04	1.114033228e-11
-2.240000000e-02	2.321442016e-01	-1.380393940e-04	9.506766664e-12
-2.250000000e-02	2.321441943e-01	-1.356832164e-04	8.647232879e-12
-2.260000000e-02	2.321441868e-01	-1.333270393e-04	1.599670065e-11
-2.270000000e-02	2.321441793e-01	-1.309708627e-04	9.088825701e-12
-2.280000000e-02	2.321441717e-01	-1.286146866e-04	8.822945817e-12
-2.290000000e-02	2.321441641e-01	-1.262585109e-04	8.375598080e-12
-2.300000000e-02	2.321441564e-01	-1.239023356e-04	2.331294481e-11
-2.310000000e-02	2.321441486e-01	-1.215461609e-04	3.259125048e-11
-2.320000000e-02	2.321441407e-01	-1.191899866e-04	1.567311213e-11
-2.330000000e-02	2.321441328e-01	-1.168338128e-04	1.210856719e-11
-2.340000000e-02	2.321441248e-01	-1.144776394e-04	3.139422491e-11
-2.350000000e-02	2.321441167e-01	-1.121214666e-04	1.659459267e-11
-2.360000000e-02	2.321441085e-01	-1.097652942e-04	1.254405330e-11
-2.370000000e-02	2.321441003e-01	-1.074091224e-04	8.410334123e-12
-2.380000000e-02	2.321440920e-01	-1.050529510e-04	3.443057853e-11
-2.390000000e-02	2.321440836e-01	-1.026967801e-04	1.382462140e-11
-2.400000000e-02	2.321440752e-01	-1.003406098e-04	1.537182067e-11
-2.410000000e-02	2.321440667e-01	-9.798443990e-05	4.896464525e-12
-2.420000000e-02	2.321440581e-01	-9.562827055e-05	8.730762146e-12
-2.430000000e-02	2.321440495e-01	-9.327210172e-05	2.110201707e-11
-2.440000000e-02	2.321440407e-01	-9.091593340e-05	2.281807003e-11
-2.450000000e-02	2.321440319e-01	-8.855976561e-05	9.064660928e-12
-2.460000000e-02	2.321440231e-01	-8.620359834e-05	3.365712271e-12
-2.470000000e-02	2.321440141e-01	-8.384743160e-05	7.953659391e-12
-2.480000000e-02	2.321440051e-01	-8.149126540e-05	6.570161408e-12
-2.490000000e-02	2.321439960e-01	-7.913509973e-05	1.077007184e-11
-2.500000000e-02	2.321439869e-01	-7.677893460e-05	4.862102486e-12
-2.510000000e-02	2.321439777e-01	-7.442277001e-05	2.826817343e-11
-2.520000000e-02	2.321439684e-01	-7.206660597e-05	1.048807457e-11
-2.530000000e-02	2.321439590e-01	-6.971044248e-05	1.001511052e-11
-2.540000000e-02	2.321439495e-01	-6.735427954e-05	1.862463822e-11
-2.550000000e-02	2.321439400e-01	-6.499811716e-05	1.725262838e-11
-2.560000000e-02	2.321439304e-01	-6.264195535e-05	8.065108112e-12
-2.570000000e-02	2.321439208e-01	-6.028579409e-05	6.084093838e-12
-2.580000000e-02	2.321439111e-01	-5.792963341e-05	5.706999228e-12
-2.590000000e-02	2.321439013e-01	-5.557347330e-05	1.116969590e-11
-2.600000000e-02	2.321438914e-01	-5.321731377e-05	1.406752130e-11
-2.610000000e-02	2.321438814e-01	-5.086115481e-05	1.672414594e-11
-2.620000000e-02	2.321438714e-01	-4.850499644e-05	1.173629498e-11
-2.630000000e-02	2.321438613e-01	-4.614883866e-05	2.146078250e-11
-2.640000000e-02	2.321438512e-01	-4.379268146e-05	1.038546934e-11
-2.650000000e-02	2.321438409e-01	-4.143652487e-05	1.073134350e-11
-2.660000000e-02	2.321438306e-01	-3.908036886e-05	1.769782350e-11
-2.670000000e-02	2.321438203e-01	-3.672421346e-05	1.512438793e-11
-2.680000000e-02	2.321438098e-01	-3.436805867e-05	1.721842136e-11
-2.690000000e-02	2.321437993e-01	-3.201190448e-05	1.856713085e-11
-2.700000000e-02	2.321437887e-01	-2.965575091e-05	1.164672520e-11
-2.710000000e-02	2.321437781e-01	-2.729959795e-05	1.151762656e-11
-2.720000000e-02	2.321437673e-01	-2.494344561e-05	4.481195613e-11
-2.730000000e-02	2.321437565e-01	-2.258729390e-05	9.852605228e-12
-2.740000000e-02	2.321437456e-01	-2.023114281e-05	8.580240227e-12
-2.750000000e-02	2.321437347e-01	-1.787499235e-05	2.662130140e-11
-2.760000000e-02	2.321437237e-01	-1.551884253e-05	1.199803713e-11
-2.770000000e-02	2.321437126e-01	-1.316269334e-05	9.856216158e-12
-2.780000000e-02	2.321437014e-01	-1.080654480e-05	4.432913547e-11
-2.790000000e-02	2.321436902e-01	-8.450396903e-06	8.696711596e-12
-2.800000000e-02	2.321436789e-01	-6.094249653e-06	1.697732961e-11
-2.810000000e-02	2.321436675e-01	-3.738103055e-06	1.774964402e-11
-2.820000000e-02	2.321436560e-01	-1.381957113e-06	1.148582642e-11
-2.830000000e-02	2.321436445e-01	9.741881698e-07	2.069686590e-11
-2.840000000e-02	2.321436329e-01	3.330332787e-06	2.386693230e-11
-2.850000000e-02	2.321436213e-01	5.686476739e-06	1.631934272e-11
-2.860000000e-02	2.321436095e-01	8.042620020e-06	9.342279486e-12
-2.870000000e-02	2.321435977e-01	1.039876261e-05	1.995817322e-10
-2.880000000e-02	2.321435858e-01	1.275490455e-05	3.419803944e-11
-2.890000000e-02	2.321435739e-01	1.511104580e-05	4.018355652e-11
-2.900000000e-02	2.321435619e-01	1.746718636e-05	1.102093692e-11
-2.910000000e-02	2.321435498e-01	1.982332624e-05	6.611947372e-12
-2.920000000e-02	2.321435376e-01	2.217946542e-05	1.691585679e-11
-2.930000000e-02	2.321435254e-01	2.453560390e-05	2.663184551e-11
-2.940000000e-02	2.321435131e-01	2.689174169e-05	1.667931442e-11
-2.950000000e-02	2.321435007e-01	2.924787877e-05	2.088018910e-11
-2.960000000e-02	2.321434882e-01	3.160401515e-05	1.366659864e-11
-2.970000000e-02	2.321434757e-01	3.396015081e-05	4.619444239e-11
-2.980000000e-02	2.321434631e-01	3.631628576e-05	9.147487090e-12
-2.990000000e-02	2.321434504e-01	3.867242000e-05	7.866822961e-12
-3.000000000e-02	2.321434377e-01	4.102855351e-05	1.871766530e-11
