# Im(epsi1)     Re(omega/c)      Im(omega/c)      Eq(det).Opt det CON kz, R=0.5 \mum, mu_c=0.3, Re(epsi1)=3.90solve_det_conkz_vs_kz.py
0.000000000e+00	2.321357171e-01	-6.657968038e-04	1.504787925e-11
-1.000000000e-04	2.321357258e-01	-6.634406765e-04	2.647270285e-11
-2.000000000e-04	2.321357345e-01	-6.610845489e-04	1.233888573e-11
-3.000000000e-04	2.321357430e-01	-6.587284209e-04	9.777852744e-12
-4.000000000e-04	2.321357515e-01	-6.563722925e-04	1.328193869e-11
-5.000000000e-04	2.321357599e-01	-6.540161638e-04	5.385552538e-11
-6.000000000e-04	2.321357683e-01	-6.516600348e-04	1.478035196e-11
-7.000000000e-04	2.321357765e-01	-6.493039054e-04	6.620174183e-12
-8.000000000e-04	2.321357847e-01	-6.469477756e-04	1.313047875e-11
-9.000000000e-04	2.321357929e-01	-6.445916456e-04	3.977482616e-11
-1.000000000e-03	2.321358009e-01	-6.422355152e-04	1.726783815e-11
-1.100000000e-03	2.321358089e-01	-6.398793844e-04	2.427458014e-11
-1.200000000e-03	2.321358168e-01	-6.375232534e-04	9.015586867e-12
-1.300000000e-03	2.321358246e-01	-6.351671220e-04	8.187264600e-12
-1.400000000e-03	2.321358324e-01	-6.328109903e-04	1.789773670e-11
-1.500000000e-03	2.321358401e-01	-6.304548583e-04	8.890712305e-12
-1.600000000e-03	2.321358477e-01	-6.280987260e-04	3.707554635e-11
-1.700000000e-03	2.321358553e-01	-6.257425933e-04	1.283732406e-11
-1.800000000e-03	2.321358628e-01	-6.233864604e-04	1.968290465e-11
-1.900000000e-03	2.321358702e-01	-6.210303272e-04	7.771144822e-12
-2.000000000e-03	2.321358775e-01	-6.186741936e-04	6.437103633e-12
-2.100000000e-03	2.321358848e-01	-6.163180598e-04	2.334725539e-11
-2.200000000e-03	2.321358920e-01	-6.139619257e-04	1.431541134e-11
-2.300000000e-03	2.321358991e-01	-6.116057913e-04	1.130172174e-11
-2.400000000e-03	2.321359061e-01	-6.092496566e-04	6.191350458e-11
-2.500000000e-03	2.321359131e-01	-6.068935216e-04	1.210854464e-11
-2.600000000e-03	2.321359200e-01	-6.045373864e-04	7.705866467e-11
-2.700000000e-03	2.321359269e-01	-6.021812509e-04	2.466248653e-11
-2.800000000e-03	2.321359336e-01	-5.998251151e-04	1.279297743e-11
-2.900000000e-03	2.321359403e-01	-5.974689791e-04	1.284061641e-11
-3.000000000e-03	2.321359469e-01	-5.951128428e-04	8.538220901e-12
-3.100000000e-03	2.321359535e-01	-5.927567063e-04	4.109115703e-12
-3.200000000e-03	2.321359600e-01	-5.904005694e-04	2.105830530e-11
-3.300000000e-03	2.321359664e-01	-5.880444324e-04	1.212465615e-11
-3.400000000e-03	2.321359727e-01	-5.856882951e-04	8.042149470e-12
-3.500000000e-03	2.321359790e-01	-5.833321576e-04	2.599285101e-11
-3.600000000e-03	2.321359851e-01	-5.809760198e-04	8.943129313e-12
-3.700000000e-03	2.321359913e-01	-5.786198818e-04	2.482177122e-11
-3.800000000e-03	2.321359973e-01	-5.762637435e-04	1.133842332e-11
-3.900000000e-03	2.321360033e-01	-5.739076050e-04	2.344500120e-11
-4.000000000e-03	2.321360092e-01	-5.715514663e-04	4.628425368e-11
-4.100000000e-03	2.321360150e-01	-5.691953274e-04	8.759107072e-12
-4.200000000e-03	2.321360208e-01	-5.668391883e-04	1.078487653e-11
-4.300000000e-03	2.321360265e-01	-5.644830489e-04	1.834329014e-11
-4.400000000e-03	2.321360321e-01	-5.621269094e-04	7.756284266e-12
-4.500000000e-03	2.321360376e-01	-5.597707696e-04	8.047617968e-12
-4.600000000e-03	2.321360431e-01	-5.574146297e-04	5.400355710e-11
-4.700000000e-03	2.321360485e-01	-5.550584895e-04	1.010917335e-11
-4.800000000e-03	2.321360538e-01	-5.527023492e-04	1.568530859e-11
-4.900000000e-03	2.321360591e-01	-5.503462086e-04	1.087561830e-11
-5.000000000e-03	2.321360643e-01	-5.479900679e-04	7.088183463e-11
-5.100000000e-03	2.321360694e-01	-5.456339270e-04	5.291726756e-12
-5.200000000e-03	2.321360744e-01	-5.432777859e-04	1.935666733e-11
-5.300000000e-03	2.321360794e-01	-5.409216446e-04	1.145672935e-11
-5.400000000e-03	2.321360843e-01	-5.385655031e-04	1.097508830e-11
-5.500000000e-03	2.321360891e-01	-5.362093615e-04	1.715063201e-11
-5.600000000e-03	2.321360939e-01	-5.338532197e-04	6.268580665e-12
-5.700000000e-03	2.321360986e-01	-5.314970778e-04	1.065732635e-11
-5.800000000e-03	2.321361032e-01	-5.291409357e-04	8.726369005e-12
-5.900000000e-03	2.321361077e-01	-5.267847934e-04	9.169707773e-12
-6.000000000e-03	2.321361122e-01	-5.244286510e-04	1.228673140e-11
-6.100000000e-03	2.321361166e-01	-5.220725085e-04	1.064915834e-10
-6.200000000e-03	2.321361209e-01	-5.197163658e-04	9.984126341e-12
-6.300000000e-03	2.321361252e-01	-5.173602229e-04	2.048232007e-11
-6.400000000e-03	2.321361293e-01	-5.150040800e-04	1.387968616e-11
-6.500000000e-03	2.321361334e-01	-5.126479369e-04	1.167984917e-11
-6.600000000e-03	2.321361375e-01	-5.102917936e-04	1.377002594e-11
-6.700000000e-03	2.321361414e-01	-5.079356503e-04	9.285034204e-12
-6.800000000e-03	2.321361453e-01	-5.055795068e-04	5.614756494e-12
-6.900000000e-03	2.321361492e-01	-5.032233632e-04	1.132439764e-11
-7.000000000e-03	2.321361529e-01	-5.008672195e-04	8.846172864e-12
-7.100000000e-03	2.321361566e-01	-4.985110756e-04	2.111932595e-11
-7.200000000e-03	2.321361602e-01	-4.961549317e-04	9.470858597e-12
-7.300000000e-03	2.321361637e-01	-4.937987877e-04	1.864642258e-11
-7.400000000e-03	2.321361672e-01	-4.914426435e-04	2.003819120e-11
-7.500000000e-03	2.321361706e-01	-4.890864993e-04	1.117062130e-11
-7.600000000e-03	2.321361739e-01	-4.867303549e-04	1.601676187e-11
-7.700000000e-03	2.321361772e-01	-4.843742105e-04	2.299660799e-11
-7.800000000e-03	2.321361803e-01	-4.820180660e-04	7.098718049e-12
-7.900000000e-03	2.321361835e-01	-4.796619214e-04	9.527210848e-11
-8.000000000e-03	2.321361865e-01	-4.773057768e-04	9.105004281e-12
-8.100000000e-03	2.321361895e-01	-4.749496320e-04	9.971612147e-12
-8.200000000e-03	2.321361923e-01	-4.725934872e-04	8.836235244e-12
-8.300000000e-03	2.321361952e-01	-4.702373423e-04	1.830359080e-11
-8.400000000e-03	2.321361979e-01	-4.678811974e-04	1.373543691e-11
-8.500000000e-03	2.321362006e-01	-4.655250524e-04	9.553998211e-12
-8.600000000e-03	2.321362032e-01	-4.631689074e-04	1.169292942e-11
-8.700000000e-03	2.321362057e-01	-4.608127622e-04	3.124211769e-11
-8.800000000e-03	2.321362082e-01	-4.584566171e-04	4.630595912e-11
-8.900000000e-03	2.321362106e-01	-4.561004719e-04	2.038814101e-11
-9.000000000e-03	2.321362129e-01	-4.537443266e-04	1.451681493e-11
-9.100000000e-03	2.321362151e-01	-4.513881813e-04	3.809469982e-11
-9.200000000e-03	2.321362173e-01	-4.490320360e-04	6.314086762e-12
-9.300000000e-03	2.321362194e-01	-4.466758907e-04	2.319635963e-11
-9.400000000e-03	2.321362214e-01	-4.443197453e-04	2.268842434e-11
-9.500000000e-03	2.321362234e-01	-4.419635999e-04	1.301831787e-11
-9.600000000e-03	2.321362253e-01	-4.396074545e-04	1.489647517e-11
-9.700000000e-03	2.321362271e-01	-4.372513090e-04	5.439658982e-12
-9.800000000e-03	2.321362288e-01	-4.348951636e-04	1.560213089e-11
-9.900000000e-03	2.321362305e-01	-4.325390181e-04	2.637993047e-10
-1.000000000e-02	2.321362321e-01	-4.301828727e-04	9.022482461e-12
-1.010000000e-02	2.321362336e-01	-4.278267272e-04	9.352930630e-12
-1.020000000e-02	2.321362351e-01	-4.254705817e-04	4.901994148e-12
-1.030000000e-02	2.321362365e-01	-4.231144363e-04	1.621395191e-11
-1.040000000e-02	2.321362378e-01	-4.207582908e-04	2.847594856e-11
-1.050000000e-02	2.321362390e-01	-4.184021454e-04	1.811351591e-11
-1.060000000e-02	2.321362402e-01	-4.160459999e-04	2.714862934e-11
-1.070000000e-02	2.321362413e-01	-4.136898545e-04	9.802887593e-12
-1.080000000e-02	2.321362423e-01	-4.113337092e-04	1.851150752e-11
-1.090000000e-02	2.321362433e-01	-4.089775638e-04	8.395747027e-12
-1.100000000e-02	2.321362442e-01	-4.066214185e-04	1.392348518e-11
-1.110000000e-02	2.321362450e-01	-4.042652732e-04	2.521396868e-11
-1.120000000e-02	2.321362457e-01	-4.019091279e-04	1.654863744e-11
-1.130000000e-02	2.321362464e-01	-3.995529827e-04	1.065508048e-11
-1.140000000e-02	2.321362470e-01	-3.971968376e-04	9.780068150e-12
-1.150000000e-02	2.321362475e-01	-3.948406925e-04	2.079382545e-11
-1.160000000e-02	2.321362480e-01	-3.924845474e-04	1.265403859e-11
-1.170000000e-02	2.321362483e-01	-3.901284024e-04	1.542946258e-11
-1.180000000e-02	2.321362487e-01	-3.877722574e-04	2.486048762e-11
-1.190000000e-02	2.321362489e-01	-3.854161126e-04	1.492795198e-11
-1.200000000e-02	2.321362491e-01	-3.830599678e-04	9.698070460e-12
-1.210000000e-02	2.321362492e-01	-3.807038230e-04	9.705177516e-12
-1.220000000e-02	2.321362492e-01	-3.783476783e-04	1.892699488e-11
-1.230000000e-02	2.321362491e-01	-3.759915337e-04	6.151325586e-12
-1.240000000e-02	2.321362490e-01	-3.736353892e-04	1.698961907e-11
-1.250000000e-02	2.321362488e-01	-3.712792448e-04	1.275583449e-11
-1.260000000e-02	2.321362486e-01	-3.689231005e-04	1.323060306e-11
-1.270000000e-02	2.321362482e-01	-3.665669562e-04	1.315489488e-11
-1.280000000e-02	2.321362478e-01	-3.642108121e-04	2.846577515e-11
-1.290000000e-02	2.321362473e-01	-3.618546680e-04	9.866895696e-12
-1.300000000e-02	2.321362468e-01	-3.594985241e-04	6.411247677e-12
-1.310000000e-02	2.321362462e-01	-3.571423803e-04	8.739018392e-12
-1.320000000e-02	2.321362455e-01	-3.547862365e-04	7.722096362e-12
-1.330000000e-02	2.321362447e-01	-3.524300929e-04	1.377830135e-11
-1.340000000e-02	2.321362439e-01	-3.500739494e-04	1.206958239e-11
-1.350000000e-02	2.321362429e-01	-3.477178061e-04	1.327011108e-11
-1.360000000e-02	2.321362420e-01	-3.453616628e-04	1.098901073e-11
-1.370000000e-02	2.321362409e-01	-3.430055197e-04	1.692899370e-11
-1.380000000e-02	2.321362398e-01	-3.406493767e-04	8.549584169e-12
-1.390000000e-02	2.321362386e-01	-3.382932339e-04	2.432652793e-11
-1.400000000e-02	2.321362373e-01	-3.359370912e-04	8.322299303e-12
-1.410000000e-02	2.321362360e-01	-3.335809486e-04	1.149265856e-11
-1.420000000e-02	2.321362346e-01	-3.312248062e-04	1.701246900e-11
-1.430000000e-02	2.321362331e-01	-3.288686639e-04	2.722111671e-11
-1.440000000e-02	2.321362315e-01	-3.265125218e-04	1.250246950e-11
-1.450000000e-02	2.321362299e-01	-3.241563798e-04	1.975191009e-11
-1.460000000e-02	2.321362282e-01	-3.218002380e-04	2.783666650e-11
-1.470000000e-02	2.321362264e-01	-3.194440964e-04	2.584079096e-11
-1.480000000e-02	2.321362246e-01	-3.170879550e-04	1.323595431e-11
-1.490000000e-02	2.321362227e-01	-3.147318137e-04	3.828315125e-11
-1.500000000e-02	2.321362207e-01	-3.123756726e-04	1.307714534e-11
-1.510000000e-02	2.321362186e-01	-3.100195316e-04	1.343749887e-11
-1.520000000e-02	2.321362165e-01	-3.076633909e-04	3.789643116e-11
-1.530000000e-02	2.321362143e-01	-3.053072503e-04	1.155555029e-11
-1.540000000e-02	2.321362120e-01	-3.029511099e-04	9.982388339e-12
-1.550000000e-02	2.321362097e-01	-3.005949698e-04	1.669064914e-11
-1.560000000e-02	2.321362073e-01	-2.982388298e-04	2.259226774e-11
-1.570000000e-02	2.321362048e-01	-2.958826900e-04	2.455572986e-11
-1.580000000e-02	2.321362022e-01	-2.935265504e-04	2.546539132e-11
-1.590000000e-02	2.321361996e-01	-2.911704111e-04	1.316983653e-11
-1.600000000e-02	2.321361969e-01	-2.888142719e-04	1.173553052e-11
-1.610000000e-02	2.321361941e-01	-2.864581330e-04	1.100791402e-11
-1.620000000e-02	2.321361913e-01	-2.841019943e-04	9.927663422e-12
-1.630000000e-02	2.321361884e-01	-2.817458558e-04	6.678382376e-12
-1.640000000e-02	2.321361854e-01	-2.793897175e-04	4.792766077e-11
-1.650000000e-02	2.321361823e-01	-2.770335795e-04	3.920316146e-11
-1.660000000e-02	2.321361792e-01	-2.746774417e-04	1.123408769e-11
-1.670000000e-02	2.321361760e-01	-2.723213042e-04	1.078660760e-10
-1.680000000e-02	2.321361727e-01	-2.699651668e-04	2.268744450e-11
-1.690000000e-02	2.321361694e-01	-2.676090298e-04	2.488236402e-11
-1.700000000e-02	2.321361659e-01	-2.652528929e-04	6.754988373e-11
-1.710000000e-02	2.321361624e-01	-2.628967564e-04	1.142106401e-11
-1.720000000e-02	2.321361589e-01	-2.605406201e-04	1.350797790e-11
-1.730000000e-02	2.321361553e-01	-2.581844840e-04	4.282204715e-11
-1.740000000e-02	2.321361515e-01	-2.558283482e-04	1.805952416e-11
-1.750000000e-02	2.321361478e-01	-2.534722127e-04	4.924747814e-12
-1.760000000e-02	2.321361439e-01	-2.511160774e-04	3.436415228e-11
-1.770000000e-02	2.321361400e-01	-2.487599425e-04	1.130172253e-11
-1.780000000e-02	2.321361360e-01	-2.464038077e-04	6.889518294e-12
-1.790000000e-02	2.321361319e-01	-2.440476733e-04	2.595107012e-11
-1.800000000e-02	2.321361278e-01	-2.416915392e-04	6.757756056e-11
-1.810000000e-02	2.321361236e-01	-2.393354053e-04	1.020338669e-11
-1.820000000e-02	2.321361193e-01	-2.369792718e-04	9.373771432e-11
-1.830000000e-02	2.321361150e-01	-2.346231385e-04	2.286303305e-11
-1.840000000e-02	2.321361105e-01	-2.322670056e-04	1.348892602e-11
-1.850000000e-02	2.321361060e-01	-2.299108729e-04	6.473381984e-11
-1.860000000e-02	2.321361015e-01	-2.275547406e-04	1.235000300e-11
-1.870000000e-02	2.321360968e-01	-2.251986085e-04	6.350440591e-11
-1.880000000e-02	2.321360921e-01	-2.228424768e-04	2.589426141e-11
-1.890000000e-02	2.321360873e-01	-2.204863454e-04	1.580719771e-11
-1.900000000e-02	2.321360825e-01	-2.181302143e-04	6.234672388e-11
-1.910000000e-02	2.321360776e-01	-2.157740836e-04	7.821683135e-12
-1.920000000e-02	2.321360726e-01	-2.134179532e-04	7.472528534e-12
-1.930000000e-02	2.321360675e-01	-2.110618231e-04	1.490656866e-11
-1.940000000e-02	2.321360624e-01	-2.087056933e-04	2.129987984e-11
-1.950000000e-02	2.321360572e-01	-2.063495639e-04	2.493643295e-11
-1.960000000e-02	2.321360519e-01	-2.039934348e-04	1.201690798e-11
-1.970000000e-02	2.321360465e-01	-2.016373061e-04	2.147963877e-11
-1.980000000e-02	2.321360411e-01	-1.992811777e-04	2.832482834e-11
-1.990000000e-02	2.321360356e-01	-1.969250497e-04	4.885449847e-11
-2.000000000e-02	2.321360300e-01	-1.945689220e-04	9.519893838e-12
-2.010000000e-02	2.321360244e-01	-1.922127947e-04	1.184345153e-11
-2.020000000e-02	2.321360187e-01	-1.898566678e-04	1.270639678e-11
-2.030000000e-02	2.321360129e-01	-1.875005412e-04	6.089250243e-12
-2.040000000e-02	2.321360070e-01	-1.851444150e-04	7.947012737e-12
-2.050000000e-02	2.321360011e-01	-1.827882892e-04	2.368356239e-11
-2.060000000e-02	2.321359951e-01	-1.804321637e-04	4.232623367e-11
-2.070000000e-02	2.321359890e-01	-1.780760387e-04	1.206818143e-11
-2.080000000e-02	2.321359829e-01	-1.757199140e-04	5.602641397e-12
-2.090000000e-02	2.321359767e-01	-1.733637897e-04	9.300012386e-12
-2.100000000e-02	2.321359704e-01	-1.710076658e-04	3.350147521e-11
-2.110000000e-02	2.321359640e-01	-1.686515423e-04	4.025200613e-11
-2.120000000e-02	2.321359576e-01	-1.662954193e-04	1.348420208e-11
-2.130000000e-02	2.321359511e-01	-1.639392966e-04	1.313541437e-11
-2.140000000e-02	2.321359445e-01	-1.615831743e-04	7.679230801e-11
-2.150000000e-02	2.321359379e-01	-1.592270524e-04	1.132998135e-11
-2.160000000e-02	2.321359311e-01	-1.568709310e-04	1.082472626e-11
-2.170000000e-02	2.321359243e-01	-1.545148100e-04	1.223068557e-11
-2.180000000e-02	2.321359175e-01	-1.521586894e-04	8.243948779e-12
-2.190000000e-02	2.321359106e-01	-1.498025692e-04	8.938749249e-12
-2.200000000e-02	2.321359036e-01	-1.474464494e-04	1.314897700e-11
-2.210000000e-02	2.321358965e-01	-1.450903301e-04	7.795753409e-12
-2.220000000e-02	2.321358893e-01	-1.427342113e-04	4.782469428e-12
-2.230000000e-02	2.321358821e-01	-1.403780928e-04	9.797143294e-12
-2.240000000e-02	2.321358748e-01	-1.380219749e-04	1.582780524e-11
-2.250000000e-02	2.321358675e-01	-1.356658573e-04	7.808618143e-12
-2.260000000e-02	2.321358600e-01	-1.333097402e-04	1.401451094e-11
-2.270000000e-02	2.321358525e-01	-1.309536236e-04	1.041849282e-11
-2.280000000e-02	2.321358449e-01	-1.285975074e-04	1.189831688e-11
-2.290000000e-02	2.321358373e-01	-1.262413917e-04	1.547653615e-11
-2.300000000e-02	2.321358296e-01	-1.238852765e-04	1.752609405e-11
-2.310000000e-02	2.321358218e-01	-1.215291617e-04	1.807103909e-11
-2.320000000e-02	2.321358139e-01	-1.191730474e-04	2.100018094e-11
-2.330000000e-02	2.321358060e-01	-1.168169336e-04	3.197179367e-11
-2.340000000e-02	2.321357980e-01	-1.144608203e-04	1.143985452e-11
-2.350000000e-02	2.321357899e-01	-1.121047074e-04	6.690507315e-12
-2.360000000e-02	2.321357817e-01	-1.097485951e-04	1.146027393e-11
-2.370000000e-02	2.321357735e-01	-1.073924832e-04	1.142399957e-11
-2.380000000e-02	2.321357652e-01	-1.050363719e-04	1.425215166e-11
-2.390000000e-02	2.321357568e-01	-1.026802610e-04	8.248548559e-12
-2.400000000e-02	2.321357484e-01	-1.003241506e-04	3.022600195e-11
-2.410000000e-02	2.321357399e-01	-9.796804075e-05	2.509380291e-11
-2.420000000e-02	2.321357313e-01	-9.561193140e-05	9.128587302e-12
-2.430000000e-02	2.321357227e-01	-9.325582257e-05	1.171382927e-11
-2.440000000e-02	2.321357139e-01	-9.089971425e-05	9.857350449e-12
-2.450000000e-02	2.321357051e-01	-8.854360646e-05	8.891575301e-12
-2.460000000e-02	2.321356963e-01	-8.618749918e-05	8.425243910e-12
-2.470000000e-02	2.321356873e-01	-8.383139244e-05	1.015394420e-11
-2.480000000e-02	2.321356783e-01	-8.147528623e-05	1.091015735e-11
-2.490000000e-02	2.321356692e-01	-7.911918056e-05	1.372529595e-11
-2.500000000e-02	2.321356601e-01	-7.676307543e-05	2.818651543e-11
-2.510000000e-02	2.321356508e-01	-7.440697084e-05	1.981402761e-11
-2.520000000e-02	2.321356415e-01	-7.205086679e-05	6.916885507e-12
-2.530000000e-02	2.321356322e-01	-6.969476330e-05	1.073652028e-11
-2.540000000e-02	2.321356227e-01	-6.733866036e-05	9.213180964e-12
-2.550000000e-02	2.321356132e-01	-6.498255798e-05	8.826250761e-12
-2.560000000e-02	2.321356036e-01	-6.262645616e-05	4.416004128e-12
-2.570000000e-02	2.321355940e-01	-6.027035491e-05	2.395884019e-11
-2.580000000e-02	2.321355842e-01	-5.791425423e-05	1.213238865e-11
-2.590000000e-02	2.321355744e-01	-5.555815411e-05	9.354006994e-12
-2.600000000e-02	2.321355646e-01	-5.320205458e-05	1.771869743e-11
-2.610000000e-02	2.321355546e-01	-5.084595562e-05	9.734074337e-12
-2.620000000e-02	2.321355446e-01	-4.848985725e-05	2.914885024e-11
-2.630000000e-02	2.321355345e-01	-4.613375946e-05	1.221585842e-11
-2.640000000e-02	2.321355244e-01	-4.377766226e-05	1.042558630e-11
-2.650000000e-02	2.321355141e-01	-4.142156565e-05	1.179924895e-10
-2.660000000e-02	2.321355038e-01	-3.906546966e-05	9.453443906e-12
-2.670000000e-02	2.321354935e-01	-3.670937425e-05	2.181922637e-11
-2.680000000e-02	2.321354830e-01	-3.435327946e-05	1.277895631e-11
-2.690000000e-02	2.321354725e-01	-3.199718527e-05	2.701229311e-11
-2.700000000e-02	2.321354619e-01	-2.964109169e-05	2.257268354e-11
-2.710000000e-02	2.321354512e-01	-2.728499873e-05	1.059905870e-11
-2.720000000e-02	2.321354405e-01	-2.492890639e-05	1.113255144e-11
-2.730000000e-02	2.321354297e-01	-2.257281468e-05	1.178474540e-11
-2.740000000e-02	2.321354188e-01	-2.021672359e-05	2.766266884e-11
-2.750000000e-02	2.321354079e-01	-1.786063313e-05	8.711003623e-12
-2.760000000e-02	2.321353969e-01	-1.550454330e-05	5.094920510e-12
-2.770000000e-02	2.321353858e-01	-1.314845412e-05	1.483165936e-11
-2.780000000e-02	2.321353746e-01	-1.079236557e-05	1.741073909e-11
-2.790000000e-02	2.321353634e-01	-8.436277668e-06	1.872512296e-11
-2.800000000e-02	2.321353521e-01	-6.080190419e-06	4.843745376e-11
-2.810000000e-02	2.321353407e-01	-3.724103814e-06	4.886676637e-11
-2.820000000e-02	2.321353292e-01	-1.368017875e-06	2.092287071e-11
-2.830000000e-02	2.321353177e-01	9.880674102e-07	2.433294917e-11
-2.840000000e-02	2.321353061e-01	3.344152029e-06	5.754520420e-12
-2.850000000e-02	2.321352944e-01	5.700235981e-06	1.624608807e-11
-2.860000000e-02	2.321352827e-01	8.056319266e-06	1.536820458e-11
-2.870000000e-02	2.321352709e-01	1.041240187e-05	2.734431777e-11
-2.880000000e-02	2.321352590e-01	1.276848380e-05	9.859241487e-12
-2.890000000e-02	2.321352471e-01	1.512456506e-05	1.489137627e-11
-2.900000000e-02	2.321352350e-01	1.748064562e-05	1.103240345e-11
-2.910000000e-02	2.321352230e-01	1.983672549e-05	1.012295672e-11
-2.920000000e-02	2.321352108e-01	2.219280468e-05	1.538229431e-11
-2.930000000e-02	2.321351985e-01	2.454888316e-05	1.846901842e-11
-2.940000000e-02	2.321351862e-01	2.690496095e-05	2.087706650e-11
-2.950000000e-02	2.321351739e-01	2.926103804e-05	8.780004227e-12
-2.960000000e-02	2.321351614e-01	3.161711441e-05	7.570985021e-12
-2.970000000e-02	2.321351489e-01	3.397319008e-05	9.675863768e-12
-2.980000000e-02	2.321351363e-01	3.632926503e-05	3.605585886e-11
-2.990000000e-02	2.321351236e-01	3.868533927e-05	1.384706553e-11
-3.000000000e-02	2.321351109e-01	4.104141278e-05	1.605905698e-11
