# Im(epsi1)     Re(omega/c)      Im(omega/c)      Eq(det).Opt det CON kz, R=0.5 \mum, mu_c=0.3, Re(epsi1)=3.90solve_det_conkz_vs_kz.py
0.000000000e+00	2.321537305e-01	-6.658635547e-04	1.192484584e-11
-1.000000000e-04	2.321537392e-01	-6.635072976e-04	3.823518315e-11
-2.000000000e-04	2.321537478e-01	-6.611510402e-04	3.889632146e-11
-3.000000000e-04	2.321537563e-01	-6.587947824e-04	1.295011179e-11
-4.000000000e-04	2.321537648e-01	-6.564385242e-04	8.368690081e-11
-5.000000000e-04	2.321537732e-01	-6.540822657e-04	2.231559589e-11
-6.000000000e-04	2.321537816e-01	-6.517260069e-04	2.430173386e-12
-7.000000000e-04	2.321537899e-01	-6.493697477e-04	9.577790386e-12
-8.000000000e-04	2.321537981e-01	-6.470134882e-04	2.717456823e-11
-9.000000000e-04	2.321538062e-01	-6.446572283e-04	4.105255579e-11
-1.000000000e-03	2.321538142e-01	-6.423009681e-04	1.385970015e-11
-1.100000000e-03	2.321538222e-01	-6.399447075e-04	1.049958603e-11
-1.200000000e-03	2.321538301e-01	-6.375884467e-04	1.024915998e-11
-1.300000000e-03	2.321538380e-01	-6.352321855e-04	1.395583573e-11
-1.400000000e-03	2.321538457e-01	-6.328759240e-04	1.666420053e-11
-1.500000000e-03	2.321538534e-01	-6.305196622e-04	4.983625407e-11
-1.600000000e-03	2.321538611e-01	-6.281634001e-04	1.057923518e-11
-1.700000000e-03	2.321538686e-01	-6.258071376e-04	9.019164973e-12
-1.800000000e-03	2.321538761e-01	-6.234508749e-04	8.685625208e-11
-1.900000000e-03	2.321538835e-01	-6.210946119e-04	9.501869864e-12
-2.000000000e-03	2.321538908e-01	-6.187383485e-04	2.267121815e-11
-2.100000000e-03	2.321538981e-01	-6.163820849e-04	6.674745775e-12
-2.200000000e-03	2.321539053e-01	-6.140258210e-04	1.271160525e-11
-2.300000000e-03	2.321539124e-01	-6.116695568e-04	5.171670265e-12
-2.400000000e-03	2.321539195e-01	-6.093132923e-04	1.825776986e-11
-2.500000000e-03	2.321539265e-01	-6.069570275e-04	5.402637438e-12
-2.600000000e-03	2.321539334e-01	-6.046007625e-04	1.132861734e-11
-2.700000000e-03	2.321539402e-01	-6.022444972e-04	7.642179577e-12
-2.800000000e-03	2.321539470e-01	-5.998882316e-04	1.021036761e-11
-2.900000000e-03	2.321539537e-01	-5.975319658e-04	1.227603141e-11
-3.000000000e-03	2.321539603e-01	-5.951756997e-04	2.006443710e-11
-3.100000000e-03	2.321539668e-01	-5.928194333e-04	7.887150897e-12
-3.200000000e-03	2.321539733e-01	-5.904631667e-04	9.214301126e-12
-3.300000000e-03	2.321539797e-01	-5.881068999e-04	1.386350133e-11
-3.400000000e-03	2.321539860e-01	-5.857506328e-04	1.916300716e-11
-3.500000000e-03	2.321539923e-01	-5.833943654e-04	1.773617410e-11
-3.600000000e-03	2.321539985e-01	-5.810380978e-04	1.349982366e-11
-3.700000000e-03	2.321540046e-01	-5.786818300e-04	2.992525693e-10
-3.800000000e-03	2.321540107e-01	-5.763255620e-04	1.198550349e-11
-3.900000000e-03	2.321540166e-01	-5.739692937e-04	2.091583827e-11
-4.000000000e-03	2.321540225e-01	-5.716130252e-04	3.877740079e-11
-4.100000000e-03	2.321540284e-01	-5.692567565e-04	5.792276048e-11
-4.200000000e-03	2.321540341e-01	-5.669004875e-04	8.697073424e-12
-4.300000000e-03	2.321540398e-01	-5.645442184e-04	2.805612919e-11
-4.400000000e-03	2.321540454e-01	-5.621879490e-04	1.369892794e-11
-4.500000000e-03	2.321540510e-01	-5.598316795e-04	1.882657949e-11
-4.600000000e-03	2.321540565e-01	-5.574754097e-04	1.310533323e-11
-4.700000000e-03	2.321540619e-01	-5.551191398e-04	2.071909934e-11
-4.800000000e-03	2.321540672e-01	-5.527628696e-04	8.968013990e-12
-4.900000000e-03	2.321540724e-01	-5.504065992e-04	1.001649496e-11
-5.000000000e-03	2.321540776e-01	-5.480503287e-04	1.293121822e-11
-5.100000000e-03	2.321540827e-01	-5.456940580e-04	1.448211387e-11
-5.200000000e-03	2.321540878e-01	-5.433377871e-04	1.132927485e-11
-5.300000000e-03	2.321540928e-01	-5.409815160e-04	1.466520512e-11
-5.400000000e-03	2.321540977e-01	-5.386252448e-04	2.419448434e-11
-5.500000000e-03	2.321541025e-01	-5.362689733e-04	1.065401567e-11
-5.600000000e-03	2.321541072e-01	-5.339127018e-04	8.263089292e-12
-5.700000000e-03	2.321541119e-01	-5.315564300e-04	3.692791285e-11
-5.800000000e-03	2.321541165e-01	-5.292001581e-04	1.522786056e-11
-5.900000000e-03	2.321541211e-01	-5.268438860e-04	1.381209660e-11
-6.000000000e-03	2.321541256e-01	-5.244876138e-04	1.561343282e-11
-6.100000000e-03	2.321541300e-01	-5.221313415e-04	1.646146613e-11
-6.200000000e-03	2.321541343e-01	-5.197750690e-04	1.761443796e-11
-6.300000000e-03	2.321541385e-01	-5.174187963e-04	1.523798791e-11
-6.400000000e-03	2.321541427e-01	-5.150625236e-04	1.724347368e-11
-6.500000000e-03	2.321541468e-01	-5.127062506e-04	3.432019830e-11
-6.600000000e-03	2.321541509e-01	-5.103499776e-04	1.390119030e-11
-6.700000000e-03	2.321541548e-01	-5.079937044e-04	3.633925910e-11
-6.800000000e-03	2.321541587e-01	-5.056374311e-04	1.493826195e-11
-6.900000000e-03	2.321541626e-01	-5.032811577e-04	9.314040078e-12
-7.000000000e-03	2.321541663e-01	-5.009248842e-04	2.403499744e-11
-7.100000000e-03	2.321541700e-01	-4.985686106e-04	1.873868386e-11
-7.200000000e-03	2.321541736e-01	-4.962123369e-04	6.889170417e-12
-7.300000000e-03	2.321541771e-01	-4.938560630e-04	9.079710285e-12
-7.400000000e-03	2.321541806e-01	-4.914997891e-04	6.147011634e-12
-7.500000000e-03	2.321541840e-01	-4.891435150e-04	1.066195335e-11
-7.600000000e-03	2.321541873e-01	-4.867872409e-04	1.596879004e-11
-7.700000000e-03	2.321541906e-01	-4.844309667e-04	1.061117573e-11
-7.800000000e-03	2.321541937e-01	-4.820746924e-04	6.186536149e-12
-7.900000000e-03	2.321541969e-01	-4.797184180e-04	2.342509067e-11
-8.000000000e-03	2.321541999e-01	-4.773621435e-04	1.045491021e-11
-8.100000000e-03	2.321542029e-01	-4.750058690e-04	1.141097374e-11
-8.200000000e-03	2.321542057e-01	-4.726495943e-04	1.608957598e-11
-8.300000000e-03	2.321542086e-01	-4.702933197e-04	1.398576521e-11
-8.400000000e-03	2.321542113e-01	-4.679370449e-04	4.870986341e-11
-8.500000000e-03	2.321542140e-01	-4.655807701e-04	9.850266541e-12
-8.600000000e-03	2.321542166e-01	-4.632244953e-04	2.292357833e-11
-8.700000000e-03	2.321542191e-01	-4.608682203e-04	1.367251883e-11
-8.800000000e-03	2.321542216e-01	-4.585119454e-04	1.471532424e-11
-8.900000000e-03	2.321542240e-01	-4.561556704e-04	2.073581839e-11
-9.000000000e-03	2.321542263e-01	-4.537993953e-04	7.592034256e-12
-9.100000000e-03	2.321542285e-01	-4.514431202e-04	8.065120507e-12
-9.200000000e-03	2.321542307e-01	-4.490868451e-04	1.549018124e-11
-9.300000000e-03	2.321542328e-01	-4.467305699e-04	3.029719076e-11
-9.400000000e-03	2.321542349e-01	-4.443742948e-04	1.564468632e-10
-9.500000000e-03	2.321542368e-01	-4.420180196e-04	1.715565890e-11
-9.600000000e-03	2.321542387e-01	-4.396617443e-04	9.173045545e-12
-9.700000000e-03	2.321542405e-01	-4.373054691e-04	7.280071429e-12
-9.800000000e-03	2.321542423e-01	-4.349491938e-04	1.299055375e-11
-9.900000000e-03	2.321542439e-01	-4.325929186e-04	1.517093618e-11
-1.000000000e-02	2.321542455e-01	-4.302366433e-04	2.178512709e-11
-1.010000000e-02	2.321542471e-01	-4.278803680e-04	9.743875731e-12
-1.020000000e-02	2.321542485e-01	-4.255240927e-04	9.742019525e-12
-1.030000000e-02	2.321542499e-01	-4.231678175e-04	1.814227420e-11
-1.040000000e-02	2.321542512e-01	-4.208115422e-04	9.482113367e-12
-1.050000000e-02	2.321542525e-01	-4.184552670e-04	1.084429026e-11
-1.060000000e-02	2.321542536e-01	-4.160989917e-04	1.084347095e-11
-1.070000000e-02	2.321542547e-01	-4.137427165e-04	2.461681080e-11
-1.080000000e-02	2.321542558e-01	-4.113864414e-04	1.616653061e-11
-1.090000000e-02	2.321542567e-01	-4.090301662e-04	8.226725273e-12
-1.100000000e-02	2.321542576e-01	-4.066738911e-04	6.839570088e-12
-1.110000000e-02	2.321542584e-01	-4.043176160e-04	1.274985578e-11
-1.120000000e-02	2.321542592e-01	-4.019613409e-04	1.785169768e-10
-1.130000000e-02	2.321542598e-01	-3.996050659e-04	8.494530391e-12
-1.140000000e-02	2.321542604e-01	-3.972487909e-04	2.987120071e-11
-1.150000000e-02	2.321542610e-01	-3.948925160e-04	7.365316906e-12
-1.160000000e-02	2.321542614e-01	-3.925362411e-04	1.606317243e-11
-1.170000000e-02	2.321542618e-01	-3.901799663e-04	6.208055518e-12
-1.180000000e-02	2.321542621e-01	-3.878236916e-04	1.104613260e-11
-1.190000000e-02	2.321542623e-01	-3.854674169e-04	2.224361336e-11
-1.200000000e-02	2.321542625e-01	-3.831111423e-04	1.302328694e-11
-1.210000000e-02	2.321542626e-01	-3.807548677e-04	1.135803009e-11
-1.220000000e-02	2.321542626e-01	-3.783985933e-04	6.132584289e-12
-1.230000000e-02	2.321542626e-01	-3.760423189e-04	8.763301170e-12
-1.240000000e-02	2.321542625e-01	-3.736860445e-04	5.985987268e-12
-1.250000000e-02	2.321542623e-01	-3.713297703e-04	8.282020948e-12
-1.260000000e-02	2.321542620e-01	-3.689734962e-04	1.446735476e-11
-1.270000000e-02	2.321542617e-01	-3.666172221e-04	4.875286365e-12
-1.280000000e-02	2.321542613e-01	-3.642609482e-04	9.695761382e-12
-1.290000000e-02	2.321542608e-01	-3.619046743e-04	1.875144704e-11
-1.300000000e-02	2.321542602e-01	-3.595484006e-04	1.420485334e-11
-1.310000000e-02	2.321542596e-01	-3.571921269e-04	1.275013224e-11
-1.320000000e-02	2.321542589e-01	-3.548358534e-04	1.301453490e-11
-1.330000000e-02	2.321542582e-01	-3.524795800e-04	1.788115586e-11
-1.340000000e-02	2.321542573e-01	-3.501233067e-04	2.022886534e-11
-1.350000000e-02	2.321542564e-01	-3.477670335e-04	9.299791125e-12
-1.360000000e-02	2.321542554e-01	-3.454107604e-04	1.215950487e-11
-1.370000000e-02	2.321542544e-01	-3.430544875e-04	1.219150323e-11
-1.380000000e-02	2.321542532e-01	-3.406982147e-04	1.052984112e-11
-1.390000000e-02	2.321542521e-01	-3.383419421e-04	1.382883795e-11
-1.400000000e-02	2.321542508e-01	-3.359856696e-04	1.359668078e-11
-1.410000000e-02	2.321542494e-01	-3.336293972e-04	3.078894891e-11
-1.420000000e-02	2.321542480e-01	-3.312731250e-04	1.152805239e-11
-1.430000000e-02	2.321542466e-01	-3.289168529e-04	1.562248797e-11
-1.440000000e-02	2.321542450e-01	-3.265605810e-04	5.190162078e-12
-1.450000000e-02	2.321542434e-01	-3.242043092e-04	1.504669326e-11
-1.460000000e-02	2.321542417e-01	-3.218480376e-04	9.929109143e-12
-1.470000000e-02	2.321542399e-01	-3.194917662e-04	6.054258796e-12
-1.480000000e-02	2.321542381e-01	-3.171354949e-04	1.333812057e-11
-1.490000000e-02	2.321542362e-01	-3.147792238e-04	2.928554014e-11
-1.500000000e-02	2.321542342e-01	-3.124229529e-04	1.615059107e-11
-1.510000000e-02	2.321542321e-01	-3.100666822e-04	6.102201899e-12
-1.520000000e-02	2.321542300e-01	-3.077104116e-04	1.150906654e-11
-1.530000000e-02	2.321542278e-01	-3.053541412e-04	1.990358793e-11
-1.540000000e-02	2.321542255e-01	-3.029978711e-04	6.892790471e-12
-1.550000000e-02	2.321542232e-01	-3.006416011e-04	8.713416657e-12
-1.560000000e-02	2.321542208e-01	-2.982853313e-04	1.337284723e-11
-1.570000000e-02	2.321542183e-01	-2.959290617e-04	7.140031715e-12
-1.580000000e-02	2.321542157e-01	-2.935727923e-04	8.421308535e-12
-1.590000000e-02	2.321542131e-01	-2.912165232e-04	1.092499329e-11
-1.600000000e-02	2.321542104e-01	-2.888602542e-04	2.636286549e-11
-1.610000000e-02	2.321542076e-01	-2.865039855e-04	3.168459542e-11
-1.620000000e-02	2.321542048e-01	-2.841477169e-04	1.593726104e-11
-1.630000000e-02	2.321542018e-01	-2.817914486e-04	1.201569527e-11
-1.640000000e-02	2.321541989e-01	-2.794351806e-04	8.888661182e-12
-1.650000000e-02	2.321541958e-01	-2.770789127e-04	1.683798494e-11
-1.660000000e-02	2.321541927e-01	-2.747226451e-04	8.702861755e-12
-1.670000000e-02	2.321541895e-01	-2.723663778e-04	1.182783300e-11
-1.680000000e-02	2.321541862e-01	-2.700101106e-04	9.723724587e-12
-1.690000000e-02	2.321541828e-01	-2.676538438e-04	5.751201854e-12
-1.700000000e-02	2.321541794e-01	-2.652975771e-04	8.769780096e-12
-1.710000000e-02	2.321541759e-01	-2.629413107e-04	7.457492594e-12
-1.720000000e-02	2.321541724e-01	-2.605850446e-04	9.542119538e-12
-1.730000000e-02	2.321541687e-01	-2.582287788e-04	2.403391237e-11
-1.740000000e-02	2.321541650e-01	-2.558725132e-04	1.183710448e-11
-1.750000000e-02	2.321541613e-01	-2.535162478e-04	8.838801623e-12
-1.760000000e-02	2.321541574e-01	-2.511599828e-04	1.185145323e-11
-1.770000000e-02	2.321541535e-01	-2.488037180e-04	4.815664841e-11
-1.780000000e-02	2.321541495e-01	-2.464474535e-04	8.882672454e-12
-1.790000000e-02	2.321541454e-01	-2.440911892e-04	1.128241018e-11
-1.800000000e-02	2.321541413e-01	-2.417349253e-04	4.856498544e-12
-1.810000000e-02	2.321541371e-01	-2.393786617e-04	1.101434261e-11
-1.820000000e-02	2.321541328e-01	-2.370223983e-04	1.617771356e-11
-1.830000000e-02	2.321541285e-01	-2.346661352e-04	1.149587901e-11
-1.840000000e-02	2.321541240e-01	-2.323098725e-04	1.679872335e-11
-1.850000000e-02	2.321541195e-01	-2.299536100e-04	1.570341532e-11
-1.860000000e-02	2.321541150e-01	-2.275973478e-04	1.538378133e-11
-1.870000000e-02	2.321541103e-01	-2.252410860e-04	1.611043244e-11
-1.880000000e-02	2.321541056e-01	-2.228848245e-04	1.714604099e-11
-1.890000000e-02	2.321541009e-01	-2.205285633e-04	2.084742672e-11
-1.900000000e-02	2.321540960e-01	-2.181723024e-04	2.508238302e-11
-1.910000000e-02	2.321540911e-01	-2.158160418e-04	1.034475832e-11
-1.920000000e-02	2.321540861e-01	-2.134597816e-04	2.587970215e-11
-1.930000000e-02	2.321540810e-01	-2.111035217e-04	3.260340256e-11
-1.940000000e-02	2.321540759e-01	-2.087472621e-04	4.642625632e-12
-1.950000000e-02	2.321540707e-01	-2.063910029e-04	9.408857741e-12
-1.960000000e-02	2.321540654e-01	-2.040347440e-04	5.389642103e-11
-1.970000000e-02	2.321540600e-01	-2.016784854e-04	9.159868970e-12
-1.980000000e-02	2.321540546e-01	-1.993222273e-04	1.235989227e-11
-1.990000000e-02	2.321540491e-01	-1.969659694e-04	7.494595402e-12
-2.000000000e-02	2.321540435e-01	-1.946097119e-04	1.014821475e-11
-2.010000000e-02	2.321540379e-01	-1.922534548e-04	3.342306392e-11
-2.020000000e-02	2.321540322e-01	-1.898971981e-04	7.676817171e-12
-2.030000000e-02	2.321540264e-01	-1.875409417e-04	1.452005641e-11
-2.040000000e-02	2.321540205e-01	-1.851846857e-04	2.110538056e-11
-2.050000000e-02	2.321540146e-01	-1.828284301e-04	1.623284795e-11
-2.060000000e-02	2.321540086e-01	-1.804721748e-04	2.673101622e-11
-2.070000000e-02	2.321540025e-01	-1.781159199e-04	9.504607202e-12
-2.080000000e-02	2.321539964e-01	-1.757596655e-04	1.076797943e-11
-2.090000000e-02	2.321539902e-01	-1.734034114e-04	1.019069944e-11
-2.100000000e-02	2.321539839e-01	-1.710471577e-04	1.781701589e-10
-2.110000000e-02	2.321539775e-01	-1.686909044e-04	9.937206191e-12
-2.120000000e-02	2.321539711e-01	-1.663346515e-04	1.475390858e-11
-2.130000000e-02	2.321539646e-01	-1.639783990e-04	5.381041056e-11
-2.140000000e-02	2.321539580e-01	-1.616221469e-04	8.721630332e-11
-2.150000000e-02	2.321539514e-01	-1.592658952e-04	1.151089736e-11
-2.160000000e-02	2.321539447e-01	-1.569096440e-04	4.041177811e-11
-2.170000000e-02	2.321539379e-01	-1.545533932e-04	9.935442583e-12
-2.180000000e-02	2.321539310e-01	-1.521971427e-04	1.014164561e-11
-2.190000000e-02	2.321539241e-01	-1.498408928e-04	1.383219711e-11
-2.200000000e-02	2.321539171e-01	-1.474846432e-04	1.131877191e-11
-2.210000000e-02	2.321539100e-01	-1.451283941e-04	4.048808454e-11
-2.220000000e-02	2.321539029e-01	-1.427721454e-04	1.549821010e-11
-2.230000000e-02	2.321538956e-01	-1.404158972e-04	9.572855712e-12
-2.240000000e-02	2.321538883e-01	-1.380596494e-04	1.310516798e-11
-2.250000000e-02	2.321538810e-01	-1.357034020e-04	1.111798668e-11
-2.260000000e-02	2.321538735e-01	-1.333471551e-04	1.447879692e-11
-2.270000000e-02	2.321538660e-01	-1.309909087e-04	1.326365620e-11
-2.280000000e-02	2.321538585e-01	-1.286346627e-04	1.702499940e-11
-2.290000000e-02	2.321538508e-01	-1.262784172e-04	1.142464011e-11
-2.300000000e-02	2.321538431e-01	-1.239221722e-04	1.901757860e-11
-2.310000000e-02	2.321538353e-01	-1.215659276e-04	8.710243638e-12
-2.320000000e-02	2.321538274e-01	-1.192096835e-04	2.003906168e-11
-2.330000000e-02	2.321538195e-01	-1.168534399e-04	1.173575014e-10
-2.340000000e-02	2.321538115e-01	-1.144971967e-04	1.542096710e-11
-2.350000000e-02	2.321538034e-01	-1.121409541e-04	7.862568312e-11
-2.360000000e-02	2.321537953e-01	-1.097847119e-04	7.210354194e-11
-2.370000000e-02	2.321537870e-01	-1.074284702e-04	6.748140955e-12
-2.380000000e-02	2.321537787e-01	-1.050722290e-04	1.275171057e-11
-2.390000000e-02	2.321537704e-01	-1.027159883e-04	1.611710426e-11
-2.400000000e-02	2.321537619e-01	-1.003597482e-04	2.608735400e-11
-2.410000000e-02	2.321537534e-01	-9.800350850e-05	2.691665345e-11
-2.420000000e-02	2.321537449e-01	-9.564726934e-05	2.319581508e-11
-2.430000000e-02	2.321537362e-01	-9.329103069e-05	2.889439204e-11
-2.440000000e-02	2.321537275e-01	-9.093479257e-05	1.058057315e-11
-2.450000000e-02	2.321537187e-01	-8.857855496e-05	1.420406717e-11
-2.460000000e-02	2.321537098e-01	-8.622231788e-05	6.172043015e-12
-2.470000000e-02	2.321537009e-01	-8.386608132e-05	1.017437899e-11
-2.480000000e-02	2.321536919e-01	-8.150984531e-05	1.991078579e-11
-2.490000000e-02	2.321536828e-01	-7.915360982e-05	2.083705358e-11
-2.500000000e-02	2.321536736e-01	-7.679737488e-05	1.572988891e-11
-2.510000000e-02	2.321536644e-01	-7.444114048e-05	2.997077613e-12
-2.520000000e-02	2.321536551e-01	-7.208490662e-05	8.345221770e-12
-2.530000000e-02	2.321536457e-01	-6.972867332e-05	1.379346548e-11
-2.540000000e-02	2.321536363e-01	-6.737244057e-05	5.257969468e-11
-2.550000000e-02	2.321536268e-01	-6.501620838e-05	9.535907944e-12
-2.560000000e-02	2.321536172e-01	-6.265997675e-05	1.314274438e-11
-2.570000000e-02	2.321536075e-01	-6.030374568e-05	1.815254331e-11
-2.580000000e-02	2.321535978e-01	-5.794751519e-05	5.095378761e-11
-2.590000000e-02	2.321535880e-01	-5.559128526e-05	1.463467272e-11
-2.600000000e-02	2.321535781e-01	-5.323505592e-05	1.442949693e-11
-2.610000000e-02	2.321535682e-01	-5.087882715e-05	9.890523052e-12
-2.620000000e-02	2.321535582e-01	-4.852259896e-05	1.423609409e-11
-2.630000000e-02	2.321535481e-01	-4.616637137e-05	3.125622173e-11
-2.640000000e-02	2.321535379e-01	-4.381014436e-05	1.826633583e-11
-2.650000000e-02	2.321535277e-01	-4.145391795e-05	9.806773226e-12
-2.660000000e-02	2.321535174e-01	-3.909769213e-05	1.208120986e-11
-2.670000000e-02	2.321535070e-01	-3.674146692e-05	1.035021215e-11
-2.680000000e-02	2.321534966e-01	-3.438524231e-05	1.560195700e-11
-2.690000000e-02	2.321534860e-01	-3.202901831e-05	1.697203509e-11
-2.700000000e-02	2.321534755e-01	-2.967279492e-05	1.043395345e-11
-2.710000000e-02	2.321534648e-01	-2.731657215e-05	9.982379085e-12
-2.720000000e-02	2.321534541e-01	-2.496035000e-05	7.068825652e-11
-2.730000000e-02	2.321534433e-01	-2.260412847e-05	1.635686981e-11
-2.740000000e-02	2.321534324e-01	-2.024790757e-05	9.583227614e-12
-2.750000000e-02	2.321534214e-01	-1.789168730e-05	1.680214010e-11
-2.760000000e-02	2.321534104e-01	-1.553546766e-05	1.164468197e-11
-2.770000000e-02	2.321533993e-01	-1.317924867e-05	1.982156564e-11
-2.780000000e-02	2.321533882e-01	-1.082303031e-05	1.016776089e-11
-2.790000000e-02	2.321533769e-01	-8.466812595e-06	1.123963784e-11
-2.800000000e-02	2.321533656e-01	-6.110595532e-06	1.238976724e-11
-2.810000000e-02	2.321533542e-01	-3.754379121e-06	1.316827377e-11
-2.820000000e-02	2.321533428e-01	-1.398163366e-06	1.064139436e-11
-2.830000000e-02	2.321533313e-01	9.580517289e-07	1.562430547e-11
-2.840000000e-02	2.321533197e-01	3.314266162e-06	8.404831441e-12
-2.850000000e-02	2.321533080e-01	5.670479929e-06	4.933116508e-11
-2.860000000e-02	2.321532963e-01	8.026693022e-06	8.066536995e-12
-2.870000000e-02	2.321532845e-01	1.038290544e-05	1.587273514e-11
-2.880000000e-02	2.321532726e-01	1.273911719e-05	1.817289858e-11
-2.890000000e-02	2.321532606e-01	1.509532825e-05	6.581311053e-12
-2.900000000e-02	2.321532486e-01	1.745153862e-05	9.615378490e-12
-2.910000000e-02	2.321532365e-01	1.980774831e-05	2.924329635e-11
-2.920000000e-02	2.321532244e-01	2.216395730e-05	1.774606995e-11
-2.930000000e-02	2.321532121e-01	2.452016560e-05	1.021318048e-11
-2.940000000e-02	2.321531998e-01	2.687637320e-05	2.694563914e-11
-2.950000000e-02	2.321531874e-01	2.923258010e-05	9.303577783e-12
-2.960000000e-02	2.321531750e-01	3.158878629e-05	8.520750645e-12
-2.970000000e-02	2.321531624e-01	3.394499177e-05	1.450808975e-11
-2.980000000e-02	2.321531499e-01	3.630119653e-05	8.226865404e-12
-2.990000000e-02	2.321531372e-01	3.865740058e-05	8.580167156e-12
-3.000000000e-02	2.321531244e-01	4.101360391e-05	1.152501025e-11
