# Im(epsi1)     Re(omega/c)      Im(omega/c)      Eq(det).Opt det CON kz, R=0.5 \mum, mu_c=0.3, Re(epsi1)=3.90solve_det_conkz_vs_kz.py
0.000000000e+00	2.321372220e-01	-6.658023810e-04	1.080058094e-11
-1.000000000e-04	2.321372307e-01	-6.634462429e-04	2.591535961e-11
-2.000000000e-04	2.321372393e-01	-6.610901044e-04	1.794611748e-11
-3.000000000e-04	2.321372479e-01	-6.587339656e-04	7.068612014e-12
-4.000000000e-04	2.321372564e-01	-6.563778264e-04	8.690748886e-12
-5.000000000e-04	2.321372648e-01	-6.540216869e-04	7.836791657e-12
-6.000000000e-04	2.321372731e-01	-6.516655470e-04	4.040551834e-11
-7.000000000e-04	2.321372814e-01	-6.493094067e-04	1.401286990e-11
-8.000000000e-04	2.321372896e-01	-6.469532662e-04	3.656855550e-11
-9.000000000e-04	2.321372977e-01	-6.445971252e-04	1.822875858e-11
-1.000000000e-03	2.321373058e-01	-6.422409840e-04	1.057006583e-11
-1.100000000e-03	2.321373138e-01	-6.398848424e-04	1.066771554e-11
-1.200000000e-03	2.321373217e-01	-6.375287005e-04	8.268409913e-12
-1.300000000e-03	2.321373295e-01	-6.351725583e-04	6.225322387e-12
-1.400000000e-03	2.321373373e-01	-6.328164158e-04	6.658439088e-12
-1.500000000e-03	2.321373450e-01	-6.304602729e-04	1.058405856e-11
-1.600000000e-03	2.321373526e-01	-6.281041297e-04	2.154869441e-11
-1.700000000e-03	2.321373601e-01	-6.257479863e-04	1.128712359e-11
-1.800000000e-03	2.321373676e-01	-6.233918425e-04	1.375124158e-11
-1.900000000e-03	2.321373750e-01	-6.210356984e-04	1.409176868e-11
-2.000000000e-03	2.321373824e-01	-6.186795540e-04	1.812848252e-11
-2.100000000e-03	2.321373896e-01	-6.163234094e-04	8.257827331e-12
-2.200000000e-03	2.321373968e-01	-6.139672644e-04	1.987664040e-11
-2.300000000e-03	2.321374039e-01	-6.116111192e-04	7.641103505e-12
-2.400000000e-03	2.321374110e-01	-6.092549737e-04	2.370003231e-11
-2.500000000e-03	2.321374180e-01	-6.068988279e-04	1.118215304e-11
-2.600000000e-03	2.321374249e-01	-6.045426818e-04	9.259073928e-12
-2.700000000e-03	2.321374317e-01	-6.021865354e-04	9.947091251e-12
-2.800000000e-03	2.321374385e-01	-5.998303888e-04	1.700581895e-11
-2.900000000e-03	2.321374452e-01	-5.974742419e-04	1.763578576e-11
-3.000000000e-03	2.321374518e-01	-5.951180948e-04	1.950749396e-11
-3.100000000e-03	2.321374583e-01	-5.927619474e-04	1.048076342e-11
-3.200000000e-03	2.321374648e-01	-5.904057998e-04	8.763040767e-12
-3.300000000e-03	2.321374712e-01	-5.880496519e-04	9.324867060e-12
-3.400000000e-03	2.321374776e-01	-5.856935037e-04	1.669589269e-11
-3.500000000e-03	2.321374838e-01	-5.833373554e-04	2.302001594e-11
-3.600000000e-03	2.321374900e-01	-5.809812067e-04	8.311231143e-12
-3.700000000e-03	2.321374961e-01	-5.786250579e-04	1.484565217e-11
-3.800000000e-03	2.321375022e-01	-5.762689088e-04	2.086540354e-11
-3.900000000e-03	2.321375081e-01	-5.739127595e-04	1.994106920e-11
-4.000000000e-03	2.321375140e-01	-5.715566099e-04	8.289048011e-12
-4.100000000e-03	2.321375199e-01	-5.692004602e-04	1.074346306e-11
-4.200000000e-03	2.321375256e-01	-5.668443102e-04	3.595423495e-11
-4.300000000e-03	2.321375313e-01	-5.644881600e-04	1.046898042e-11
-4.400000000e-03	2.321375369e-01	-5.621320096e-04	1.657878101e-11
-4.500000000e-03	2.321375425e-01	-5.597758590e-04	1.224035124e-11
-4.600000000e-03	2.321375480e-01	-5.574197082e-04	3.978842662e-11
-4.700000000e-03	2.321375534e-01	-5.550635572e-04	1.712856340e-11
-4.800000000e-03	2.321375587e-01	-5.527074060e-04	4.026459858e-11
-4.900000000e-03	2.321375639e-01	-5.503512546e-04	1.393337888e-11
-5.000000000e-03	2.321375691e-01	-5.479951031e-04	1.752779741e-11
-5.100000000e-03	2.321375742e-01	-5.456389513e-04	1.937519725e-11
-5.200000000e-03	2.321375793e-01	-5.432827994e-04	1.642891058e-11
-5.300000000e-03	2.321375843e-01	-5.409266472e-04	1.154579865e-11
-5.400000000e-03	2.321375892e-01	-5.385704949e-04	4.249865071e-11
-5.500000000e-03	2.321375940e-01	-5.362143425e-04	8.419484561e-12
-5.600000000e-03	2.321375987e-01	-5.338581899e-04	1.316655806e-11
-5.700000000e-03	2.321376034e-01	-5.315020371e-04	9.798606831e-12
-5.800000000e-03	2.321376080e-01	-5.291458841e-04	1.097786873e-11
-5.900000000e-03	2.321376126e-01	-5.267897310e-04	1.884792923e-11
-6.000000000e-03	2.321376170e-01	-5.244335778e-04	1.053427549e-11
-6.100000000e-03	2.321376214e-01	-5.220774244e-04	2.777412311e-11
-6.200000000e-03	2.321376258e-01	-5.197212709e-04	2.852788707e-11
-6.300000000e-03	2.321376300e-01	-5.173651172e-04	1.742046519e-11
-6.400000000e-03	2.321376342e-01	-5.150089634e-04	1.554956277e-11
-6.500000000e-03	2.321376383e-01	-5.126528094e-04	9.208116507e-12
-6.600000000e-03	2.321376423e-01	-5.102966553e-04	4.706116582e-11
-6.700000000e-03	2.321376463e-01	-5.079405011e-04	1.059899693e-11
-6.800000000e-03	2.321376502e-01	-5.055843468e-04	7.356371853e-12
-6.900000000e-03	2.321376540e-01	-5.032281924e-04	4.854997630e-11
-7.000000000e-03	2.321376578e-01	-5.008720378e-04	1.295603310e-11
-7.100000000e-03	2.321376615e-01	-4.985158831e-04	6.837438195e-12
-7.200000000e-03	2.321376651e-01	-4.961597284e-04	7.106532497e-12
-7.300000000e-03	2.321376686e-01	-4.938035735e-04	3.345860538e-11
-7.400000000e-03	2.321376721e-01	-4.914474185e-04	4.891222248e-12
-7.500000000e-03	2.321376755e-01	-4.890912634e-04	3.708823798e-11
-7.600000000e-03	2.321376788e-01	-4.867351082e-04	9.811971719e-12
-7.700000000e-03	2.321376820e-01	-4.843789530e-04	1.183024376e-11
-7.800000000e-03	2.321376852e-01	-4.820227976e-04	6.501431267e-12
-7.900000000e-03	2.321376883e-01	-4.796666422e-04	1.243375142e-11
-8.000000000e-03	2.321376914e-01	-4.773104867e-04	1.130884826e-11
-8.100000000e-03	2.321376943e-01	-4.749543311e-04	1.395186394e-10
-8.200000000e-03	2.321376972e-01	-4.725981755e-04	4.283738696e-11
-8.300000000e-03	2.321377000e-01	-4.702420198e-04	7.708863819e-12
-8.400000000e-03	2.321377028e-01	-4.678858640e-04	3.675710115e-11
-8.500000000e-03	2.321377055e-01	-4.655297081e-04	6.569914304e-12
-8.600000000e-03	2.321377081e-01	-4.631735522e-04	1.071586568e-11
-8.700000000e-03	2.321377106e-01	-4.608173963e-04	1.334926892e-11
-8.800000000e-03	2.321377130e-01	-4.584612403e-04	5.173690329e-12
-8.900000000e-03	2.321377154e-01	-4.561050842e-04	2.747859902e-11
-9.000000000e-03	2.321377178e-01	-4.537489281e-04	8.524305261e-12
-9.100000000e-03	2.321377200e-01	-4.513927720e-04	6.495518208e-12
-9.200000000e-03	2.321377222e-01	-4.490366159e-04	5.004111144e-11
-9.300000000e-03	2.321377243e-01	-4.466804597e-04	1.449866055e-11
-9.400000000e-03	2.321377263e-01	-4.443243034e-04	1.598535367e-11
-9.500000000e-03	2.321377283e-01	-4.419681472e-04	1.457994411e-11
-9.600000000e-03	2.321377302e-01	-4.396119909e-04	7.371748753e-12
-9.700000000e-03	2.321377320e-01	-4.372558347e-04	6.447506154e-12
-9.800000000e-03	2.321377337e-01	-4.348996784e-04	9.442830823e-12
-9.900000000e-03	2.321377354e-01	-4.325435221e-04	2.440069523e-11
-1.000000000e-02	2.321377370e-01	-4.301873658e-04	1.364118624e-11
-1.010000000e-02	2.321377385e-01	-4.278312094e-04	1.413617821e-11
-1.020000000e-02	2.321377400e-01	-4.254750531e-04	1.407685421e-10
-1.030000000e-02	2.321377414e-01	-4.231188968e-04	9.173884750e-12
-1.040000000e-02	2.321377427e-01	-4.207627405e-04	1.228855319e-11
-1.050000000e-02	2.321377439e-01	-4.184065843e-04	2.093422440e-11
-1.060000000e-02	2.321377451e-01	-4.160504280e-04	2.975180900e-11
-1.070000000e-02	2.321377462e-01	-4.136942717e-04	3.122734506e-11
-1.080000000e-02	2.321377472e-01	-4.113381155e-04	1.252209447e-11
-1.090000000e-02	2.321377482e-01	-4.089819593e-04	1.165716132e-11
-1.100000000e-02	2.321377490e-01	-4.066258032e-04	2.329632667e-11
-1.110000000e-02	2.321377499e-01	-4.042696470e-04	4.568497898e-11
-1.120000000e-02	2.321377506e-01	-4.019134909e-04	3.986469003e-11
-1.130000000e-02	2.321377513e-01	-3.995573349e-04	2.958967686e-11
-1.140000000e-02	2.321377519e-01	-3.972011789e-04	6.970876547e-12
-1.150000000e-02	2.321377524e-01	-3.948450229e-04	9.912064940e-12
-1.160000000e-02	2.321377528e-01	-3.924888670e-04	1.112762714e-11
-1.170000000e-02	2.321377532e-01	-3.901327112e-04	1.015691032e-11
-1.180000000e-02	2.321377535e-01	-3.877765554e-04	1.348936885e-11
-1.190000000e-02	2.321377538e-01	-3.854203997e-04	2.046326738e-11
-1.200000000e-02	2.321377539e-01	-3.830642440e-04	9.772302733e-12
-1.210000000e-02	2.321377540e-01	-3.807080884e-04	1.022041240e-11
-1.220000000e-02	2.321377540e-01	-3.783519329e-04	1.330846428e-11
-1.230000000e-02	2.321377540e-01	-3.759957775e-04	4.146016544e-11
-1.240000000e-02	2.321377539e-01	-3.736396221e-04	1.082595281e-11
-1.250000000e-02	2.321377537e-01	-3.712834669e-04	3.245882971e-11
-1.260000000e-02	2.321377534e-01	-3.689273117e-04	8.827527757e-12
-1.270000000e-02	2.321377531e-01	-3.665711566e-04	6.846204054e-12
-1.280000000e-02	2.321377527e-01	-3.642150016e-04	1.678607184e-11
-1.290000000e-02	2.321377522e-01	-3.618588467e-04	6.672589520e-11
-1.300000000e-02	2.321377517e-01	-3.595026919e-04	7.039752241e-12
-1.310000000e-02	2.321377510e-01	-3.571465373e-04	1.363121438e-11
-1.320000000e-02	2.321377503e-01	-3.547903827e-04	2.114342289e-11
-1.330000000e-02	2.321377496e-01	-3.524342282e-04	1.759886895e-11
-1.340000000e-02	2.321377487e-01	-3.500780739e-04	6.450533021e-12
-1.350000000e-02	2.321377478e-01	-3.477219197e-04	1.360890084e-11
-1.360000000e-02	2.321377468e-01	-3.453657656e-04	1.026413212e-11
-1.370000000e-02	2.321377458e-01	-3.430096116e-04	2.060149714e-11
-1.380000000e-02	2.321377447e-01	-3.406534578e-04	2.051783125e-11
-1.390000000e-02	2.321377435e-01	-3.382973041e-04	7.369254122e-12
-1.400000000e-02	2.321377422e-01	-3.359411506e-04	2.515656458e-11
-1.410000000e-02	2.321377409e-01	-3.335849972e-04	1.159718202e-11
-1.420000000e-02	2.321377394e-01	-3.312288439e-04	1.334317938e-11
-1.430000000e-02	2.321377380e-01	-3.288726908e-04	2.807168140e-11
-1.440000000e-02	2.321377364e-01	-3.265165378e-04	9.080387796e-12
-1.450000000e-02	2.321377348e-01	-3.241603850e-04	1.110277635e-11
-1.460000000e-02	2.321377331e-01	-3.218042324e-04	8.577211285e-12
-1.470000000e-02	2.321377313e-01	-3.194480799e-04	7.075896904e-12
-1.480000000e-02	2.321377295e-01	-3.170919276e-04	5.374399810e-12
-1.490000000e-02	2.321377276e-01	-3.147357755e-04	1.386905415e-11
-1.500000000e-02	2.321377256e-01	-3.123796236e-04	8.123903787e-12
-1.510000000e-02	2.321377235e-01	-3.100234718e-04	1.524259883e-11
-1.520000000e-02	2.321377214e-01	-3.076673202e-04	1.031829461e-11
-1.530000000e-02	2.321377192e-01	-3.053111688e-04	8.548420620e-12
-1.540000000e-02	2.321377169e-01	-3.029550176e-04	9.044598930e-12
-1.550000000e-02	2.321377146e-01	-3.005988666e-04	6.165967198e-12
-1.560000000e-02	2.321377122e-01	-2.982427157e-04	1.566167224e-11
-1.570000000e-02	2.321377097e-01	-2.958865651e-04	2.118174047e-11
-1.580000000e-02	2.321377071e-01	-2.935304147e-04	9.425834803e-12
-1.590000000e-02	2.321377045e-01	-2.911742645e-04	2.477364172e-11
-1.600000000e-02	2.321377018e-01	-2.888181145e-04	1.125112028e-11
-1.610000000e-02	2.321376990e-01	-2.864619648e-04	8.870054857e-12
-1.620000000e-02	2.321376962e-01	-2.841058152e-04	1.268068535e-11
-1.630000000e-02	2.321376932e-01	-2.817496659e-04	9.556824557e-12
-1.640000000e-02	2.321376903e-01	-2.793935168e-04	9.210149138e-12
-1.650000000e-02	2.321376872e-01	-2.770373679e-04	1.912013087e-11
-1.660000000e-02	2.321376841e-01	-2.746812193e-04	2.339181849e-11
-1.670000000e-02	2.321376809e-01	-2.723250708e-04	1.682342538e-11
-1.680000000e-02	2.321376776e-01	-2.699689227e-04	1.637032686e-11
-1.690000000e-02	2.321376742e-01	-2.676127748e-04	9.473145890e-12
-1.700000000e-02	2.321376708e-01	-2.652566271e-04	1.000437475e-11
-1.710000000e-02	2.321376673e-01	-2.629004797e-04	1.262854804e-11
-1.720000000e-02	2.321376638e-01	-2.605443325e-04	3.269011522e-11
-1.730000000e-02	2.321376601e-01	-2.581881856e-04	2.575510130e-11
-1.740000000e-02	2.321376564e-01	-2.558320390e-04	6.713318505e-12
-1.750000000e-02	2.321376526e-01	-2.534758926e-04	1.464171330e-11
-1.760000000e-02	2.321376488e-01	-2.511197465e-04	4.424264452e-12
-1.770000000e-02	2.321376449e-01	-2.487636007e-04	1.847572024e-11
-1.780000000e-02	2.321376409e-01	-2.464074552e-04	1.022712570e-11
-1.790000000e-02	2.321376368e-01	-2.440513099e-04	2.653048334e-11
-1.800000000e-02	2.321376327e-01	-2.416951649e-04	5.417083621e-11
-1.810000000e-02	2.321376285e-01	-2.393390203e-04	2.832228459e-11
-1.820000000e-02	2.321376242e-01	-2.369828759e-04	1.128166049e-11
-1.830000000e-02	2.321376198e-01	-2.346267318e-04	1.118539868e-11
-1.840000000e-02	2.321376154e-01	-2.322705880e-04	3.352484359e-11
-1.850000000e-02	2.321376109e-01	-2.299144445e-04	1.074819981e-11
-1.860000000e-02	2.321376064e-01	-2.275583013e-04	1.247934631e-11
-1.870000000e-02	2.321376017e-01	-2.252021584e-04	3.788917064e-11
-1.880000000e-02	2.321375970e-01	-2.228460158e-04	1.340880326e-11
-1.890000000e-02	2.321375922e-01	-2.204898736e-04	1.375324701e-10
-1.900000000e-02	2.321375874e-01	-2.181337317e-04	1.603472603e-11
-1.910000000e-02	2.321375824e-01	-2.157775901e-04	1.182179043e-11
-1.920000000e-02	2.321375774e-01	-2.134214488e-04	8.051755724e-12
-1.930000000e-02	2.321375724e-01	-2.110653079e-04	1.660601759e-11
-1.940000000e-02	2.321375672e-01	-2.087091673e-04	9.695721333e-12
-1.950000000e-02	2.321375620e-01	-2.063530270e-04	1.564336392e-11
-1.960000000e-02	2.321375567e-01	-2.039968871e-04	4.490401052e-11
-1.970000000e-02	2.321375514e-01	-2.016407475e-04	1.178748079e-11
-1.980000000e-02	2.321375460e-01	-1.992846083e-04	1.229225236e-11
-1.990000000e-02	2.321375405e-01	-1.969284694e-04	1.007822739e-11
-2.000000000e-02	2.321375349e-01	-1.945723309e-04	2.850927100e-11
-2.010000000e-02	2.321375293e-01	-1.922161928e-04	1.868019084e-10
-2.020000000e-02	2.321375235e-01	-1.898600550e-04	2.034712619e-11
-2.030000000e-02	2.321375178e-01	-1.875039176e-04	1.278899271e-11
-2.040000000e-02	2.321375119e-01	-1.851477805e-04	1.920155733e-11
-2.050000000e-02	2.321375060e-01	-1.827916439e-04	2.455610919e-11
-2.060000000e-02	2.321375000e-01	-1.804355076e-04	1.387974330e-11
-2.070000000e-02	2.321374939e-01	-1.780793717e-04	7.279140202e-12
-2.080000000e-02	2.321374877e-01	-1.757232362e-04	1.396858055e-11
-2.090000000e-02	2.321374815e-01	-1.733671010e-04	1.265070933e-11
-2.100000000e-02	2.321374752e-01	-1.710109663e-04	4.400406029e-11
-2.110000000e-02	2.321374689e-01	-1.686548320e-04	1.356525975e-11
-2.120000000e-02	2.321374625e-01	-1.662986981e-04	1.061714922e-11
-2.130000000e-02	2.321374560e-01	-1.639425645e-04	9.334155703e-12
-2.140000000e-02	2.321374494e-01	-1.615864314e-04	7.398565897e-12
-2.150000000e-02	2.321374427e-01	-1.592302987e-04	1.348420423e-11
-2.160000000e-02	2.321374360e-01	-1.568741664e-04	2.523140563e-11
-2.170000000e-02	2.321374292e-01	-1.545180346e-04	7.845565127e-12
-2.180000000e-02	2.321374224e-01	-1.521619031e-04	1.397703911e-11
-2.190000000e-02	2.321374154e-01	-1.498057721e-04	1.132729919e-11
-2.200000000e-02	2.321374084e-01	-1.474496415e-04	1.785974542e-11
-2.210000000e-02	2.321374014e-01	-1.450935114e-04	7.518543064e-12
-2.220000000e-02	2.321373942e-01	-1.427373817e-04	6.637110734e-12
-2.230000000e-02	2.321373870e-01	-1.403812524e-04	1.177791171e-11
-2.240000000e-02	2.321373797e-01	-1.380251236e-04	1.229419530e-11
-2.250000000e-02	2.321373723e-01	-1.356689952e-04	1.106685480e-11
-2.260000000e-02	2.321373649e-01	-1.333128672e-04	1.148054498e-11
-2.270000000e-02	2.321373574e-01	-1.309567398e-04	9.671333390e-12
-2.280000000e-02	2.321373498e-01	-1.286006128e-04	8.502126926e-12
-2.290000000e-02	2.321373422e-01	-1.262444862e-04	2.742822605e-11
-2.300000000e-02	2.321373344e-01	-1.238883601e-04	1.637673752e-11
-2.310000000e-02	2.321373266e-01	-1.215322345e-04	1.223822630e-11
-2.320000000e-02	2.321373188e-01	-1.191761094e-04	5.127298222e-11
-2.330000000e-02	2.321373108e-01	-1.168199847e-04	1.171165988e-11
-2.340000000e-02	2.321373028e-01	-1.144638606e-04	1.868934053e-11
-2.350000000e-02	2.321372948e-01	-1.121077369e-04	1.610662601e-11
-2.360000000e-02	2.321372866e-01	-1.097516137e-04	2.259482207e-11
-2.370000000e-02	2.321372784e-01	-1.073954910e-04	9.405274536e-12
-2.380000000e-02	2.321372701e-01	-1.050393688e-04	1.670745958e-11
-2.390000000e-02	2.321372617e-01	-1.026832470e-04	4.651329838e-11
-2.400000000e-02	2.321372533e-01	-1.003271258e-04	1.006153467e-11
-2.410000000e-02	2.321372448e-01	-9.797100514e-05	1.240316134e-11
-2.420000000e-02	2.321372362e-01	-9.561488494e-05	2.554304123e-11
-2.430000000e-02	2.321372275e-01	-9.325876527e-05	1.447177149e-11
-2.440000000e-02	2.321372188e-01	-9.090264611e-05	9.185398374e-12
-2.450000000e-02	2.321372100e-01	-8.854652747e-05	1.069363168e-11
-2.460000000e-02	2.321372011e-01	-8.619040936e-05	1.473896771e-11
-2.470000000e-02	2.321371922e-01	-8.383429177e-05	9.048037374e-12
-2.480000000e-02	2.321371832e-01	-8.147817472e-05	2.816448418e-11
-2.490000000e-02	2.321371741e-01	-7.912205820e-05	1.501898179e-11
-2.500000000e-02	2.321371649e-01	-7.676594223e-05	1.160372336e-11
-2.510000000e-02	2.321371557e-01	-7.440982680e-05	2.720488743e-11
-2.520000000e-02	2.321371464e-01	-7.205371191e-05	1.403847660e-11
-2.530000000e-02	2.321371371e-01	-6.969759758e-05	1.720677622e-11
-2.540000000e-02	2.321371276e-01	-6.734148380e-05	1.372846227e-11
-2.550000000e-02	2.321371181e-01	-6.498537057e-05	9.521640087e-12
-2.560000000e-02	2.321371085e-01	-6.262925791e-05	3.686151484e-11
-2.570000000e-02	2.321370989e-01	-6.027314582e-05	1.119588095e-11
-2.580000000e-02	2.321370891e-01	-5.791703427e-05	2.347759103e-10
-2.590000000e-02	2.321370793e-01	-5.556092333e-05	9.196067582e-12
-2.600000000e-02	2.321370694e-01	-5.320481296e-05	1.145332863e-11
-2.610000000e-02	2.321370595e-01	-5.084870316e-05	1.034673802e-11
-2.620000000e-02	2.321370495e-01	-4.849259394e-05	1.253310097e-11
-2.630000000e-02	2.321370394e-01	-4.613648531e-05	7.248191613e-12
-2.640000000e-02	2.321370292e-01	-4.378037728e-05	9.080176729e-12
-2.650000000e-02	2.321370190e-01	-4.142426983e-05	1.080638013e-11
-2.660000000e-02	2.321370087e-01	-3.906816298e-05	8.107980264e-12
-2.670000000e-02	2.321369983e-01	-3.671205674e-05	8.012233518e-11
-2.680000000e-02	2.321369879e-01	-3.435595110e-05	1.543656193e-11
-2.690000000e-02	2.321369774e-01	-3.199984607e-05	1.523071173e-11
-2.700000000e-02	2.321369668e-01	-2.964374166e-05	4.087830247e-11
-2.710000000e-02	2.321369561e-01	-2.728763785e-05	2.571888274e-11
-2.720000000e-02	2.321369454e-01	-2.493153467e-05	8.109673050e-12
-2.730000000e-02	2.321369346e-01	-2.257543211e-05	1.558865370e-11
-2.740000000e-02	2.321369237e-01	-2.021933017e-05	2.810960430e-11
-2.750000000e-02	2.321369128e-01	-1.786322887e-05	2.922066109e-11
-2.760000000e-02	2.321369017e-01	-1.550712821e-05	1.088726179e-11
-2.770000000e-02	2.321368906e-01	-1.315102818e-05	3.123314806e-11
-2.780000000e-02	2.321368795e-01	-1.079492879e-05	1.303798034e-11
-2.790000000e-02	2.321368682e-01	-8.438830047e-06	8.682545677e-12
-2.800000000e-02	2.321368569e-01	-6.082731953e-06	2.291405685e-11
-2.810000000e-02	2.321368456e-01	-3.726634511e-06	6.241316778e-11
-2.820000000e-02	2.321368341e-01	-1.370537725e-06	1.222293482e-11
-2.830000000e-02	2.321368226e-01	9.855583984e-07	1.825625600e-11
-2.840000000e-02	2.321368110e-01	3.341653861e-06	1.180521606e-11
-2.850000000e-02	2.321367993e-01	5.697748656e-06	2.552197338e-11
-2.860000000e-02	2.321367876e-01	8.053842785e-06	1.510308165e-11
-2.870000000e-02	2.321367758e-01	1.040993623e-05	1.105286104e-11
-2.880000000e-02	2.321367639e-01	1.276602901e-05	1.836623312e-11
-2.890000000e-02	2.321367520e-01	1.512212110e-05	1.522894820e-11
-2.900000000e-02	2.321367399e-01	1.747821251e-05	7.929517108e-12
-2.910000000e-02	2.321367278e-01	1.983430322e-05	6.246763498e-11
-2.920000000e-02	2.321367157e-01	2.219039325e-05	1.615155082e-11
-2.930000000e-02	2.321367034e-01	2.454648258e-05	6.485306567e-12
-2.940000000e-02	2.321366911e-01	2.690257121e-05	1.793464182e-11
-2.950000000e-02	2.321366787e-01	2.925865914e-05	1.770089318e-11
-2.960000000e-02	2.321366663e-01	3.161474635e-05	1.295857771e-11
-2.970000000e-02	2.321366538e-01	3.397083286e-05	8.761228179e-12
-2.980000000e-02	2.321366412e-01	3.632691866e-05	2.417721781e-11
-2.990000000e-02	2.321366285e-01	3.868300373e-05	3.361192512e-11
-3.000000000e-02	2.321366157e-01	4.103908809e-05	2.642375291e-11
