# Im(epsi1)     Re(omega/c)      Im(omega/c)      Eq(det).Opt det CON kz, R=0.5 \mum, mu_c=0.3, Re(epsi1)=3.90solve_det_conkz_vs_kz.py
0.000000000e+00	2.321633601e-01	-6.658992343e-04	1.271964366e-11
-1.000000000e-04	2.321633688e-01	-6.635429078e-04	6.458097140e-12
-2.000000000e-04	2.321633775e-01	-6.611865809e-04	1.451953331e-11
-3.000000000e-04	2.321633860e-01	-6.588302537e-04	7.758323245e-12
-4.000000000e-04	2.321633945e-01	-6.564739262e-04	6.593418959e-12
-5.000000000e-04	2.321634029e-01	-6.541175982e-04	7.007693052e-12
-6.000000000e-04	2.321634113e-01	-6.517612700e-04	1.197452781e-11
-7.000000000e-04	2.321634195e-01	-6.494049414e-04	1.650128102e-11
-8.000000000e-04	2.321634277e-01	-6.470486124e-04	1.214746844e-11
-9.000000000e-04	2.321634359e-01	-6.446922831e-04	5.107255211e-12
-1.000000000e-03	2.321634439e-01	-6.423359535e-04	5.700523870e-12
-1.100000000e-03	2.321634519e-01	-6.399796236e-04	1.997394950e-11
-1.200000000e-03	2.321634598e-01	-6.376232933e-04	2.157886206e-11
-1.300000000e-03	2.321634676e-01	-6.352669627e-04	1.017026658e-11
-1.400000000e-03	2.321634754e-01	-6.329106318e-04	1.334275462e-11
-1.500000000e-03	2.321634831e-01	-6.305543005e-04	4.655563190e-11
-1.600000000e-03	2.321634907e-01	-6.281979690e-04	2.836452682e-11
-1.700000000e-03	2.321634983e-01	-6.258416372e-04	9.326171122e-12
-1.800000000e-03	2.321635058e-01	-6.234853050e-04	5.396015070e-12
-1.900000000e-03	2.321635132e-01	-6.211289725e-04	2.444912280e-11
-2.000000000e-03	2.321635205e-01	-6.187726398e-04	7.368433719e-12
-2.100000000e-03	2.321635278e-01	-6.164163068e-04	2.144106103e-11
-2.200000000e-03	2.321635350e-01	-6.140599734e-04	1.708784895e-11
-2.300000000e-03	2.321635421e-01	-6.117036398e-04	1.239912165e-11
-2.400000000e-03	2.321635492e-01	-6.093473059e-04	6.538766647e-12
-2.500000000e-03	2.321635561e-01	-6.069909717e-04	7.222002860e-12
-2.600000000e-03	2.321635630e-01	-6.046346373e-04	1.188726750e-11
-2.700000000e-03	2.321635699e-01	-6.022783026e-04	1.579435981e-11
-2.800000000e-03	2.321635766e-01	-5.999219676e-04	8.502889813e-12
-2.900000000e-03	2.321635833e-01	-5.975656323e-04	3.332834611e-11
-3.000000000e-03	2.321635900e-01	-5.952092968e-04	8.442063106e-12
-3.100000000e-03	2.321635965e-01	-5.928529610e-04	1.475010190e-11
-3.200000000e-03	2.321636030e-01	-5.904966250e-04	1.169435147e-11
-3.300000000e-03	2.321636094e-01	-5.881402887e-04	5.639947858e-12
-3.400000000e-03	2.321636157e-01	-5.857839522e-04	8.735733453e-12
-3.500000000e-03	2.321636220e-01	-5.834276155e-04	1.899700258e-11
-3.600000000e-03	2.321636282e-01	-5.810712785e-04	2.973692872e-11
-3.700000000e-03	2.321636343e-01	-5.787149412e-04	2.748524030e-11
-3.800000000e-03	2.321636404e-01	-5.763586038e-04	6.559547152e-12
-3.900000000e-03	2.321636463e-01	-5.740022661e-04	1.043796127e-11
-4.000000000e-03	2.321636522e-01	-5.716459282e-04	9.370260734e-12
-4.100000000e-03	2.321636581e-01	-5.692895900e-04	1.832261664e-11
-4.200000000e-03	2.321636638e-01	-5.669332517e-04	1.506564544e-11
-4.300000000e-03	2.321636695e-01	-5.645769131e-04	1.700020620e-11
-4.400000000e-03	2.321636751e-01	-5.622205743e-04	1.038023166e-11
-4.500000000e-03	2.321636807e-01	-5.598642354e-04	1.579697432e-11
-4.600000000e-03	2.321636862e-01	-5.575078962e-04	2.879372396e-11
-4.700000000e-03	2.321636916e-01	-5.551515568e-04	1.445890276e-11
-4.800000000e-03	2.321636969e-01	-5.527952172e-04	1.315801009e-11
-4.900000000e-03	2.321637021e-01	-5.504388775e-04	8.832958771e-12
-5.000000000e-03	2.321637073e-01	-5.480825375e-04	1.611716868e-11
-5.100000000e-03	2.321637124e-01	-5.457261974e-04	1.350414322e-11
-5.200000000e-03	2.321637175e-01	-5.433698570e-04	3.625295881e-11
-5.300000000e-03	2.321637225e-01	-5.410135166e-04	1.311453481e-11
-5.400000000e-03	2.321637274e-01	-5.386571759e-04	1.873104906e-11
-5.500000000e-03	2.321637322e-01	-5.363008351e-04	1.127972184e-11
-5.600000000e-03	2.321637370e-01	-5.339444941e-04	9.269672425e-12
-5.700000000e-03	2.321637416e-01	-5.315881529e-04	4.927407651e-12
-5.800000000e-03	2.321637463e-01	-5.292318116e-04	6.404408941e-12
-5.900000000e-03	2.321637508e-01	-5.268754701e-04	2.675240502e-11
-6.000000000e-03	2.321637553e-01	-5.245191285e-04	4.437648367e-12
-6.100000000e-03	2.321637597e-01	-5.221627867e-04	1.082160641e-11
-6.200000000e-03	2.321637640e-01	-5.198064448e-04	3.023694720e-11
-6.300000000e-03	2.321637682e-01	-5.174501027e-04	1.798101840e-11
-6.400000000e-03	2.321637724e-01	-5.150937605e-04	6.177062428e-12
-6.500000000e-03	2.321637765e-01	-5.127374182e-04	1.028563697e-11
-6.600000000e-03	2.321637806e-01	-5.103810757e-04	9.103471244e-12
-6.700000000e-03	2.321637845e-01	-5.080247332e-04	1.299124001e-11
-6.800000000e-03	2.321637884e-01	-5.056683904e-04	9.189727412e-12
-6.900000000e-03	2.321637923e-01	-5.033120476e-04	4.337945406e-11
-7.000000000e-03	2.321637960e-01	-5.009557047e-04	4.606403181e-12
-7.100000000e-03	2.321637997e-01	-4.985993616e-04	1.340067479e-11
-7.200000000e-03	2.321638033e-01	-4.962430185e-04	1.083591753e-11
-7.300000000e-03	2.321638068e-01	-4.938866752e-04	6.459897070e-11
-7.400000000e-03	2.321638103e-01	-4.915303319e-04	4.586261170e-11
-7.500000000e-03	2.321638137e-01	-4.891739884e-04	7.637575458e-11
-7.600000000e-03	2.321638170e-01	-4.868176449e-04	1.484378258e-11
-7.700000000e-03	2.321638203e-01	-4.844613012e-04	1.017092732e-11
-7.800000000e-03	2.321638235e-01	-4.821049575e-04	2.028487293e-11
-7.900000000e-03	2.321638266e-01	-4.797486137e-04	1.146080666e-11
-8.000000000e-03	2.321638296e-01	-4.773922698e-04	1.459549461e-11
-8.100000000e-03	2.321638326e-01	-4.750359258e-04	7.641239413e-12
-8.200000000e-03	2.321638355e-01	-4.726795818e-04	1.422053537e-11
-8.300000000e-03	2.321638383e-01	-4.703232377e-04	1.714434174e-10
-8.400000000e-03	2.321638410e-01	-4.679668935e-04	7.567729711e-12
-8.500000000e-03	2.321638437e-01	-4.656105493e-04	8.856110549e-12
-8.600000000e-03	2.321638463e-01	-4.632542050e-04	6.031993887e-12
-8.700000000e-03	2.321638489e-01	-4.608978607e-04	3.000211634e-11
-8.800000000e-03	2.321638513e-01	-4.585415163e-04	7.446909044e-12
-8.900000000e-03	2.321638537e-01	-4.561851719e-04	1.337627642e-11
-9.000000000e-03	2.321638560e-01	-4.538288274e-04	1.495278639e-11
-9.100000000e-03	2.321638583e-01	-4.514724829e-04	1.144110784e-10
-9.200000000e-03	2.321638604e-01	-4.491161384e-04	9.891693840e-12
-9.300000000e-03	2.321638625e-01	-4.467597938e-04	1.043337906e-11
-9.400000000e-03	2.321638646e-01	-4.444034492e-04	1.406457107e-11
-9.500000000e-03	2.321638665e-01	-4.420471046e-04	1.952182481e-11
-9.600000000e-03	2.321638684e-01	-4.396907599e-04	1.109569032e-11
-9.700000000e-03	2.321638702e-01	-4.373344153e-04	7.287010351e-12
-9.800000000e-03	2.321638720e-01	-4.349780706e-04	8.498267194e-12
-9.900000000e-03	2.321638737e-01	-4.326217259e-04	3.614390306e-11
-1.000000000e-02	2.321638753e-01	-4.302653812e-04	1.701588682e-11
-1.010000000e-02	2.321638768e-01	-4.279090365e-04	1.712925284e-11
-1.020000000e-02	2.321638783e-01	-4.255526919e-04	1.658527939e-11
-1.030000000e-02	2.321638796e-01	-4.231963472e-04	3.066552545e-11
-1.040000000e-02	2.321638810e-01	-4.208400025e-04	9.925828317e-12
-1.050000000e-02	2.321638822e-01	-4.184836578e-04	1.606214869e-11
-1.060000000e-02	2.321638834e-01	-4.161273132e-04	2.561954189e-11
-1.070000000e-02	2.321638845e-01	-4.137709686e-04	6.233357020e-12
-1.080000000e-02	2.321638855e-01	-4.114146240e-04	8.727252828e-12
-1.090000000e-02	2.321638865e-01	-4.090582794e-04	7.062559508e-12
-1.100000000e-02	2.321638873e-01	-4.067019348e-04	1.751968590e-11
-1.110000000e-02	2.321638882e-01	-4.043455903e-04	5.396660205e-11
-1.120000000e-02	2.321638889e-01	-4.019892459e-04	9.480176676e-12
-1.130000000e-02	2.321638896e-01	-3.996329014e-04	5.709360291e-12
-1.140000000e-02	2.321638902e-01	-3.972765570e-04	2.200223902e-11
-1.150000000e-02	2.321638907e-01	-3.949202127e-04	4.426959613e-11
-1.160000000e-02	2.321638911e-01	-3.925638684e-04	1.549772530e-11
-1.170000000e-02	2.321638915e-01	-3.902075242e-04	1.580000285e-11
-1.180000000e-02	2.321638918e-01	-3.878511800e-04	1.141444006e-11
-1.190000000e-02	2.321638921e-01	-3.854948359e-04	2.032166789e-11
-1.200000000e-02	2.321638922e-01	-3.831384919e-04	1.579931991e-11
-1.210000000e-02	2.321638923e-01	-3.807821479e-04	1.215505824e-11
-1.220000000e-02	2.321638924e-01	-3.784258040e-04	1.908845711e-11
-1.230000000e-02	2.321638923e-01	-3.760694602e-04	1.596409874e-11
-1.240000000e-02	2.321638922e-01	-3.737131165e-04	7.884086624e-12
-1.250000000e-02	2.321638920e-01	-3.713567728e-04	6.846266438e-12
-1.260000000e-02	2.321638917e-01	-3.690004293e-04	1.333832300e-11
-1.270000000e-02	2.321638914e-01	-3.666440858e-04	7.885405213e-12
-1.280000000e-02	2.321638910e-01	-3.642877424e-04	1.741646717e-11
-1.290000000e-02	2.321638905e-01	-3.619313991e-04	4.283246248e-11
-1.300000000e-02	2.321638900e-01	-3.595750560e-04	1.729393870e-11
-1.310000000e-02	2.321638894e-01	-3.572187129e-04	3.626587535e-12
-1.320000000e-02	2.321638887e-01	-3.548623700e-04	2.884049356e-11
-1.330000000e-02	2.321638879e-01	-3.525060271e-04	1.559843046e-11
-1.340000000e-02	2.321638871e-01	-3.501496844e-04	2.596787765e-11
-1.350000000e-02	2.321638862e-01	-3.477933418e-04	1.421488209e-11
-1.360000000e-02	2.321638852e-01	-3.454369993e-04	2.331190904e-11
-1.370000000e-02	2.321638841e-01	-3.430806570e-04	8.528180998e-12
-1.380000000e-02	2.321638830e-01	-3.407243148e-04	1.116966011e-11
-1.390000000e-02	2.321638818e-01	-3.383679727e-04	3.265371122e-11
-1.400000000e-02	2.321638805e-01	-3.360116308e-04	1.255914721e-11
-1.410000000e-02	2.321638792e-01	-3.336552890e-04	2.106190440e-11
-1.420000000e-02	2.321638778e-01	-3.312989474e-04	1.244413801e-11
-1.430000000e-02	2.321638763e-01	-3.289426059e-04	9.780705911e-12
-1.440000000e-02	2.321638748e-01	-3.265862645e-04	1.107155606e-11
-1.450000000e-02	2.321638731e-01	-3.242299233e-04	1.848539165e-11
-1.460000000e-02	2.321638714e-01	-3.218735823e-04	7.974618893e-12
-1.470000000e-02	2.321638697e-01	-3.195172415e-04	8.410860643e-12
-1.480000000e-02	2.321638678e-01	-3.171609008e-04	1.637452620e-11
-1.490000000e-02	2.321638659e-01	-3.148045603e-04	3.140132298e-11
-1.500000000e-02	2.321638639e-01	-3.124482199e-04	6.064193834e-11
-1.510000000e-02	2.321638619e-01	-3.100918798e-04	8.290032365e-12
-1.520000000e-02	2.321638597e-01	-3.077355398e-04	8.758069090e-12
-1.530000000e-02	2.321638575e-01	-3.053792000e-04	5.710992109e-12
-1.540000000e-02	2.321638553e-01	-3.030228604e-04	1.305994955e-11
-1.550000000e-02	2.321638529e-01	-3.006665210e-04	2.043507730e-11
-1.560000000e-02	2.321638505e-01	-2.983101818e-04	4.582605133e-11
-1.570000000e-02	2.321638480e-01	-2.959538428e-04	2.951146054e-11
-1.580000000e-02	2.321638455e-01	-2.935975040e-04	2.115492940e-11
-1.590000000e-02	2.321638428e-01	-2.912411654e-04	1.116313777e-11
-1.600000000e-02	2.321638401e-01	-2.888848271e-04	6.399354961e-12
-1.610000000e-02	2.321638374e-01	-2.865284889e-04	1.473404687e-11
-1.620000000e-02	2.321638345e-01	-2.841721510e-04	1.079728884e-11
-1.630000000e-02	2.321638316e-01	-2.818158133e-04	5.718451443e-12
-1.640000000e-02	2.321638286e-01	-2.794594758e-04	1.468122112e-11
-1.650000000e-02	2.321638256e-01	-2.771031385e-04	5.505610835e-12
-1.660000000e-02	2.321638224e-01	-2.747468015e-04	1.547161979e-11
-1.670000000e-02	2.321638192e-01	-2.723904647e-04	6.006147246e-12
-1.680000000e-02	2.321638160e-01	-2.700341282e-04	1.888462882e-11
-1.690000000e-02	2.321638126e-01	-2.676777919e-04	2.141863821e-11
-1.700000000e-02	2.321638092e-01	-2.653214558e-04	1.845075407e-11
-1.710000000e-02	2.321638057e-01	-2.629651200e-04	1.696071951e-11
-1.720000000e-02	2.321638021e-01	-2.606087845e-04	2.935680678e-11
-1.730000000e-02	2.321637985e-01	-2.582524492e-04	2.683039942e-11
-1.740000000e-02	2.321637948e-01	-2.558961142e-04	1.238923049e-11
-1.750000000e-02	2.321637910e-01	-2.535397794e-04	1.261134416e-11
-1.760000000e-02	2.321637872e-01	-2.511834449e-04	2.185905152e-11
-1.770000000e-02	2.321637833e-01	-2.488271107e-04	9.886134652e-12
-1.780000000e-02	2.321637793e-01	-2.464707768e-04	3.428943196e-11
-1.790000000e-02	2.321637752e-01	-2.441144432e-04	1.448866203e-11
-1.800000000e-02	2.321637711e-01	-2.417581098e-04	1.182222485e-11
-1.810000000e-02	2.321637669e-01	-2.394017767e-04	1.382301847e-11
-1.820000000e-02	2.321637626e-01	-2.370454439e-04	9.197549414e-12
-1.830000000e-02	2.321637582e-01	-2.346891115e-04	2.750410859e-11
-1.840000000e-02	2.321637538e-01	-2.323327793e-04	3.354398610e-12
-1.850000000e-02	2.321637493e-01	-2.299764474e-04	7.821473975e-12
-1.860000000e-02	2.321637447e-01	-2.276201158e-04	1.518175400e-11
-1.870000000e-02	2.321637401e-01	-2.252637845e-04	4.048354952e-11
-1.880000000e-02	2.321637354e-01	-2.229074536e-04	2.306645340e-11
-1.890000000e-02	2.321637306e-01	-2.205511230e-04	1.884717195e-11
-1.900000000e-02	2.321637258e-01	-2.181947927e-04	2.331862929e-11
-1.910000000e-02	2.321637208e-01	-2.158384627e-04	1.276516697e-11
-1.920000000e-02	2.321637159e-01	-2.134821330e-04	5.253142576e-11
-1.930000000e-02	2.321637108e-01	-2.111258037e-04	7.232378661e-11
-1.940000000e-02	2.321637056e-01	-2.087694747e-04	1.097019477e-11
-1.950000000e-02	2.321637004e-01	-2.064131461e-04	1.820948862e-11
-1.960000000e-02	2.321636952e-01	-2.040568178e-04	1.237871181e-11
-1.970000000e-02	2.321636898e-01	-2.017004898e-04	1.366027926e-11
-1.980000000e-02	2.321636844e-01	-1.993441622e-04	9.262017584e-12
-1.990000000e-02	2.321636789e-01	-1.969878349e-04	1.530109758e-11
-2.000000000e-02	2.321636733e-01	-1.946315080e-04	8.451773839e-12
-2.010000000e-02	2.321636677e-01	-1.922751815e-04	1.582713704e-11
-2.020000000e-02	2.321636620e-01	-1.899188553e-04	2.519600686e-11
-2.030000000e-02	2.321636562e-01	-1.875625295e-04	5.569956987e-11
-2.040000000e-02	2.321636503e-01	-1.852062041e-04	5.624325400e-12
-2.050000000e-02	2.321636444e-01	-1.828498791e-04	8.531015912e-12
-2.060000000e-02	2.321636384e-01	-1.804935544e-04	1.384372153e-11
-2.070000000e-02	2.321636323e-01	-1.781372301e-04	8.857100987e-12
-2.080000000e-02	2.321636262e-01	-1.757809062e-04	2.474332609e-11
-2.090000000e-02	2.321636200e-01	-1.734245827e-04	9.487546402e-12
-2.100000000e-02	2.321636137e-01	-1.710682596e-04	8.756320030e-12
-2.110000000e-02	2.321636073e-01	-1.687119369e-04	4.663850491e-11
-2.120000000e-02	2.321636009e-01	-1.663556145e-04	4.678742568e-11
-2.130000000e-02	2.321635944e-01	-1.639992926e-04	1.097015218e-11
-2.140000000e-02	2.321635878e-01	-1.616429711e-04	1.473948697e-11
-2.150000000e-02	2.321635812e-01	-1.592866500e-04	1.313182522e-11
-2.160000000e-02	2.321635744e-01	-1.569303294e-04	8.947694477e-12
-2.170000000e-02	2.321635677e-01	-1.545740091e-04	1.683613935e-11
-2.180000000e-02	2.321635608e-01	-1.522176893e-04	4.468967641e-11
-2.190000000e-02	2.321635539e-01	-1.498613699e-04	1.199190468e-11
-2.200000000e-02	2.321635469e-01	-1.475050509e-04	8.131707081e-12
-2.210000000e-02	2.321635398e-01	-1.451487324e-04	2.387216201e-11
-2.220000000e-02	2.321635326e-01	-1.427924143e-04	2.152702703e-11
-2.230000000e-02	2.321635254e-01	-1.404360966e-04	9.837389305e-12
-2.240000000e-02	2.321635181e-01	-1.380797794e-04	4.282314234e-11
-2.250000000e-02	2.321635108e-01	-1.357234626e-04	2.195941177e-11
-2.260000000e-02	2.321635033e-01	-1.333671463e-04	1.452735835e-11
-2.270000000e-02	2.321634958e-01	-1.310108305e-04	6.687585947e-12
-2.280000000e-02	2.321634883e-01	-1.286545151e-04	9.059685588e-11
-2.290000000e-02	2.321634806e-01	-1.262982001e-04	2.026705795e-11
-2.300000000e-02	2.321634729e-01	-1.239418857e-04	1.057614489e-11
-2.310000000e-02	2.321634651e-01	-1.215855717e-04	1.298395940e-11
-2.320000000e-02	2.321634572e-01	-1.192292581e-04	8.205869326e-12
-2.330000000e-02	2.321634493e-01	-1.168729451e-04	8.933373397e-12
-2.340000000e-02	2.321634413e-01	-1.145166325e-04	1.897312383e-11
-2.350000000e-02	2.321634332e-01	-1.121603205e-04	7.439696300e-11
-2.360000000e-02	2.321634251e-01	-1.098040089e-04	1.267750111e-11
-2.370000000e-02	2.321634168e-01	-1.074476978e-04	1.054674778e-11
-2.380000000e-02	2.321634085e-01	-1.050913872e-04	2.241336076e-11
-2.390000000e-02	2.321634002e-01	-1.027350771e-04	7.857883958e-12
-2.400000000e-02	2.321633917e-01	-1.003787675e-04	1.659670523e-11
-2.410000000e-02	2.321633832e-01	-9.802245838e-05	6.504239330e-12
-2.420000000e-02	2.321633746e-01	-9.566614980e-05	1.216849758e-11
-2.430000000e-02	2.321633660e-01	-9.330984173e-05	1.215110161e-11
-2.440000000e-02	2.321633573e-01	-9.095353418e-05	2.097636844e-11
-2.450000000e-02	2.321633485e-01	-8.859722716e-05	1.996053315e-11
-2.460000000e-02	2.321633396e-01	-8.624092066e-05	2.200921338e-11
-2.470000000e-02	2.321633307e-01	-8.388461468e-05	1.309191096e-11
-2.480000000e-02	2.321633217e-01	-8.152830924e-05	2.409751461e-11
-2.490000000e-02	2.321633126e-01	-7.917200434e-05	3.250613074e-11
-2.500000000e-02	2.321633034e-01	-7.681569997e-05	1.384527199e-11
-2.510000000e-02	2.321632942e-01	-7.445939615e-05	8.994918332e-12
-2.520000000e-02	2.321632849e-01	-7.210309288e-05	8.733279029e-12
-2.530000000e-02	2.321632755e-01	-6.974679015e-05	6.113799582e-11
-2.540000000e-02	2.321632661e-01	-6.739048798e-05	9.501350049e-12
-2.550000000e-02	2.321632566e-01	-6.503418637e-05	6.027787166e-12
-2.560000000e-02	2.321632470e-01	-6.267788532e-05	8.053885913e-12
-2.570000000e-02	2.321632373e-01	-6.032158484e-05	9.438568223e-12
-2.580000000e-02	2.321632276e-01	-5.796528492e-05	1.311879513e-11
-2.590000000e-02	2.321632178e-01	-5.560898558e-05	1.972976495e-11
-2.600000000e-02	2.321632079e-01	-5.325268681e-05	1.268785764e-11
-2.610000000e-02	2.321631980e-01	-5.089638862e-05	5.932593917e-11
-2.620000000e-02	2.321631880e-01	-4.854009102e-05	7.443689504e-12
-2.630000000e-02	2.321631779e-01	-4.618379400e-05	1.897069748e-11
-2.640000000e-02	2.321631677e-01	-4.382749757e-05	1.882203823e-11
-2.650000000e-02	2.321631575e-01	-4.147120174e-05	1.659082344e-11
-2.660000000e-02	2.321631472e-01	-3.911490650e-05	1.275994296e-11
-2.670000000e-02	2.321631368e-01	-3.675861187e-05	5.850211147e-12
-2.680000000e-02	2.321631264e-01	-3.440231784e-05	1.367032963e-11
-2.690000000e-02	2.321631158e-01	-3.204602442e-05	1.255186824e-11
-2.700000000e-02	2.321631053e-01	-2.968973161e-05	1.347931337e-11
-2.710000000e-02	2.321630946e-01	-2.733343942e-05	1.273917894e-11
-2.720000000e-02	2.321630839e-01	-2.497714784e-05	1.233977473e-11
-2.730000000e-02	2.321630731e-01	-2.262085689e-05	1.396636878e-11
-2.740000000e-02	2.321630622e-01	-2.026456657e-05	1.377711063e-11
-2.750000000e-02	2.321630512e-01	-1.790827688e-05	4.357223059e-11
-2.760000000e-02	2.321630402e-01	-1.555198782e-05	3.833485928e-12
-2.770000000e-02	2.321630291e-01	-1.319569940e-05	9.809509875e-12
-2.780000000e-02	2.321630180e-01	-1.083941162e-05	1.443635178e-11
-2.790000000e-02	2.321630067e-01	-8.483124491e-06	1.028441182e-11
-2.800000000e-02	2.321629954e-01	-6.126838007e-06	2.798694832e-11
-2.810000000e-02	2.321629841e-01	-3.770552174e-06	9.643504425e-12
-2.820000000e-02	2.321629726e-01	-1.414266998e-06	1.573318535e-11
-2.830000000e-02	2.321629611e-01	9.420175181e-07	1.252463523e-11
-2.840000000e-02	2.321629495e-01	3.298301372e-06	2.378622097e-11
-2.850000000e-02	2.321629378e-01	5.654584559e-06	4.485934602e-11
-2.860000000e-02	2.321629261e-01	8.010867074e-06	1.696939647e-11
-2.870000000e-02	2.321629143e-01	1.036714892e-05	1.986022604e-11
-2.880000000e-02	2.321629024e-01	1.272343008e-05	1.863378584e-11
-2.890000000e-02	2.321628904e-01	1.507971056e-05	7.299253961e-12
-2.900000000e-02	2.321628784e-01	1.743599036e-05	1.674026296e-11
-2.910000000e-02	2.321628663e-01	1.979226947e-05	1.388055749e-11
-2.920000000e-02	2.321628542e-01	2.214854788e-05	1.273528583e-11
-2.930000000e-02	2.321628419e-01	2.450482561e-05	6.766446176e-12
-2.940000000e-02	2.321628296e-01	2.686110263e-05	1.822970685e-11
-2.950000000e-02	2.321628172e-01	2.921737894e-05	1.985625387e-11
-2.960000000e-02	2.321628048e-01	3.157365456e-05	1.778881516e-11
-2.970000000e-02	2.321627923e-01	3.392992945e-05	1.518933522e-11
-2.980000000e-02	2.321627797e-01	3.628620364e-05	9.824316929e-12
-2.990000000e-02	2.321627670e-01	3.864247711e-05	1.160029482e-11
-3.000000000e-02	2.321627543e-01	4.099874986e-05	2.075904442e-11
