# Im(epsi1)     Re(omega/c)      Im(omega/c)      Eq(det).Opt det CON kz, R=0.5 \mum, mu_c=0.3, Re(epsi1)=3.90solve_det_conkz_vs_kz.py
0.000000000e+00	2.321616144e-01	-6.658927663e-04	2.926949148e-11
-1.000000000e-04	2.321616231e-01	-6.635364524e-04	6.595389756e-12
-2.000000000e-04	2.321616318e-01	-6.611801381e-04	1.571888097e-11
-3.000000000e-04	2.321616403e-01	-6.588238235e-04	5.676862102e-12
-4.000000000e-04	2.321616488e-01	-6.564675085e-04	2.331035477e-11
-5.000000000e-04	2.321616572e-01	-6.541111932e-04	1.287644687e-11
-6.000000000e-04	2.321616656e-01	-6.517548775e-04	3.355135741e-11
-7.000000000e-04	2.321616738e-01	-6.493985614e-04	2.674078607e-11
-8.000000000e-04	2.321616820e-01	-6.470422451e-04	9.605488457e-12
-9.000000000e-04	2.321616902e-01	-6.446859284e-04	1.415933207e-11
-1.000000000e-03	2.321616982e-01	-6.423296113e-04	1.305753328e-11
-1.100000000e-03	2.321617062e-01	-6.399732940e-04	1.008471366e-11
-1.200000000e-03	2.321617141e-01	-6.376169763e-04	6.676929918e-12
-1.300000000e-03	2.321617220e-01	-6.352606583e-04	4.584004442e-11
-1.400000000e-03	2.321617297e-01	-6.329043399e-04	2.198866944e-11
-1.500000000e-03	2.321617374e-01	-6.305480213e-04	1.956926037e-11
-1.600000000e-03	2.321617451e-01	-6.281917023e-04	6.144100406e-12
-1.700000000e-03	2.321617526e-01	-6.258353831e-04	1.712982700e-11
-1.800000000e-03	2.321617601e-01	-6.234790635e-04	6.737218051e-12
-1.900000000e-03	2.321617675e-01	-6.211227436e-04	7.874942312e-12
-2.000000000e-03	2.321617748e-01	-6.187664235e-04	1.304034424e-11
-2.100000000e-03	2.321617821e-01	-6.164101030e-04	8.662982689e-12
-2.200000000e-03	2.321617893e-01	-6.140537823e-04	2.895706428e-11
-2.300000000e-03	2.321617964e-01	-6.116974613e-04	1.301881804e-11
-2.400000000e-03	2.321618035e-01	-6.093411399e-04	2.008577004e-11
-2.500000000e-03	2.321618105e-01	-6.069848183e-04	1.480278824e-11
-2.600000000e-03	2.321618174e-01	-6.046284965e-04	4.380496074e-11
-2.700000000e-03	2.321618242e-01	-6.022721743e-04	3.921160474e-12
-2.800000000e-03	2.321618310e-01	-5.999158519e-04	4.625487819e-12
-2.900000000e-03	2.321618377e-01	-5.975595293e-04	1.317739758e-11
-3.000000000e-03	2.321618443e-01	-5.952032063e-04	3.057147382e-11
-3.100000000e-03	2.321618508e-01	-5.928468832e-04	2.859438894e-11
-3.200000000e-03	2.321618573e-01	-5.904905597e-04	1.323023457e-11
-3.300000000e-03	2.321618637e-01	-5.881342360e-04	1.752355228e-11
-3.400000000e-03	2.321618700e-01	-5.857779121e-04	1.945709177e-11
-3.500000000e-03	2.321618763e-01	-5.834215879e-04	2.034372475e-11
-3.600000000e-03	2.321618825e-01	-5.810652635e-04	1.171966713e-11
-3.700000000e-03	2.321618886e-01	-5.787089389e-04	2.690537808e-11
-3.800000000e-03	2.321618947e-01	-5.763526140e-04	9.138651826e-12
-3.900000000e-03	2.321619006e-01	-5.739962889e-04	1.117694152e-11
-4.000000000e-03	2.321619065e-01	-5.716399635e-04	3.904199192e-11
-4.100000000e-03	2.321619124e-01	-5.692836380e-04	4.211690306e-11
-4.200000000e-03	2.321619181e-01	-5.669273122e-04	1.324125281e-11
-4.300000000e-03	2.321619238e-01	-5.645709863e-04	2.322261963e-11
-4.400000000e-03	2.321619294e-01	-5.622146601e-04	1.680854058e-11
-4.500000000e-03	2.321619350e-01	-5.598583337e-04	1.482102537e-11
-4.600000000e-03	2.321619405e-01	-5.575020071e-04	5.069740321e-12
-4.700000000e-03	2.321619459e-01	-5.551456803e-04	6.981981268e-12
-4.800000000e-03	2.321619512e-01	-5.527893533e-04	1.180949943e-11
-4.900000000e-03	2.321619565e-01	-5.504330261e-04	1.581200767e-11
-5.000000000e-03	2.321619616e-01	-5.480766987e-04	3.357916712e-11
-5.100000000e-03	2.321619668e-01	-5.457203712e-04	1.166453545e-11
-5.200000000e-03	2.321619718e-01	-5.433640435e-04	1.178550647e-11
-5.300000000e-03	2.321619768e-01	-5.410077156e-04	1.096302649e-11
-5.400000000e-03	2.321619817e-01	-5.386513875e-04	7.903323391e-12
-5.500000000e-03	2.321619865e-01	-5.362950592e-04	5.094911607e-11
-5.600000000e-03	2.321619913e-01	-5.339387308e-04	9.151990889e-12
-5.700000000e-03	2.321619959e-01	-5.315824022e-04	1.640915133e-11
-5.800000000e-03	2.321620006e-01	-5.292260735e-04	1.360860633e-11
-5.900000000e-03	2.321620051e-01	-5.268697446e-04	1.226950669e-11
-6.000000000e-03	2.321620096e-01	-5.245134156e-04	1.461583226e-11
-6.100000000e-03	2.321620140e-01	-5.221570864e-04	1.197343085e-11
-6.200000000e-03	2.321620183e-01	-5.198007570e-04	6.356646012e-11
-6.300000000e-03	2.321620226e-01	-5.174444276e-04	1.923744190e-11
-6.400000000e-03	2.321620267e-01	-5.150880980e-04	1.139635506e-11
-6.500000000e-03	2.321620308e-01	-5.127317682e-04	9.434847445e-12
-6.600000000e-03	2.321620349e-01	-5.103754383e-04	7.954563530e-11
-6.700000000e-03	2.321620389e-01	-5.080191083e-04	1.309153696e-11
-6.800000000e-03	2.321620428e-01	-5.056627782e-04	1.401159191e-11
-6.900000000e-03	2.321620466e-01	-5.033064480e-04	1.058965312e-11
-7.000000000e-03	2.321620503e-01	-5.009501176e-04	9.375030070e-12
-7.100000000e-03	2.321620540e-01	-4.985937872e-04	7.776728684e-12
-7.200000000e-03	2.321620576e-01	-4.962374566e-04	1.525740640e-11
-7.300000000e-03	2.321620612e-01	-4.938811259e-04	2.174787914e-11
-7.400000000e-03	2.321620646e-01	-4.915247951e-04	1.057129216e-11
-7.500000000e-03	2.321620680e-01	-4.891684643e-04	2.570174724e-11
-7.600000000e-03	2.321620713e-01	-4.868121333e-04	2.636151528e-11
-7.700000000e-03	2.321620746e-01	-4.844558023e-04	2.153057595e-11
-7.800000000e-03	2.321620778e-01	-4.820994711e-04	2.898658118e-11
-7.900000000e-03	2.321620809e-01	-4.797431399e-04	1.350340439e-11
-8.000000000e-03	2.321620839e-01	-4.773868086e-04	1.053692889e-11
-8.100000000e-03	2.321620869e-01	-4.750304772e-04	1.154096073e-11
-8.200000000e-03	2.321620898e-01	-4.726741458e-04	1.142940412e-11
-8.300000000e-03	2.321620926e-01	-4.703178143e-04	3.200368947e-11
-8.400000000e-03	2.321620953e-01	-4.679614827e-04	2.087813524e-11
-8.500000000e-03	2.321620980e-01	-4.656051510e-04	1.455428147e-11
-8.600000000e-03	2.321621006e-01	-4.632488194e-04	8.043599506e-12
-8.700000000e-03	2.321621032e-01	-4.608924876e-04	2.778203786e-12
-8.800000000e-03	2.321621056e-01	-4.585361558e-04	1.265579457e-11
-8.900000000e-03	2.321621080e-01	-4.561798240e-04	7.814546548e-12
-9.000000000e-03	2.321621103e-01	-4.538234921e-04	2.997985569e-11
-9.100000000e-03	2.321621126e-01	-4.514671602e-04	5.797431391e-12
-9.200000000e-03	2.321621148e-01	-4.491108282e-04	1.219445812e-11
-9.300000000e-03	2.321621169e-01	-4.467544962e-04	7.418329773e-11
-9.400000000e-03	2.321621189e-01	-4.443981642e-04	9.495916919e-12
-9.500000000e-03	2.321621208e-01	-4.420418322e-04	9.388882163e-12
-9.600000000e-03	2.321621227e-01	-4.396855001e-04	3.654195134e-12
-9.700000000e-03	2.321621246e-01	-4.373291680e-04	7.119456368e-12
-9.800000000e-03	2.321621263e-01	-4.349728359e-04	2.408478683e-11
-9.900000000e-03	2.321621280e-01	-4.326165038e-04	4.811707896e-11
-1.000000000e-02	2.321621296e-01	-4.302601717e-04	1.113355532e-11
-1.010000000e-02	2.321621311e-01	-4.279038396e-04	9.518035773e-12
-1.020000000e-02	2.321621326e-01	-4.255475075e-04	5.093248706e-12
-1.030000000e-02	2.321621339e-01	-4.231911754e-04	1.067151523e-11
-1.040000000e-02	2.321621353e-01	-4.208348433e-04	1.598673211e-11
-1.050000000e-02	2.321621365e-01	-4.184785113e-04	1.477460885e-11
-1.060000000e-02	2.321621377e-01	-4.161221792e-04	1.572139807e-11
-1.070000000e-02	2.321621388e-01	-4.137658472e-04	1.645946194e-11
-1.080000000e-02	2.321621398e-01	-4.114095152e-04	2.416439842e-11
-1.090000000e-02	2.321621408e-01	-4.090531832e-04	9.963946321e-12
-1.100000000e-02	2.321621416e-01	-4.066968512e-04	9.148323263e-12
-1.110000000e-02	2.321621425e-01	-4.043405193e-04	5.075101834e-11
-1.120000000e-02	2.321621432e-01	-4.019841874e-04	1.559399102e-11
-1.130000000e-02	2.321621439e-01	-3.996278555e-04	1.002214869e-11
-1.140000000e-02	2.321621445e-01	-3.972715237e-04	1.187633520e-11
-1.150000000e-02	2.321621450e-01	-3.949151920e-04	1.277601228e-11
-1.160000000e-02	2.321621454e-01	-3.925588603e-04	9.631822176e-12
-1.170000000e-02	2.321621458e-01	-3.902025286e-04	3.361310167e-11
-1.180000000e-02	2.321621461e-01	-3.878461971e-04	1.145255169e-11
-1.190000000e-02	2.321621464e-01	-3.854898655e-04	1.244859805e-11
-1.200000000e-02	2.321621465e-01	-3.831335341e-04	1.957374017e-11
-1.210000000e-02	2.321621466e-01	-3.807772027e-04	8.435130424e-12
-1.220000000e-02	2.321621467e-01	-3.784208714e-04	1.728160044e-11
-1.230000000e-02	2.321621466e-01	-3.760645402e-04	3.088925088e-11
-1.240000000e-02	2.321621465e-01	-3.737082090e-04	5.049576385e-12
-1.250000000e-02	2.321621463e-01	-3.713518780e-04	1.131740697e-11
-1.260000000e-02	2.321621460e-01	-3.689955470e-04	1.685630918e-11
-1.270000000e-02	2.321621457e-01	-3.666392161e-04	1.166921949e-11
-1.280000000e-02	2.321621453e-01	-3.642828853e-04	5.288349243e-11
-1.290000000e-02	2.321621448e-01	-3.619265546e-04	1.544966450e-11
-1.300000000e-02	2.321621443e-01	-3.595702241e-04	1.589919121e-11
-1.310000000e-02	2.321621437e-01	-3.572138936e-04	3.686322204e-11
-1.320000000e-02	2.321621430e-01	-3.548575632e-04	7.094227021e-12
-1.330000000e-02	2.321621422e-01	-3.525012330e-04	1.001434624e-11
-1.340000000e-02	2.321621414e-01	-3.501449028e-04	2.662858503e-11
-1.350000000e-02	2.321621405e-01	-3.477885728e-04	7.479956766e-12
-1.360000000e-02	2.321621395e-01	-3.454322429e-04	2.639391273e-11
-1.370000000e-02	2.321621384e-01	-3.430759132e-04	5.492842894e-12
-1.380000000e-02	2.321621373e-01	-3.407195836e-04	7.139011335e-12
-1.390000000e-02	2.321621361e-01	-3.383632541e-04	1.543555057e-11
-1.400000000e-02	2.321621348e-01	-3.360069247e-04	4.258129878e-11
-1.410000000e-02	2.321621335e-01	-3.336505955e-04	8.413113263e-12
-1.420000000e-02	2.321621321e-01	-3.312942665e-04	1.164413498e-11
-1.430000000e-02	2.321621306e-01	-3.289379375e-04	1.540328149e-11
-1.440000000e-02	2.321621291e-01	-3.265816088e-04	1.522961660e-11
-1.450000000e-02	2.321621274e-01	-3.242252802e-04	7.565249114e-12
-1.460000000e-02	2.321621257e-01	-3.218689518e-04	1.416715617e-11
-1.470000000e-02	2.321621240e-01	-3.195126235e-04	9.281138228e-12
-1.480000000e-02	2.321621221e-01	-3.171562954e-04	6.715091591e-12
-1.490000000e-02	2.321621202e-01	-3.147999675e-04	1.186380138e-11
-1.500000000e-02	2.321621182e-01	-3.124436397e-04	1.695736059e-11
-1.510000000e-02	2.321621162e-01	-3.100873122e-04	1.962669803e-11
-1.520000000e-02	2.321621140e-01	-3.077309848e-04	4.060130686e-11
-1.530000000e-02	2.321621118e-01	-3.053746576e-04	2.603094900e-11
-1.540000000e-02	2.321621096e-01	-3.030183306e-04	8.146113571e-12
-1.550000000e-02	2.321621072e-01	-3.006620037e-04	6.914169558e-12
-1.560000000e-02	2.321621048e-01	-2.983056771e-04	5.818599794e-12
-1.570000000e-02	2.321621023e-01	-2.959493507e-04	1.028178513e-11
-1.580000000e-02	2.321620998e-01	-2.935930245e-04	1.167652070e-11
-1.590000000e-02	2.321620971e-01	-2.912366985e-04	1.227160499e-11
-1.600000000e-02	2.321620944e-01	-2.888803727e-04	1.434728494e-11
-1.610000000e-02	2.321620917e-01	-2.865240471e-04	4.426291985e-11
-1.620000000e-02	2.321620888e-01	-2.841677218e-04	2.874152331e-11
-1.630000000e-02	2.321620859e-01	-2.818113966e-04	9.660852317e-12
-1.640000000e-02	2.321620829e-01	-2.794550717e-04	1.023902999e-11
-1.650000000e-02	2.321620799e-01	-2.770987471e-04	7.319359054e-12
-1.660000000e-02	2.321620767e-01	-2.747424226e-04	1.681611193e-11
-1.670000000e-02	2.321620735e-01	-2.723860984e-04	1.170005315e-11
-1.680000000e-02	2.321620703e-01	-2.700297745e-04	1.410857117e-11
-1.690000000e-02	2.321620669e-01	-2.676734508e-04	1.689233750e-11
-1.700000000e-02	2.321620635e-01	-2.653171273e-04	1.487955923e-11
-1.710000000e-02	2.321620600e-01	-2.629608041e-04	1.245636077e-11
-1.720000000e-02	2.321620564e-01	-2.606044811e-04	1.363684617e-11
-1.730000000e-02	2.321620528e-01	-2.582481584e-04	1.301706797e-11
-1.740000000e-02	2.321620491e-01	-2.558918360e-04	1.091418756e-11
-1.750000000e-02	2.321620453e-01	-2.535355138e-04	8.741697464e-12
-1.760000000e-02	2.321620415e-01	-2.511791919e-04	2.258971791e-11
-1.770000000e-02	2.321620376e-01	-2.488228703e-04	1.067087515e-11
-1.780000000e-02	2.321620336e-01	-2.464665490e-04	1.035464111e-11
-1.790000000e-02	2.321620295e-01	-2.441102279e-04	1.190796160e-11
-1.800000000e-02	2.321620254e-01	-2.417539071e-04	7.084917553e-12
-1.810000000e-02	2.321620212e-01	-2.393975867e-04	9.786027811e-12
-1.820000000e-02	2.321620169e-01	-2.370412665e-04	2.582305959e-11
-1.830000000e-02	2.321620125e-01	-2.346849466e-04	8.953847637e-12
-1.840000000e-02	2.321620081e-01	-2.323286270e-04	2.082076129e-11
-1.850000000e-02	2.321620036e-01	-2.299723077e-04	1.127357688e-11
-1.860000000e-02	2.321619990e-01	-2.276159887e-04	8.440646051e-12
-1.870000000e-02	2.321619944e-01	-2.252596700e-04	1.592605209e-11
-1.880000000e-02	2.321619897e-01	-2.229033516e-04	6.720252189e-12
-1.890000000e-02	2.321619849e-01	-2.205470336e-04	2.032616305e-11
-1.900000000e-02	2.321619801e-01	-2.181907159e-04	1.258972053e-11
-1.910000000e-02	2.321619751e-01	-2.158343985e-04	1.134712777e-11
-1.920000000e-02	2.321619701e-01	-2.134780814e-04	7.630905923e-12
-1.930000000e-02	2.321619651e-01	-2.111217647e-04	3.258146049e-11
-1.940000000e-02	2.321619599e-01	-2.087654483e-04	1.002818840e-11
-1.950000000e-02	2.321619547e-01	-2.064091322e-04	7.423903818e-12
-1.960000000e-02	2.321619495e-01	-2.040528165e-04	7.015975695e-12
-1.970000000e-02	2.321619441e-01	-2.016965011e-04	2.249515403e-11
-1.980000000e-02	2.321619387e-01	-1.993401861e-04	1.526424745e-11
-1.990000000e-02	2.321619332e-01	-1.969838714e-04	9.875444245e-12
-2.000000000e-02	2.321619276e-01	-1.946275571e-04	8.626345899e-12
-2.010000000e-02	2.321619220e-01	-1.922712432e-04	1.365545312e-11
-2.020000000e-02	2.321619162e-01	-1.899149296e-04	5.183046095e-11
-2.030000000e-02	2.321619105e-01	-1.875586164e-04	1.228111305e-11
-2.040000000e-02	2.321619046e-01	-1.852023035e-04	1.564853871e-11
-2.050000000e-02	2.321618987e-01	-1.828459911e-04	1.299157138e-11
-2.060000000e-02	2.321618927e-01	-1.804896790e-04	7.378381794e-12
-2.070000000e-02	2.321618866e-01	-1.781333673e-04	1.470462185e-11
-2.080000000e-02	2.321618805e-01	-1.757770560e-04	7.365172640e-12
-2.090000000e-02	2.321618743e-01	-1.734207450e-04	1.442236709e-11
-2.100000000e-02	2.321618680e-01	-1.710644345e-04	1.454952782e-11
-2.110000000e-02	2.321618616e-01	-1.687081244e-04	6.186071302e-12
-2.120000000e-02	2.321618552e-01	-1.663518146e-04	7.202683854e-12
-2.130000000e-02	2.321618487e-01	-1.639955053e-04	7.478506855e-12
-2.140000000e-02	2.321618421e-01	-1.616391964e-04	9.429559014e-11
-2.150000000e-02	2.321618355e-01	-1.592828879e-04	3.510190343e-11
-2.160000000e-02	2.321618287e-01	-1.569265798e-04	8.867818215e-12
-2.170000000e-02	2.321618220e-01	-1.545702721e-04	1.248766708e-11
-2.180000000e-02	2.321618151e-01	-1.522139649e-04	3.984408295e-11
-2.190000000e-02	2.321618082e-01	-1.498576581e-04	1.284831853e-11
-2.200000000e-02	2.321618012e-01	-1.475013517e-04	1.302610682e-11
-2.210000000e-02	2.321617941e-01	-1.451450457e-04	1.919411561e-11
-2.220000000e-02	2.321617869e-01	-1.427887402e-04	9.056110814e-12
-2.230000000e-02	2.321617797e-01	-1.404324352e-04	1.017355303e-11
-2.240000000e-02	2.321617724e-01	-1.380761305e-04	1.475534332e-11
-2.250000000e-02	2.321617651e-01	-1.357198263e-04	1.377652333e-11
-2.260000000e-02	2.321617576e-01	-1.333635226e-04	6.243196808e-12
-2.270000000e-02	2.321617501e-01	-1.310072193e-04	6.098133920e-12
-2.280000000e-02	2.321617425e-01	-1.286509165e-04	1.943800589e-11
-2.290000000e-02	2.321617349e-01	-1.262946142e-04	2.574032829e-11
-2.300000000e-02	2.321617272e-01	-1.239383123e-04	1.727468508e-11
-2.310000000e-02	2.321617194e-01	-1.215820109e-04	3.685148667e-11
-2.320000000e-02	2.321617115e-01	-1.192257100e-04	1.594089380e-11
-2.330000000e-02	2.321617036e-01	-1.168694095e-04	9.390420197e-12
-2.340000000e-02	2.321616956e-01	-1.145131095e-04	9.500870309e-12
-2.350000000e-02	2.321616875e-01	-1.121568100e-04	7.167716800e-12
-2.360000000e-02	2.321616793e-01	-1.098005110e-04	3.584272909e-11
-2.370000000e-02	2.321616711e-01	-1.074442125e-04	2.475719538e-11
-2.380000000e-02	2.321616628e-01	-1.050879145e-04	1.216776002e-11
-2.390000000e-02	2.321616545e-01	-1.027316170e-04	6.788280616e-11
-2.400000000e-02	2.321616460e-01	-1.003753200e-04	3.162558485e-11
-2.410000000e-02	2.321616375e-01	-9.801902347e-05	1.071857525e-11
-2.420000000e-02	2.321616289e-01	-9.566272747e-05	7.853862306e-12
-2.430000000e-02	2.321616203e-01	-9.330643199e-05	3.023864533e-11
-2.440000000e-02	2.321616116e-01	-9.095013703e-05	7.367769802e-12
-2.450000000e-02	2.321616028e-01	-8.859384259e-05	1.902279851e-11
-2.460000000e-02	2.321615939e-01	-8.623754868e-05	1.949099758e-11
-2.470000000e-02	2.321615850e-01	-8.388125529e-05	1.055086340e-11
-2.480000000e-02	2.321615759e-01	-8.152496244e-05	1.253930043e-11
-2.490000000e-02	2.321615669e-01	-7.916867012e-05	6.559133755e-11
-2.500000000e-02	2.321615577e-01	-7.681237834e-05	4.703712771e-12
-2.510000000e-02	2.321615485e-01	-7.445608710e-05	1.187699554e-11
-2.520000000e-02	2.321615392e-01	-7.209979641e-05	9.641499048e-12
-2.530000000e-02	2.321615298e-01	-6.974350627e-05	1.241770652e-10
-2.540000000e-02	2.321615204e-01	-6.738721669e-05	1.184130496e-11
-2.550000000e-02	2.321615109e-01	-6.503092767e-05	7.919430374e-12
-2.560000000e-02	2.321615013e-01	-6.267463920e-05	1.393085035e-11
-2.570000000e-02	2.321614916e-01	-6.031835130e-05	8.198592953e-12
-2.580000000e-02	2.321614819e-01	-5.796206397e-05	2.161487475e-11
-2.590000000e-02	2.321614721e-01	-5.560577721e-05	6.825753576e-11
-2.600000000e-02	2.321614622e-01	-5.324949103e-05	5.713957274e-12
-2.610000000e-02	2.321614523e-01	-5.089320543e-05	1.615100190e-11
-2.620000000e-02	2.321614423e-01	-4.853692041e-05	1.190030816e-11
-2.630000000e-02	2.321614322e-01	-4.618063598e-05	1.686207986e-11
-2.640000000e-02	2.321614220e-01	-4.382435214e-05	8.142484963e-12
-2.650000000e-02	2.321614118e-01	-4.146806889e-05	1.795070821e-11
-2.660000000e-02	2.321614015e-01	-3.911178624e-05	1.824512621e-11
-2.670000000e-02	2.321613911e-01	-3.675550419e-05	1.046492643e-11
-2.680000000e-02	2.321613807e-01	-3.439922275e-05	4.974829314e-12
-2.690000000e-02	2.321613701e-01	-3.204294191e-05	3.805488228e-11
-2.700000000e-02	2.321613596e-01	-2.968666169e-05	3.183268192e-11
-2.710000000e-02	2.321613489e-01	-2.733038209e-05	1.655137225e-11
-2.720000000e-02	2.321613382e-01	-2.497410310e-05	2.701774292e-11
-2.730000000e-02	2.321613274e-01	-2.261782474e-05	5.002522480e-11
-2.740000000e-02	2.321613165e-01	-2.026154700e-05	1.608781755e-11
-2.750000000e-02	2.321613055e-01	-1.790526989e-05	9.791341012e-12
-2.760000000e-02	2.321612945e-01	-1.554899342e-05	1.824253493e-11
-2.770000000e-02	2.321612834e-01	-1.319271759e-05	1.248161243e-11
-2.780000000e-02	2.321612723e-01	-1.083644240e-05	1.283834576e-11
-2.790000000e-02	2.321612610e-01	-8.480167850e-06	8.133114090e-12
-2.800000000e-02	2.321612497e-01	-6.123893951e-06	3.660953650e-11
-2.810000000e-02	2.321612383e-01	-3.767620705e-06	9.711305861e-12
-2.820000000e-02	2.321612269e-01	-1.411348114e-06	2.464688642e-11
-2.830000000e-02	2.321612154e-01	9.449238149e-07	2.879644776e-11
-2.840000000e-02	2.321612038e-01	3.301195083e-06	8.248579936e-12
-2.850000000e-02	2.321611921e-01	5.657465683e-06	1.064434661e-11
-2.860000000e-02	2.321611804e-01	8.013735614e-06	4.706320266e-11
-2.870000000e-02	2.321611686e-01	1.037000487e-05	4.844170332e-11
-2.880000000e-02	2.321611567e-01	1.272627345e-05	1.365783692e-11
-2.890000000e-02	2.321611447e-01	1.508254134e-05	1.155053917e-11
-2.900000000e-02	2.321611327e-01	1.743880855e-05	9.575840910e-12
-2.910000000e-02	2.321611206e-01	1.979507508e-05	1.295698241e-11
-2.920000000e-02	2.321611085e-01	2.215134091e-05	1.174305855e-11
-2.930000000e-02	2.321610962e-01	2.450760604e-05	4.446128019e-11
-2.940000000e-02	2.321610839e-01	2.686387048e-05	1.269914682e-11
-2.950000000e-02	2.321610715e-01	2.922013421e-05	1.677328522e-11
-2.960000000e-02	2.321610591e-01	3.157639723e-05	1.148986969e-11
-2.970000000e-02	2.321610465e-01	3.393265955e-05	1.292983619e-11
-2.980000000e-02	2.321610340e-01	3.628892115e-05	1.333121700e-11
-2.990000000e-02	2.321610213e-01	3.864518203e-05	1.023532020e-11
-3.000000000e-02	2.321610085e-01	4.100144219e-05	1.529001264e-11
