# Im(epsi1)     Re(omega/c)      Im(omega/c)      Eq(det).Opt det CON kz, R=0.5 \mum, mu_c=0.3, Re(epsi1)=3.90solve_det_conkz_vs_kz.py
0.000000000e+00	2.321401789e-01	-6.658133392e-04	1.625062518e-11
-1.000000000e-04	2.321401876e-01	-6.634571797e-04	1.033092953e-11
-2.000000000e-04	2.321401962e-01	-6.611010200e-04	5.258228522e-11
-3.000000000e-04	2.321402048e-01	-6.587448598e-04	1.482442825e-11
-4.000000000e-04	2.321402132e-01	-6.563886993e-04	9.316939390e-12
-5.000000000e-04	2.321402217e-01	-6.540325385e-04	9.223803363e-12
-6.000000000e-04	2.321402300e-01	-6.516763773e-04	8.852433378e-12
-7.000000000e-04	2.321402383e-01	-6.493202157e-04	1.331659423e-11
-8.000000000e-04	2.321402465e-01	-6.469640539e-04	1.421600602e-11
-9.000000000e-04	2.321402546e-01	-6.446078916e-04	3.008785952e-11
-1.000000000e-03	2.321402626e-01	-6.422517291e-04	1.877435076e-11
-1.100000000e-03	2.321402706e-01	-6.398955662e-04	1.599883748e-11
-1.200000000e-03	2.321402785e-01	-6.375394030e-04	1.026958935e-11
-1.300000000e-03	2.321402864e-01	-6.351832395e-04	8.256028176e-12
-1.400000000e-03	2.321402941e-01	-6.328270757e-04	1.320410322e-11
-1.500000000e-03	2.321403018e-01	-6.304709115e-04	1.112798756e-11
-1.600000000e-03	2.321403095e-01	-6.281147470e-04	1.498362172e-11
-1.700000000e-03	2.321403170e-01	-6.257585822e-04	8.739847590e-12
-1.800000000e-03	2.321403245e-01	-6.234024172e-04	8.936522635e-12
-1.900000000e-03	2.321403319e-01	-6.210462518e-04	1.034194503e-11
-2.000000000e-03	2.321403392e-01	-6.186900861e-04	4.719918005e-11
-2.100000000e-03	2.321403465e-01	-6.163339201e-04	2.240362811e-11
-2.200000000e-03	2.321403537e-01	-6.139777539e-04	9.318212964e-12
-2.300000000e-03	2.321403608e-01	-6.116215873e-04	9.791643172e-12
-2.400000000e-03	2.321403679e-01	-6.092654205e-04	1.471784882e-11
-2.500000000e-03	2.321403749e-01	-6.069092534e-04	1.354313341e-11
-2.600000000e-03	2.321403818e-01	-6.045530860e-04	1.032301550e-11
-2.700000000e-03	2.321403886e-01	-6.021969184e-04	1.315735739e-11
-2.800000000e-03	2.321403954e-01	-5.998407505e-04	1.068369132e-11
-2.900000000e-03	2.321404020e-01	-5.974845823e-04	8.213196875e-12
-3.000000000e-03	2.321404087e-01	-5.951284138e-04	8.007843869e-12
-3.100000000e-03	2.321404152e-01	-5.927722451e-04	3.760742130e-11
-3.200000000e-03	2.321404217e-01	-5.904160762e-04	1.141002150e-11
-3.300000000e-03	2.321404281e-01	-5.880599070e-04	8.374557119e-12
-3.400000000e-03	2.321404344e-01	-5.857037376e-04	8.721580703e-12
-3.500000000e-03	2.321404407e-01	-5.833475679e-04	1.133842032e-11
-3.600000000e-03	2.321404469e-01	-5.809913979e-04	4.092088675e-11
-3.700000000e-03	2.321404530e-01	-5.786352278e-04	7.902290121e-12
-3.800000000e-03	2.321404590e-01	-5.762790574e-04	1.119158615e-11
-3.900000000e-03	2.321404650e-01	-5.739228868e-04	9.780307211e-12
-4.000000000e-03	2.321404709e-01	-5.715667159e-04	7.707291712e-12
-4.100000000e-03	2.321404768e-01	-5.692105449e-04	1.019053353e-11
-4.200000000e-03	2.321404825e-01	-5.668543736e-04	1.098035649e-11
-4.300000000e-03	2.321404882e-01	-5.644982021e-04	6.919350545e-12
-4.400000000e-03	2.321404938e-01	-5.621420304e-04	1.082069416e-11
-4.500000000e-03	2.321404994e-01	-5.597858585e-04	3.052213004e-11
-4.600000000e-03	2.321405048e-01	-5.574296864e-04	3.332333082e-11
-4.700000000e-03	2.321405102e-01	-5.550735141e-04	8.655163567e-12
-4.800000000e-03	2.321405156e-01	-5.527173416e-04	1.336018701e-11
-4.900000000e-03	2.321405208e-01	-5.503611689e-04	8.382202926e-12
-5.000000000e-03	2.321405260e-01	-5.480049960e-04	5.998371733e-11
-5.100000000e-03	2.321405311e-01	-5.456488230e-04	1.463453139e-11
-5.200000000e-03	2.321405362e-01	-5.432926497e-04	1.275854291e-11
-5.300000000e-03	2.321405411e-01	-5.409364763e-04	1.169640705e-11
-5.400000000e-03	2.321405460e-01	-5.385803027e-04	6.727481236e-12
-5.500000000e-03	2.321405509e-01	-5.362241289e-04	2.130229630e-11
-5.600000000e-03	2.321405556e-01	-5.338679550e-04	1.258002244e-11
-5.700000000e-03	2.321405603e-01	-5.315117809e-04	5.923810287e-12
-5.800000000e-03	2.321405649e-01	-5.291556067e-04	2.319951772e-11
-5.900000000e-03	2.321405695e-01	-5.267994323e-04	9.770087874e-12
-6.000000000e-03	2.321405739e-01	-5.244432577e-04	5.350400860e-11
-6.100000000e-03	2.321405783e-01	-5.220870830e-04	1.136068354e-11
-6.200000000e-03	2.321405826e-01	-5.197309082e-04	7.597363809e-12
-6.300000000e-03	2.321405869e-01	-5.173747332e-04	1.422378828e-11
-6.400000000e-03	2.321405911e-01	-5.150185581e-04	4.058523018e-11
-6.500000000e-03	2.321405952e-01	-5.126623828e-04	1.724294809e-11
-6.600000000e-03	2.321405992e-01	-5.103062074e-04	3.944440736e-11
-6.700000000e-03	2.321406032e-01	-5.079500319e-04	1.648612176e-11
-6.800000000e-03	2.321406071e-01	-5.055938563e-04	7.775393971e-12
-6.900000000e-03	2.321406109e-01	-5.032376805e-04	5.993706553e-11
-7.000000000e-03	2.321406147e-01	-5.008815047e-04	1.503824300e-11
-7.100000000e-03	2.321406183e-01	-4.985253287e-04	1.330700464e-11
-7.200000000e-03	2.321406220e-01	-4.961691526e-04	3.794251136e-11
-7.300000000e-03	2.321406255e-01	-4.938129765e-04	1.127236077e-11
-7.400000000e-03	2.321406290e-01	-4.914568002e-04	1.832373909e-11
-7.500000000e-03	2.321406324e-01	-4.891006238e-04	2.294860206e-11
-7.600000000e-03	2.321406357e-01	-4.867444473e-04	9.714908201e-12
-7.700000000e-03	2.321406389e-01	-4.843882707e-04	9.194855140e-12
-7.800000000e-03	2.321406421e-01	-4.820320941e-04	4.932693247e-12
-7.900000000e-03	2.321406452e-01	-4.796759174e-04	1.115072647e-10
-8.000000000e-03	2.321406482e-01	-4.773197406e-04	7.660374379e-11
-8.100000000e-03	2.321406512e-01	-4.749635637e-04	8.686264486e-12
-8.200000000e-03	2.321406541e-01	-4.726073867e-04	1.377808066e-11
-8.300000000e-03	2.321406569e-01	-4.702512097e-04	1.059011806e-11
-8.400000000e-03	2.321406597e-01	-4.678950326e-04	1.501390502e-11
-8.500000000e-03	2.321406623e-01	-4.655388555e-04	3.554003124e-11
-8.600000000e-03	2.321406649e-01	-4.631826783e-04	1.228753929e-11
-8.700000000e-03	2.321406675e-01	-4.608265010e-04	1.916504488e-11
-8.800000000e-03	2.321406699e-01	-4.584703237e-04	6.096467836e-12
-8.900000000e-03	2.321406723e-01	-4.561141463e-04	1.228622026e-11
-9.000000000e-03	2.321406746e-01	-4.537579690e-04	6.989472556e-12
-9.100000000e-03	2.321406769e-01	-4.514017915e-04	7.969734317e-12
-9.200000000e-03	2.321406791e-01	-4.490456141e-04	8.264804430e-12
-9.300000000e-03	2.321406812e-01	-4.466894366e-04	1.247386294e-11
-9.400000000e-03	2.321406832e-01	-4.443332590e-04	1.781604176e-11
-9.500000000e-03	2.321406852e-01	-4.419770815e-04	1.292245436e-11
-9.600000000e-03	2.321406870e-01	-4.396209039e-04	1.576449275e-11
-9.700000000e-03	2.321406889e-01	-4.372647263e-04	8.596598470e-12
-9.800000000e-03	2.321406906e-01	-4.349085487e-04	1.787608345e-11
-9.900000000e-03	2.321406923e-01	-4.325523711e-04	1.651951444e-11
-1.000000000e-02	2.321406939e-01	-4.301961935e-04	1.118223440e-11
-1.010000000e-02	2.321406954e-01	-4.278400159e-04	2.248304636e-11
-1.020000000e-02	2.321406969e-01	-4.254838383e-04	2.330848562e-11
-1.030000000e-02	2.321406982e-01	-4.231276607e-04	1.560486773e-11
-1.040000000e-02	2.321406996e-01	-4.207714831e-04	3.381412820e-11
-1.050000000e-02	2.321407008e-01	-4.184153055e-04	8.761203583e-12
-1.060000000e-02	2.321407020e-01	-4.160591279e-04	1.578298413e-11
-1.070000000e-02	2.321407031e-01	-4.137029504e-04	2.271866529e-11
-1.080000000e-02	2.321407041e-01	-4.113467729e-04	1.785030228e-11
-1.090000000e-02	2.321407051e-01	-4.089905954e-04	1.351149477e-11
-1.100000000e-02	2.321407059e-01	-4.066344179e-04	1.064269645e-11
-1.110000000e-02	2.321407067e-01	-4.042782405e-04	7.483261056e-12
-1.120000000e-02	2.321407075e-01	-4.019220631e-04	1.301777436e-11
-1.130000000e-02	2.321407082e-01	-3.995658857e-04	2.436292105e-11
-1.140000000e-02	2.321407088e-01	-3.972097084e-04	8.768030066e-12
-1.150000000e-02	2.321407093e-01	-3.948535311e-04	1.291074056e-11
-1.160000000e-02	2.321407097e-01	-3.924973539e-04	2.381896585e-11
-1.170000000e-02	2.321407101e-01	-3.901411768e-04	1.705108982e-11
-1.180000000e-02	2.321407104e-01	-3.877849997e-04	2.021520541e-10
-1.190000000e-02	2.321407107e-01	-3.854288227e-04	1.880264364e-11
-1.200000000e-02	2.321407108e-01	-3.830726457e-04	6.563440030e-12
-1.210000000e-02	2.321407109e-01	-3.807164688e-04	2.600855741e-11
-1.220000000e-02	2.321407109e-01	-3.783602920e-04	8.961321984e-12
-1.230000000e-02	2.321407109e-01	-3.760041153e-04	1.161171234e-11
-1.240000000e-02	2.321407108e-01	-3.736479386e-04	2.114797353e-11
-1.250000000e-02	2.321407106e-01	-3.712917620e-04	1.713864630e-11
-1.260000000e-02	2.321407103e-01	-3.689355856e-04	1.014251916e-11
-1.270000000e-02	2.321407100e-01	-3.665794092e-04	1.433716984e-11
-1.280000000e-02	2.321407096e-01	-3.642232329e-04	7.196321692e-12
-1.290000000e-02	2.321407091e-01	-3.618670567e-04	9.268232656e-12
-1.300000000e-02	2.321407085e-01	-3.595108806e-04	2.286498498e-11
-1.310000000e-02	2.321407079e-01	-3.571547046e-04	3.451179256e-11
-1.320000000e-02	2.321407072e-01	-3.547985287e-04	7.440605918e-12
-1.330000000e-02	2.321407065e-01	-3.524423530e-04	1.674191338e-11
-1.340000000e-02	2.321407056e-01	-3.500861773e-04	9.328220073e-12
-1.350000000e-02	2.321407047e-01	-3.477300018e-04	9.672047237e-11
-1.360000000e-02	2.321407037e-01	-3.453738264e-04	5.465719875e-12
-1.370000000e-02	2.321407027e-01	-3.430176512e-04	2.323987064e-11
-1.380000000e-02	2.321407016e-01	-3.406614760e-04	1.043359600e-11
-1.390000000e-02	2.321407004e-01	-3.383053010e-04	1.199432670e-11
-1.400000000e-02	2.321406991e-01	-3.359491262e-04	1.076692093e-11
-1.410000000e-02	2.321406978e-01	-3.335929515e-04	1.981146467e-11
-1.420000000e-02	2.321406963e-01	-3.312367769e-04	1.110628753e-11
-1.430000000e-02	2.321406949e-01	-3.288806025e-04	8.823492717e-12
-1.440000000e-02	2.321406933e-01	-3.265244282e-04	6.506191176e-12
-1.450000000e-02	2.321406917e-01	-3.241682541e-04	6.091303172e-11
-1.460000000e-02	2.321406900e-01	-3.218120802e-04	1.129098081e-11
-1.470000000e-02	2.321406882e-01	-3.194559064e-04	8.469245332e-12
-1.480000000e-02	2.321406864e-01	-3.170997328e-04	1.087271783e-11
-1.490000000e-02	2.321406845e-01	-3.147435594e-04	2.012739366e-11
-1.500000000e-02	2.321406825e-01	-3.123873861e-04	8.468340989e-12
-1.510000000e-02	2.321406804e-01	-3.100312130e-04	1.633471940e-11
-1.520000000e-02	2.321406783e-01	-3.076750402e-04	1.766427760e-11
-1.530000000e-02	2.321406761e-01	-3.053188674e-04	1.140153095e-11
-1.540000000e-02	2.321406738e-01	-3.029626949e-04	1.982378519e-11
-1.550000000e-02	2.321406715e-01	-3.006065226e-04	1.171734001e-11
-1.560000000e-02	2.321406691e-01	-2.982503505e-04	9.904780307e-12
-1.570000000e-02	2.321406666e-01	-2.958941786e-04	6.615661248e-11
-1.580000000e-02	2.321406640e-01	-2.935380068e-04	6.581156692e-12
-1.590000000e-02	2.321406614e-01	-2.911818353e-04	3.597491374e-11
-1.600000000e-02	2.321406587e-01	-2.888256640e-04	5.247465329e-12
-1.610000000e-02	2.321406559e-01	-2.864694930e-04	9.629704779e-12
-1.620000000e-02	2.321406531e-01	-2.841133221e-04	1.043706090e-11
-1.630000000e-02	2.321406501e-01	-2.817571515e-04	2.226030422e-11
-1.640000000e-02	2.321406472e-01	-2.794009811e-04	9.251157846e-12
-1.650000000e-02	2.321406441e-01	-2.770448109e-04	1.176286597e-11
-1.660000000e-02	2.321406410e-01	-2.746886409e-04	1.455226664e-11
-1.670000000e-02	2.321406378e-01	-2.723324712e-04	8.949252222e-12
-1.680000000e-02	2.321406345e-01	-2.699763018e-04	1.769289557e-10
-1.690000000e-02	2.321406311e-01	-2.676201326e-04	1.446272596e-11
-1.700000000e-02	2.321406277e-01	-2.652639636e-04	7.569661305e-12
-1.710000000e-02	2.321406242e-01	-2.629077949e-04	2.804001289e-11
-1.720000000e-02	2.321406207e-01	-2.605516264e-04	8.294643733e-12
-1.730000000e-02	2.321406170e-01	-2.581954582e-04	9.539390236e-12
-1.740000000e-02	2.321406133e-01	-2.558392903e-04	1.689423915e-11
-1.750000000e-02	2.321406095e-01	-2.534831226e-04	1.354749720e-11
-1.760000000e-02	2.321406057e-01	-2.511269552e-04	3.200170830e-11
-1.770000000e-02	2.321406018e-01	-2.487707881e-04	1.640008679e-11
-1.780000000e-02	2.321405978e-01	-2.464146212e-04	6.144006109e-12
-1.790000000e-02	2.321405937e-01	-2.440584547e-04	1.037973144e-11
-1.800000000e-02	2.321405896e-01	-2.417022884e-04	1.242079945e-11
-1.810000000e-02	2.321405854e-01	-2.393461224e-04	1.324848479e-11
-1.820000000e-02	2.321405811e-01	-2.369899567e-04	4.102187937e-11
-1.830000000e-02	2.321405767e-01	-2.346337913e-04	6.844940462e-12
-1.840000000e-02	2.321405723e-01	-2.322776262e-04	1.657382306e-11
-1.850000000e-02	2.321405678e-01	-2.299214614e-04	3.188369524e-11
-1.860000000e-02	2.321405633e-01	-2.275652969e-04	2.172274746e-11
-1.870000000e-02	2.321405586e-01	-2.252091327e-04	7.491441297e-12
-1.880000000e-02	2.321405539e-01	-2.228529688e-04	1.463226264e-11
-1.890000000e-02	2.321405491e-01	-2.204968053e-04	1.031712989e-11
-1.900000000e-02	2.321405443e-01	-2.181406421e-04	1.873632561e-11
-1.910000000e-02	2.321405393e-01	-2.157844791e-04	4.039445713e-11
-1.920000000e-02	2.321405344e-01	-2.134283166e-04	5.117918697e-12
-1.930000000e-02	2.321405293e-01	-2.110721543e-04	1.129982861e-11
-1.940000000e-02	2.321405241e-01	-2.087159924e-04	2.219374195e-11
-1.950000000e-02	2.321405189e-01	-2.063598309e-04	6.482453049e-12
-1.960000000e-02	2.321405136e-01	-2.040036696e-04	7.186277333e-12
-1.970000000e-02	2.321405083e-01	-2.016475088e-04	1.021887538e-11
-1.980000000e-02	2.321405029e-01	-1.992913482e-04	5.454649870e-12
-1.990000000e-02	2.321404974e-01	-1.969351881e-04	1.729612230e-11
-2.000000000e-02	2.321404918e-01	-1.945790283e-04	1.990358162e-11
-2.010000000e-02	2.321404862e-01	-1.922228688e-04	9.611532695e-12
-2.020000000e-02	2.321404804e-01	-1.898667097e-04	9.684333690e-12
-2.030000000e-02	2.321404747e-01	-1.875105510e-04	1.360961044e-11
-2.040000000e-02	2.321404688e-01	-1.851543927e-04	1.627034886e-11
-2.050000000e-02	2.321404629e-01	-1.827982347e-04	1.281365171e-11
-2.060000000e-02	2.321404569e-01	-1.804420771e-04	9.253677137e-12
-2.070000000e-02	2.321404508e-01	-1.780859199e-04	1.027184608e-11
-2.080000000e-02	2.321404447e-01	-1.757297631e-04	9.568274366e-12
-2.090000000e-02	2.321404384e-01	-1.733736067e-04	3.122195115e-11
-2.100000000e-02	2.321404322e-01	-1.710174506e-04	1.584625650e-11
-2.110000000e-02	2.321404258e-01	-1.686612950e-04	1.093895713e-11
-2.120000000e-02	2.321404194e-01	-1.663051397e-04	4.705463737e-12
-2.130000000e-02	2.321404129e-01	-1.639489849e-04	1.226768133e-11
-2.140000000e-02	2.321404063e-01	-1.615928305e-04	4.771841980e-12
-2.150000000e-02	2.321403996e-01	-1.592366765e-04	1.537846129e-11
-2.160000000e-02	2.321403929e-01	-1.568805229e-04	3.253891215e-11
-2.170000000e-02	2.321403861e-01	-1.545243697e-04	1.704197040e-11
-2.180000000e-02	2.321403793e-01	-1.521682170e-04	7.838428591e-12
-2.190000000e-02	2.321403723e-01	-1.498120647e-04	8.326664849e-12
-2.200000000e-02	2.321403653e-01	-1.474559128e-04	1.067595154e-11
-2.210000000e-02	2.321403583e-01	-1.450997613e-04	1.332449373e-11
-2.220000000e-02	2.321403511e-01	-1.427436103e-04	2.177991002e-11
-2.230000000e-02	2.321403439e-01	-1.403874597e-04	1.862018620e-11
-2.240000000e-02	2.321403366e-01	-1.380313096e-04	6.669603833e-12
-2.250000000e-02	2.321403292e-01	-1.356751599e-04	1.229662885e-10
-2.260000000e-02	2.321403218e-01	-1.333190107e-04	1.398100683e-11
-2.270000000e-02	2.321403143e-01	-1.309628619e-04	5.198882218e-12
-2.280000000e-02	2.321403067e-01	-1.286067136e-04	2.736844955e-11
-2.290000000e-02	2.321402991e-01	-1.262505657e-04	1.665484230e-11
-2.300000000e-02	2.321402913e-01	-1.238944183e-04	6.889464250e-12
-2.310000000e-02	2.321402836e-01	-1.215382714e-04	1.020834254e-11
-2.320000000e-02	2.321402757e-01	-1.191821250e-04	1.034653608e-11
-2.330000000e-02	2.321402678e-01	-1.168259790e-04	1.793310521e-11
-2.340000000e-02	2.321402597e-01	-1.144698336e-04	1.886253235e-11
-2.350000000e-02	2.321402517e-01	-1.121136886e-04	1.100326960e-11
-2.360000000e-02	2.321402435e-01	-1.097575441e-04	1.897920309e-11
-2.370000000e-02	2.321402353e-01	-1.074014000e-04	1.650105336e-11
-2.380000000e-02	2.321402270e-01	-1.050452565e-04	1.645017777e-11
-2.390000000e-02	2.321402186e-01	-1.026891135e-04	1.665848969e-11
-2.400000000e-02	2.321402102e-01	-1.003329710e-04	2.299952061e-11
-2.410000000e-02	2.321402017e-01	-9.797682899e-05	2.501415751e-11
-2.420000000e-02	2.321401931e-01	-9.562068749e-05	8.596523728e-12
-2.430000000e-02	2.321401844e-01	-9.326454651e-05	1.417486572e-11
-2.440000000e-02	2.321401757e-01	-9.090840604e-05	1.025698566e-11
-2.450000000e-02	2.321401669e-01	-8.855226610e-05	4.180276515e-11
-2.460000000e-02	2.321401581e-01	-8.619612668e-05	8.230728620e-12
-2.470000000e-02	2.321401491e-01	-8.383998779e-05	8.137385620e-12
-2.480000000e-02	2.321401401e-01	-8.148384943e-05	4.493098372e-11
-2.490000000e-02	2.321401310e-01	-7.912771161e-05	8.933553533e-12
-2.500000000e-02	2.321401219e-01	-7.677157433e-05	6.358922775e-12
-2.510000000e-02	2.321401126e-01	-7.441543760e-05	9.010728509e-12
-2.520000000e-02	2.321401033e-01	-7.205930140e-05	1.606636425e-11
-2.530000000e-02	2.321400940e-01	-6.970316577e-05	1.363718993e-11
-2.540000000e-02	2.321400845e-01	-6.734703068e-05	2.635060784e-11
-2.550000000e-02	2.321400750e-01	-6.499089615e-05	1.270348636e-11
-2.560000000e-02	2.321400654e-01	-6.263476219e-05	1.221405586e-11
-2.570000000e-02	2.321400558e-01	-6.027862879e-05	1.387168861e-11
-2.580000000e-02	2.321400460e-01	-5.792249595e-05	1.062814279e-11
-2.590000000e-02	2.321400362e-01	-5.556636369e-05	6.829301646e-12
-2.600000000e-02	2.321400264e-01	-5.321023201e-05	6.720040088e-12
-2.610000000e-02	2.321400164e-01	-5.085410091e-05	1.243950741e-11
-2.620000000e-02	2.321400064e-01	-4.849797038e-05	2.521333022e-11
-2.630000000e-02	2.321399963e-01	-4.614184045e-05	7.326189737e-12
-2.640000000e-02	2.321399862e-01	-4.378571111e-05	2.708679080e-11
-2.650000000e-02	2.321399759e-01	-4.142958236e-05	2.391761746e-11
-2.660000000e-02	2.321399656e-01	-3.907345421e-05	1.197951094e-11
-2.670000000e-02	2.321399552e-01	-3.671732666e-05	4.865060400e-11
-2.680000000e-02	2.321399448e-01	-3.436119972e-05	1.328564480e-11
-2.690000000e-02	2.321399343e-01	-3.200507338e-05	9.499278724e-12
-2.700000000e-02	2.321399237e-01	-2.964894766e-05	9.029793684e-12
-2.710000000e-02	2.321399130e-01	-2.729282255e-05	1.021051189e-11
-2.720000000e-02	2.321399023e-01	-2.493669806e-05	1.754118911e-11
-2.730000000e-02	2.321398915e-01	-2.258057420e-05	1.264393135e-11
-2.740000000e-02	2.321398806e-01	-2.022445096e-05	2.873233443e-11
-2.750000000e-02	2.321398697e-01	-1.786832835e-05	3.752589586e-11
-2.760000000e-02	2.321398586e-01	-1.551220638e-05	2.080980814e-11
-2.770000000e-02	2.321398476e-01	-1.315608505e-05	4.972864084e-12
-2.780000000e-02	2.321398364e-01	-1.079996436e-05	1.517360334e-11
-2.790000000e-02	2.321398252e-01	-8.443844309e-06	2.290379743e-11
-2.800000000e-02	2.321398139e-01	-6.087724909e-06	3.524639119e-11
-2.810000000e-02	2.321398025e-01	-3.731606163e-06	3.293528011e-11
-2.820000000e-02	2.321397910e-01	-1.375488071e-06	6.643281665e-12
-2.830000000e-02	2.321397795e-01	9.806293597e-07	9.291004925e-11
-2.840000000e-02	2.321397679e-01	3.336746127e-06	1.139910677e-11
-2.850000000e-02	2.321397562e-01	5.692862231e-06	3.223417342e-11
-2.860000000e-02	2.321397445e-01	8.048977657e-06	2.190663788e-11
-2.870000000e-02	2.321397327e-01	1.040509242e-05	7.014437363e-12
-2.880000000e-02	2.321397208e-01	1.276120649e-05	9.095275418e-12
-2.890000000e-02	2.321397089e-01	1.511731989e-05	2.654685944e-11
-2.900000000e-02	2.321396968e-01	1.747343260e-05	7.223469565e-12
-2.910000000e-02	2.321396847e-01	1.982954462e-05	1.436372064e-11
-2.920000000e-02	2.321396726e-01	2.218565596e-05	2.067139482e-11
-2.930000000e-02	2.321396603e-01	2.454176659e-05	1.664771342e-11
-2.940000000e-02	2.321396480e-01	2.689787652e-05	2.569948498e-11
-2.950000000e-02	2.321396356e-01	2.925398576e-05	1.635237447e-11
-2.960000000e-02	2.321396232e-01	3.161009428e-05	4.870854485e-12
-2.970000000e-02	2.321396107e-01	3.396620210e-05	1.138071685e-11
-2.980000000e-02	2.321395981e-01	3.632230920e-05	7.367360305e-12
-2.990000000e-02	2.321395854e-01	3.867841558e-05	2.787367461e-11
-3.000000000e-02	2.321395727e-01	4.103452124e-05	1.166095435e-11
