# Im(epsi1)     Re(omega/c)      Im(omega/c)      Eq(det).Opt det CON kz, R=0.5 \mum, mu_c=0.3, Re(epsi1)=3.90solve_det_conkz_vs_kz.py
0.000000000e+00	2.321487412e-01	-6.658450678e-04	9.260212628e-12
-1.000000000e-04	2.321487499e-01	-6.634888466e-04	1.130394329e-11
-2.000000000e-04	2.321487585e-01	-6.611326252e-04	1.257915495e-11
-3.000000000e-04	2.321487670e-01	-6.587764033e-04	2.689437377e-11
-4.000000000e-04	2.321487755e-01	-6.564201811e-04	1.407917252e-11
-5.000000000e-04	2.321487839e-01	-6.540639586e-04	1.523858185e-11
-6.000000000e-04	2.321487923e-01	-6.517077357e-04	2.389999847e-11
-7.000000000e-04	2.321488005e-01	-6.493515124e-04	1.852364113e-11
-8.000000000e-04	2.321488087e-01	-6.469952889e-04	1.560848988e-11
-9.000000000e-04	2.321488169e-01	-6.446390650e-04	2.200788213e-11
-1.000000000e-03	2.321488249e-01	-6.422828407e-04	6.552253568e-11
-1.100000000e-03	2.321488329e-01	-6.399266161e-04	4.651541170e-12
-1.200000000e-03	2.321488408e-01	-6.375703912e-04	2.464480039e-11
-1.300000000e-03	2.321488487e-01	-6.352141660e-04	8.895032477e-11
-1.400000000e-03	2.321488564e-01	-6.328579405e-04	1.075140206e-11
-1.500000000e-03	2.321488641e-01	-6.305017146e-04	2.301153128e-11
-1.600000000e-03	2.321488718e-01	-6.281454884e-04	1.028536616e-11
-1.700000000e-03	2.321488793e-01	-6.257892620e-04	9.542383384e-12
-1.800000000e-03	2.321488868e-01	-6.234330352e-04	1.150822630e-11
-1.900000000e-03	2.321488942e-01	-6.210768081e-04	3.556175361e-11
-2.000000000e-03	2.321489015e-01	-6.187205807e-04	9.423728154e-12
-2.100000000e-03	2.321489088e-01	-6.163643531e-04	5.603239911e-12
-2.200000000e-03	2.321489160e-01	-6.140081251e-04	3.096736143e-11
-2.300000000e-03	2.321489231e-01	-6.116518969e-04	1.065392891e-11
-2.400000000e-03	2.321489302e-01	-6.092956684e-04	2.096697355e-11
-2.500000000e-03	2.321489371e-01	-6.069394395e-04	1.192977000e-11
-2.600000000e-03	2.321489441e-01	-6.045832105e-04	3.289763040e-11
-2.700000000e-03	2.321489509e-01	-6.022269811e-04	2.271697335e-11
-2.800000000e-03	2.321489577e-01	-5.998707515e-04	4.048088560e-11
-2.900000000e-03	2.321489643e-01	-5.975145216e-04	1.114969776e-11
-3.000000000e-03	2.321489710e-01	-5.951582915e-04	1.041670321e-11
-3.100000000e-03	2.321489775e-01	-5.928020611e-04	2.123852643e-11
-3.200000000e-03	2.321489840e-01	-5.904458304e-04	5.902883595e-11
-3.300000000e-03	2.321489904e-01	-5.880895996e-04	1.780819737e-11
-3.400000000e-03	2.321489967e-01	-5.857333684e-04	1.629699060e-11
-3.500000000e-03	2.321490030e-01	-5.833771370e-04	1.071418567e-11
-3.600000000e-03	2.321490092e-01	-5.810209054e-04	1.196531932e-11
-3.700000000e-03	2.321490153e-01	-5.786646735e-04	1.843169682e-11
-3.800000000e-03	2.321490213e-01	-5.763084415e-04	8.607668643e-12
-3.900000000e-03	2.321490273e-01	-5.739522091e-04	6.518010686e-12
-4.000000000e-03	2.321490332e-01	-5.715959766e-04	1.347579954e-11
-4.100000000e-03	2.321490391e-01	-5.692397438e-04	9.775939687e-12
-4.200000000e-03	2.321490448e-01	-5.668835109e-04	1.275291196e-11
-4.300000000e-03	2.321490505e-01	-5.645272777e-04	1.033135462e-11
-4.400000000e-03	2.321490561e-01	-5.621710443e-04	5.560899901e-12
-4.500000000e-03	2.321490617e-01	-5.598148107e-04	2.084189483e-11
-4.600000000e-03	2.321490671e-01	-5.574585769e-04	8.918147231e-12
-4.700000000e-03	2.321490725e-01	-5.551023429e-04	5.336215645e-12
-4.800000000e-03	2.321490779e-01	-5.527461087e-04	1.293562347e-11
-4.900000000e-03	2.321490831e-01	-5.503898743e-04	1.452236439e-11
-5.000000000e-03	2.321490883e-01	-5.480336397e-04	1.932395751e-11
-5.100000000e-03	2.321490934e-01	-5.456774049e-04	1.263055338e-11
-5.200000000e-03	2.321490985e-01	-5.433211700e-04	9.315541966e-12
-5.300000000e-03	2.321491034e-01	-5.409649349e-04	6.016098786e-11
-5.400000000e-03	2.321491083e-01	-5.386086996e-04	7.438032508e-12
-5.500000000e-03	2.321491132e-01	-5.362524641e-04	1.039212179e-11
-5.600000000e-03	2.321491179e-01	-5.338962285e-04	1.312241924e-11
-5.700000000e-03	2.321491226e-01	-5.315399927e-04	2.615696120e-11
-5.800000000e-03	2.321491272e-01	-5.291837568e-04	1.847821077e-11
-5.900000000e-03	2.321491318e-01	-5.268275207e-04	1.304165469e-11
-6.000000000e-03	2.321491362e-01	-5.244712844e-04	8.980197870e-12
-6.100000000e-03	2.321491406e-01	-5.221150480e-04	2.155737697e-11
-6.200000000e-03	2.321491450e-01	-5.197588115e-04	6.095296313e-12
-6.300000000e-03	2.321491492e-01	-5.174025748e-04	4.014732219e-11
-6.400000000e-03	2.321491534e-01	-5.150463380e-04	2.853191650e-11
-6.500000000e-03	2.321491575e-01	-5.126901010e-04	5.364364908e-12
-6.600000000e-03	2.321491615e-01	-5.103338639e-04	1.457826185e-11
-6.700000000e-03	2.321491655e-01	-5.079776267e-04	1.718920240e-11
-6.800000000e-03	2.321491694e-01	-5.056213894e-04	8.365887277e-12
-6.900000000e-03	2.321491732e-01	-5.032651519e-04	1.413376533e-11
-7.000000000e-03	2.321491770e-01	-5.009089144e-04	9.130137880e-12
-7.100000000e-03	2.321491807e-01	-4.985526767e-04	1.404334983e-11
-7.200000000e-03	2.321491843e-01	-4.961964389e-04	1.799411520e-11
-7.300000000e-03	2.321491878e-01	-4.938402010e-04	1.180130260e-11
-7.400000000e-03	2.321491913e-01	-4.914839631e-04	9.615991746e-12
-7.500000000e-03	2.321491947e-01	-4.891277250e-04	1.497031199e-11
-7.600000000e-03	2.321491980e-01	-4.867714868e-04	6.183499741e-12
-7.700000000e-03	2.321492012e-01	-4.844152485e-04	3.294802915e-11
-7.800000000e-03	2.321492044e-01	-4.820590102e-04	1.134037984e-11
-7.900000000e-03	2.321492075e-01	-4.797027718e-04	8.479890844e-12
-8.000000000e-03	2.321492106e-01	-4.773465333e-04	2.470617335e-11
-8.100000000e-03	2.321492135e-01	-4.749902947e-04	8.672246957e-11
-8.200000000e-03	2.321492164e-01	-4.726340560e-04	2.261787283e-11
-8.300000000e-03	2.321492192e-01	-4.702778173e-04	2.351746784e-11
-8.400000000e-03	2.321492220e-01	-4.679215785e-04	1.470369917e-11
-8.500000000e-03	2.321492247e-01	-4.655653397e-04	8.305385914e-12
-8.600000000e-03	2.321492273e-01	-4.632091008e-04	1.409134694e-11
-8.700000000e-03	2.321492298e-01	-4.608528618e-04	1.672942091e-11
-8.800000000e-03	2.321492323e-01	-4.584966228e-04	2.343677226e-11
-8.900000000e-03	2.321492347e-01	-4.561403837e-04	1.123364861e-11
-9.000000000e-03	2.321492370e-01	-4.537841447e-04	1.846474095e-11
-9.100000000e-03	2.321492392e-01	-4.514279055e-04	5.262455502e-11
-9.200000000e-03	2.321492414e-01	-4.490716664e-04	2.793134564e-11
-9.300000000e-03	2.321492435e-01	-4.467154272e-04	1.359420230e-11
-9.400000000e-03	2.321492455e-01	-4.443591879e-04	2.770905797e-11
-9.500000000e-03	2.321492475e-01	-4.420029487e-04	1.372453801e-11
-9.600000000e-03	2.321492494e-01	-4.396467094e-04	1.140011786e-11
-9.700000000e-03	2.321492512e-01	-4.372904701e-04	1.558895672e-11
-9.800000000e-03	2.321492529e-01	-4.349342308e-04	6.645795806e-11
-9.900000000e-03	2.321492546e-01	-4.325779915e-04	5.011654633e-12
-1.000000000e-02	2.321492562e-01	-4.302217522e-04	6.402273408e-12
-1.010000000e-02	2.321492577e-01	-4.278655129e-04	9.346291655e-12
-1.020000000e-02	2.321492592e-01	-4.255092736e-04	2.222307050e-11
-1.030000000e-02	2.321492606e-01	-4.231530343e-04	6.492616659e-12
-1.040000000e-02	2.321492619e-01	-4.207967950e-04	6.574874139e-12
-1.050000000e-02	2.321492631e-01	-4.184405557e-04	1.288569312e-11
-1.060000000e-02	2.321492643e-01	-4.160843164e-04	1.285680921e-11
-1.070000000e-02	2.321492654e-01	-4.137280772e-04	1.095420939e-11
-1.080000000e-02	2.321492664e-01	-4.113718380e-04	9.485074934e-12
-1.090000000e-02	2.321492674e-01	-4.090155988e-04	9.331679504e-12
-1.100000000e-02	2.321492683e-01	-4.066593596e-04	1.469762812e-11
-1.110000000e-02	2.321492691e-01	-4.043031205e-04	1.492806392e-11
-1.120000000e-02	2.321492698e-01	-4.019468814e-04	1.501025473e-11
-1.130000000e-02	2.321492705e-01	-3.995906423e-04	2.251373955e-10
-1.140000000e-02	2.321492711e-01	-3.972344033e-04	2.188280395e-11
-1.150000000e-02	2.321492716e-01	-3.948781643e-04	7.110919282e-12
-1.160000000e-02	2.321492721e-01	-3.925219254e-04	1.676600753e-11
-1.170000000e-02	2.321492725e-01	-3.901656866e-04	1.055435246e-11
-1.180000000e-02	2.321492728e-01	-3.878094478e-04	1.126940424e-11
-1.190000000e-02	2.321492730e-01	-3.854532091e-04	7.981259101e-12
-1.200000000e-02	2.321492732e-01	-3.830969704e-04	6.430223091e-12
-1.210000000e-02	2.321492733e-01	-3.807407318e-04	1.926383774e-11
-1.220000000e-02	2.321492733e-01	-3.783844933e-04	6.656638093e-12
-1.230000000e-02	2.321492732e-01	-3.760282549e-04	6.762459564e-11
-1.240000000e-02	2.321492731e-01	-3.736720165e-04	9.846426997e-12
-1.250000000e-02	2.321492729e-01	-3.713157782e-04	3.343654203e-11
-1.260000000e-02	2.321492727e-01	-3.689595401e-04	4.165893051e-12
-1.270000000e-02	2.321492723e-01	-3.666033020e-04	1.743161758e-11
-1.280000000e-02	2.321492719e-01	-3.642470640e-04	7.712239391e-12
-1.290000000e-02	2.321492714e-01	-3.618908261e-04	2.180314616e-11
-1.300000000e-02	2.321492709e-01	-3.595345883e-04	1.467181365e-11
-1.310000000e-02	2.321492703e-01	-3.571783506e-04	1.443360405e-11
-1.320000000e-02	2.321492696e-01	-3.548221130e-04	2.562918338e-11
-1.330000000e-02	2.321492688e-01	-3.524658756e-04	4.145508700e-12
-1.340000000e-02	2.321492680e-01	-3.501096382e-04	1.094277765e-11
-1.350000000e-02	2.321492671e-01	-3.477534010e-04	1.347242224e-11
-1.360000000e-02	2.321492661e-01	-3.453971639e-04	1.402325878e-11
-1.370000000e-02	2.321492650e-01	-3.430409270e-04	2.048851114e-11
-1.380000000e-02	2.321492639e-01	-3.406846901e-04	6.526306573e-11
-1.390000000e-02	2.321492627e-01	-3.383284534e-04	1.671635580e-11
-1.400000000e-02	2.321492614e-01	-3.359722169e-04	1.024248604e-10
-1.410000000e-02	2.321492601e-01	-3.336159805e-04	2.097249478e-11
-1.420000000e-02	2.321492587e-01	-3.312597442e-04	4.614218728e-11
-1.430000000e-02	2.321492572e-01	-3.289035081e-04	9.969828604e-12
-1.440000000e-02	2.321492557e-01	-3.265472721e-04	6.170339195e-12
-1.450000000e-02	2.321492540e-01	-3.241910363e-04	7.250743831e-12
-1.460000000e-02	2.321492523e-01	-3.218348007e-04	1.711438173e-11
-1.470000000e-02	2.321492506e-01	-3.194785652e-04	6.655042803e-12
-1.480000000e-02	2.321492487e-01	-3.171223299e-04	1.380290995e-11
-1.490000000e-02	2.321492468e-01	-3.147660948e-04	1.239088921e-11
-1.500000000e-02	2.321492448e-01	-3.124098598e-04	9.710452455e-12
-1.510000000e-02	2.321492428e-01	-3.100536250e-04	1.017980855e-11
-1.520000000e-02	2.321492406e-01	-3.076973904e-04	2.563056916e-11
-1.530000000e-02	2.321492384e-01	-3.053411560e-04	9.240611318e-12
-1.540000000e-02	2.321492362e-01	-3.029849218e-04	4.877200175e-11
-1.550000000e-02	2.321492338e-01	-3.006286878e-04	1.528538633e-11
-1.560000000e-02	2.321492314e-01	-2.982724540e-04	1.290940916e-11
-1.570000000e-02	2.321492289e-01	-2.959162203e-04	1.595510937e-11
-1.580000000e-02	2.321492264e-01	-2.935599869e-04	3.235697472e-11
-1.590000000e-02	2.321492237e-01	-2.912037537e-04	2.043516116e-11
-1.600000000e-02	2.321492210e-01	-2.888475207e-04	6.671534200e-12
-1.610000000e-02	2.321492183e-01	-2.864912879e-04	1.316262443e-11
-1.620000000e-02	2.321492154e-01	-2.841350554e-04	4.697616058e-12
-1.630000000e-02	2.321492125e-01	-2.817788231e-04	3.715760867e-11
-1.640000000e-02	2.321492095e-01	-2.794225909e-04	1.375700808e-11
-1.650000000e-02	2.321492065e-01	-2.770663591e-04	3.207460941e-11
-1.660000000e-02	2.321492033e-01	-2.747101274e-04	1.181353534e-11
-1.670000000e-02	2.321492001e-01	-2.723538960e-04	2.483721366e-11
-1.680000000e-02	2.321491968e-01	-2.699976648e-04	2.564788408e-11
-1.690000000e-02	2.321491935e-01	-2.676414339e-04	6.862693969e-12
-1.700000000e-02	2.321491901e-01	-2.652852033e-04	3.979084140e-11
-1.710000000e-02	2.321491866e-01	-2.629289728e-04	1.247203353e-11
-1.720000000e-02	2.321491830e-01	-2.605727427e-04	1.534552444e-11
-1.730000000e-02	2.321491794e-01	-2.582165128e-04	9.761754904e-12
-1.740000000e-02	2.321491757e-01	-2.558602831e-04	2.005029843e-11
-1.750000000e-02	2.321491719e-01	-2.535040538e-04	7.376151047e-12
-1.760000000e-02	2.321491681e-01	-2.511478247e-04	9.603132116e-12
-1.770000000e-02	2.321491641e-01	-2.487915958e-04	7.573344054e-12
-1.780000000e-02	2.321491601e-01	-2.464353673e-04	9.470509966e-12
-1.790000000e-02	2.321491561e-01	-2.440791390e-04	2.161332106e-11
-1.800000000e-02	2.321491519e-01	-2.417229110e-04	2.257713271e-11
-1.810000000e-02	2.321491477e-01	-2.393666833e-04	1.043087983e-11
-1.820000000e-02	2.321491435e-01	-2.370104559e-04	9.199268905e-12
-1.830000000e-02	2.321491391e-01	-2.346542288e-04	8.392827518e-12
-1.840000000e-02	2.321491347e-01	-2.322980020e-04	6.161247461e-12
-1.850000000e-02	2.321491302e-01	-2.299417755e-04	1.179330031e-11
-1.860000000e-02	2.321491256e-01	-2.275855493e-04	8.632316111e-12
-1.870000000e-02	2.321491210e-01	-2.252293234e-04	2.107397774e-11
-1.880000000e-02	2.321491163e-01	-2.228730979e-04	1.587935651e-11
-1.890000000e-02	2.321491115e-01	-2.205168726e-04	7.438331047e-12
-1.900000000e-02	2.321491066e-01	-2.181606477e-04	5.026491947e-12
-1.910000000e-02	2.321491017e-01	-2.158044231e-04	1.091618936e-11
-1.920000000e-02	2.321490967e-01	-2.134481988e-04	1.071067719e-11
-1.930000000e-02	2.321490917e-01	-2.110919749e-04	1.027733318e-11
-1.940000000e-02	2.321490865e-01	-2.087357513e-04	1.198248099e-11
-1.950000000e-02	2.321490813e-01	-2.063795280e-04	8.280574277e-12
-1.960000000e-02	2.321490760e-01	-2.040233051e-04	7.191262820e-12
-1.970000000e-02	2.321490707e-01	-2.016670825e-04	5.132301189e-12
-1.980000000e-02	2.321490652e-01	-1.993108603e-04	2.204773812e-11
-1.990000000e-02	2.321490597e-01	-1.969546384e-04	1.204368192e-11
-2.000000000e-02	2.321490542e-01	-1.945984169e-04	2.380571672e-11
-2.010000000e-02	2.321490485e-01	-1.922421957e-04	9.088991971e-12
-2.020000000e-02	2.321490428e-01	-1.898859749e-04	3.021980519e-11
-2.030000000e-02	2.321490370e-01	-1.875297545e-04	1.220654029e-11
-2.040000000e-02	2.321490312e-01	-1.851735345e-04	7.496922354e-12
-2.050000000e-02	2.321490252e-01	-1.828173148e-04	9.279783196e-12
-2.060000000e-02	2.321490192e-01	-1.804610955e-04	3.278162932e-11
-2.070000000e-02	2.321490132e-01	-1.781048766e-04	1.004982132e-11
-2.080000000e-02	2.321490070e-01	-1.757486581e-04	9.093329155e-12
-2.090000000e-02	2.321490008e-01	-1.733924400e-04	5.216667604e-12
-2.100000000e-02	2.321489945e-01	-1.710362222e-04	1.298644127e-11
-2.110000000e-02	2.321489882e-01	-1.686800049e-04	1.639684639e-11
-2.120000000e-02	2.321489817e-01	-1.663237879e-04	8.984214266e-12
-2.130000000e-02	2.321489752e-01	-1.639675714e-04	7.455525165e-12
-2.140000000e-02	2.321489687e-01	-1.616113553e-04	5.607163694e-12
-2.150000000e-02	2.321489620e-01	-1.592551396e-04	1.620616931e-11
-2.160000000e-02	2.321489553e-01	-1.568989243e-04	7.861425883e-12
-2.170000000e-02	2.321489485e-01	-1.545427094e-04	1.311137832e-11
-2.180000000e-02	2.321489417e-01	-1.521864950e-04	1.262566924e-11
-2.190000000e-02	2.321489347e-01	-1.498302809e-04	4.610540572e-11
-2.200000000e-02	2.321489277e-01	-1.474740674e-04	1.073335786e-11
-2.210000000e-02	2.321489206e-01	-1.451178542e-04	1.604982241e-11
-2.220000000e-02	2.321489135e-01	-1.427616415e-04	1.049966235e-11
-2.230000000e-02	2.321489063e-01	-1.404054292e-04	2.056263399e-11
-2.240000000e-02	2.321488990e-01	-1.380492174e-04	1.312284154e-11
-2.250000000e-02	2.321488916e-01	-1.356930060e-04	1.168131175e-11
-2.260000000e-02	2.321488842e-01	-1.333367950e-04	1.392933582e-11
-2.270000000e-02	2.321488767e-01	-1.309805846e-04	1.428178647e-11
-2.280000000e-02	2.321488691e-01	-1.286243746e-04	2.461693698e-11
-2.290000000e-02	2.321488615e-01	-1.262681650e-04	8.868401110e-12
-2.300000000e-02	2.321488537e-01	-1.239119559e-04	2.599827157e-11
-2.310000000e-02	2.321488459e-01	-1.215557473e-04	1.023792596e-11
-2.320000000e-02	2.321488381e-01	-1.191995392e-04	3.889537706e-11
-2.330000000e-02	2.321488301e-01	-1.168433315e-04	8.518298592e-12
-2.340000000e-02	2.321488221e-01	-1.144871243e-04	1.187837818e-11
-2.350000000e-02	2.321488141e-01	-1.121309176e-04	1.121425490e-11
-2.360000000e-02	2.321488059e-01	-1.097747114e-04	2.718573278e-11
-2.370000000e-02	2.321487977e-01	-1.074185057e-04	1.281088112e-11
-2.380000000e-02	2.321487894e-01	-1.050623005e-04	7.659967033e-12
-2.390000000e-02	2.321487810e-01	-1.027060957e-04	8.487512295e-12
-2.400000000e-02	2.321487726e-01	-1.003498915e-04	6.308445412e-12
-2.410000000e-02	2.321487641e-01	-9.799368782e-05	4.013682673e-11
-2.420000000e-02	2.321487555e-01	-9.563748462e-05	2.399910860e-11
-2.430000000e-02	2.321487468e-01	-9.328128194e-05	9.300192567e-12
-2.440000000e-02	2.321487381e-01	-9.092507977e-05	1.431109658e-11
-2.450000000e-02	2.321487293e-01	-8.856887813e-05	8.965640821e-12
-2.460000000e-02	2.321487204e-01	-8.621267701e-05	1.502314569e-11
-2.470000000e-02	2.321487115e-01	-8.385647641e-05	6.202346708e-12
-2.480000000e-02	2.321487025e-01	-8.150027636e-05	1.564817316e-11
-2.490000000e-02	2.321486934e-01	-7.914407683e-05	1.265280745e-11
-2.500000000e-02	2.321486843e-01	-7.678787785e-05	9.895268478e-12
-2.510000000e-02	2.321486750e-01	-7.443167941e-05	4.693007475e-11
-2.520000000e-02	2.321486657e-01	-7.207548152e-05	9.692431144e-12
-2.530000000e-02	2.321486564e-01	-6.971928418e-05	1.424394843e-11
-2.540000000e-02	2.321486469e-01	-6.736308739e-05	5.203869027e-11
-2.550000000e-02	2.321486374e-01	-6.500689116e-05	1.450246801e-11
-2.560000000e-02	2.321486278e-01	-6.265069549e-05	5.979259592e-11
-2.570000000e-02	2.321486182e-01	-6.029450038e-05	9.176705335e-12
-2.580000000e-02	2.321486084e-01	-5.793830585e-05	3.686636367e-11
-2.590000000e-02	2.321485986e-01	-5.558211189e-05	1.937913368e-11
-2.600000000e-02	2.321485888e-01	-5.322591850e-05	9.949811994e-12
-2.610000000e-02	2.321485788e-01	-5.086972569e-05	1.754865928e-11
-2.620000000e-02	2.321485688e-01	-4.851353347e-05	1.192159615e-11
-2.630000000e-02	2.321485587e-01	-4.615734183e-05	1.563512336e-11
-2.640000000e-02	2.321485485e-01	-4.380115079e-05	1.100687689e-11
-2.650000000e-02	2.321485383e-01	-4.144496034e-05	1.616323214e-11
-2.660000000e-02	2.321485280e-01	-3.908877048e-05	1.558526234e-11
-2.670000000e-02	2.321485176e-01	-3.673258123e-05	1.964180778e-11
-2.680000000e-02	2.321485072e-01	-3.437639258e-05	9.213338441e-12
-2.690000000e-02	2.321484967e-01	-3.202020454e-05	1.306203662e-11
-2.700000000e-02	2.321484861e-01	-2.966401712e-05	5.103695684e-12
-2.710000000e-02	2.321484754e-01	-2.730783031e-05	1.086654682e-11
-2.720000000e-02	2.321484647e-01	-2.495164412e-05	9.586026782e-12
-2.730000000e-02	2.321484539e-01	-2.259545855e-05	1.878217297e-11
-2.740000000e-02	2.321484430e-01	-2.023927361e-05	2.245452345e-11
-2.750000000e-02	2.321484321e-01	-1.788308930e-05	9.716480195e-12
-2.760000000e-02	2.321484210e-01	-1.552690563e-05	1.606382499e-11
-2.770000000e-02	2.321484100e-01	-1.317072259e-05	1.160588153e-11
-2.780000000e-02	2.321483988e-01	-1.081454019e-05	2.000673332e-11
-2.790000000e-02	2.321483876e-01	-8.458358443e-06	1.099292650e-11
-2.800000000e-02	2.321483763e-01	-6.102177340e-06	6.935802974e-12
-2.810000000e-02	2.321483649e-01	-3.745996889e-06	2.283844613e-11
-2.820000000e-02	2.321483534e-01	-1.389817096e-06	9.633904684e-12
-2.830000000e-02	2.321483419e-01	9.663620391e-07	2.280502388e-11
-2.840000000e-02	2.321483303e-01	3.322540508e-06	6.884056664e-12
-2.850000000e-02	2.321483186e-01	5.678718313e-06	1.146985175e-11
-2.860000000e-02	2.321483069e-01	8.034895447e-06	1.368114508e-11
-2.870000000e-02	2.321482951e-01	1.039107191e-05	1.151065075e-11
-2.880000000e-02	2.321482832e-01	1.274724769e-05	9.734414322e-12
-2.890000000e-02	2.321482713e-01	1.510342279e-05	1.074513429e-11
-2.900000000e-02	2.321482592e-01	1.745959720e-05	1.356216215e-11
-2.910000000e-02	2.321482471e-01	1.981577093e-05	1.512597779e-11
-2.920000000e-02	2.321482350e-01	2.217194396e-05	1.192306320e-11
-2.930000000e-02	2.321482227e-01	2.452811630e-05	1.370142978e-11
-2.940000000e-02	2.321482104e-01	2.688428794e-05	1.732019620e-11
-2.950000000e-02	2.321481981e-01	2.924045887e-05	1.653555498e-11
-2.960000000e-02	2.321481856e-01	3.159662910e-05	1.194001808e-11
-2.970000000e-02	2.321481731e-01	3.395279862e-05	1.507411610e-11
-2.980000000e-02	2.321481605e-01	3.630896742e-05	1.884092725e-11
-2.990000000e-02	2.321481478e-01	3.866513551e-05	6.840809551e-12
-3.000000000e-02	2.321481351e-01	4.102130287e-05	8.218506384e-12
