# Im(epsi1)     Re(omega/c)      Im(omega/c)      Eq(det).Opt det CON kz, R=0.5 \mum, mu_c=0.3, Re(epsi1)=3.90solve_det_conkz_vs_kz.py
0.000000000e+00	2.321513036e-01	-6.658545625e-04	3.128306360e-11
-1.000000000e-04	2.321513123e-01	-6.634983229e-04	9.634159378e-12
-2.000000000e-04	2.321513209e-01	-6.611420829e-04	7.939563522e-12
-3.000000000e-04	2.321513295e-01	-6.587858426e-04	1.129997795e-11
-4.000000000e-04	2.321513380e-01	-6.564296020e-04	1.397892398e-11
-5.000000000e-04	2.321513464e-01	-6.540733610e-04	1.166593632e-11
-6.000000000e-04	2.321513547e-01	-6.517171196e-04	1.235229870e-11
-7.000000000e-04	2.321513630e-01	-6.493608779e-04	2.022613678e-11
-8.000000000e-04	2.321513712e-01	-6.470046358e-04	2.159348547e-11
-9.000000000e-04	2.321513793e-01	-6.446483935e-04	1.284992230e-11
-1.000000000e-03	2.321513874e-01	-6.422921508e-04	9.446980440e-12
-1.100000000e-03	2.321513953e-01	-6.399359077e-04	1.092799823e-11
-1.200000000e-03	2.321514033e-01	-6.375796643e-04	2.626828678e-11
-1.300000000e-03	2.321514111e-01	-6.352234207e-04	1.982706624e-11
-1.400000000e-03	2.321514189e-01	-6.328671766e-04	1.488149034e-11
-1.500000000e-03	2.321514266e-01	-6.305109323e-04	1.038559685e-11
-1.600000000e-03	2.321514342e-01	-6.281546877e-04	2.390802138e-11
-1.700000000e-03	2.321514417e-01	-6.257984427e-04	7.288002051e-12
-1.800000000e-03	2.321514492e-01	-6.234421975e-04	2.199068938e-11
-1.900000000e-03	2.321514566e-01	-6.210859520e-04	1.780793889e-11
-2.000000000e-03	2.321514640e-01	-6.187297061e-04	1.009336998e-11
-2.100000000e-03	2.321514712e-01	-6.163734600e-04	5.140908164e-11
-2.200000000e-03	2.321514784e-01	-6.140172136e-04	1.559980748e-11
-2.300000000e-03	2.321514855e-01	-6.116609668e-04	1.479328037e-11
-2.400000000e-03	2.321514926e-01	-6.093047199e-04	1.406392830e-11
-2.500000000e-03	2.321514996e-01	-6.069484726e-04	7.088227775e-12
-2.600000000e-03	2.321515065e-01	-6.045922250e-04	1.743925783e-11
-2.700000000e-03	2.321515133e-01	-6.022359772e-04	1.657093273e-11
-2.800000000e-03	2.321515201e-01	-5.998797291e-04	1.469600331e-11
-2.900000000e-03	2.321515268e-01	-5.975234808e-04	2.820823145e-11
-3.000000000e-03	2.321515334e-01	-5.951672322e-04	2.917089817e-11
-3.100000000e-03	2.321515399e-01	-5.928109833e-04	2.297910417e-11
-3.200000000e-03	2.321515464e-01	-5.904547342e-04	3.610891894e-11
-3.300000000e-03	2.321515528e-01	-5.880984848e-04	1.072213345e-11
-3.400000000e-03	2.321515592e-01	-5.857422352e-04	6.557007975e-12
-3.500000000e-03	2.321515654e-01	-5.833859854e-04	2.669376802e-11
-3.600000000e-03	2.321515716e-01	-5.810297353e-04	1.367279266e-11
-3.700000000e-03	2.321515777e-01	-5.786734850e-04	1.486349265e-11
-3.800000000e-03	2.321515838e-01	-5.763172344e-04	1.752739735e-11
-3.900000000e-03	2.321515898e-01	-5.739609836e-04	7.941278910e-12
-4.000000000e-03	2.321515957e-01	-5.716047326e-04	2.156309811e-11
-4.100000000e-03	2.321516015e-01	-5.692484814e-04	7.937744816e-12
-4.200000000e-03	2.321516073e-01	-5.668922300e-04	6.785341054e-12
-4.300000000e-03	2.321516129e-01	-5.645359783e-04	1.087089040e-11
-4.400000000e-03	2.321516186e-01	-5.621797264e-04	1.796299696e-11
-4.500000000e-03	2.321516241e-01	-5.598234744e-04	5.256353843e-12
-4.600000000e-03	2.321516296e-01	-5.574672221e-04	2.284756670e-11
-4.700000000e-03	2.321516350e-01	-5.551109696e-04	1.239755038e-11
-4.800000000e-03	2.321516403e-01	-5.527547169e-04	1.103196667e-11
-4.900000000e-03	2.321516456e-01	-5.503984641e-04	1.086432420e-11
-5.000000000e-03	2.321516508e-01	-5.480422110e-04	1.117894752e-11
-5.100000000e-03	2.321516559e-01	-5.456859578e-04	1.016521641e-11
-5.200000000e-03	2.321516609e-01	-5.433297044e-04	1.139396069e-11
-5.300000000e-03	2.321516659e-01	-5.409734508e-04	2.155310516e-11
-5.400000000e-03	2.321516708e-01	-5.386171971e-04	3.118969757e-11
-5.500000000e-03	2.321516756e-01	-5.362609431e-04	1.274426755e-11
-5.600000000e-03	2.321516804e-01	-5.339046890e-04	9.470778136e-12
-5.700000000e-03	2.321516851e-01	-5.315484348e-04	9.388188456e-12
-5.800000000e-03	2.321516897e-01	-5.291921804e-04	5.285129589e-12
-5.900000000e-03	2.321516942e-01	-5.268359258e-04	1.176676629e-11
-6.000000000e-03	2.321516987e-01	-5.244796711e-04	1.183043701e-11
-6.100000000e-03	2.321517031e-01	-5.221234162e-04	1.485279762e-11
-6.200000000e-03	2.321517074e-01	-5.197671612e-04	1.426071981e-11
-6.300000000e-03	2.321517117e-01	-5.174109061e-04	1.135340224e-11
-6.400000000e-03	2.321517158e-01	-5.150546508e-04	1.886260628e-11
-6.500000000e-03	2.321517199e-01	-5.126983954e-04	8.631188303e-12
-6.600000000e-03	2.321517240e-01	-5.103421398e-04	9.253434049e-12
-6.700000000e-03	2.321517280e-01	-5.079858841e-04	9.097218775e-12
-6.800000000e-03	2.321517318e-01	-5.056296283e-04	9.607894249e-12
-6.900000000e-03	2.321517357e-01	-5.032733724e-04	1.640273272e-11
-7.000000000e-03	2.321517394e-01	-5.009171164e-04	1.768826104e-11
-7.100000000e-03	2.321517431e-01	-4.985608602e-04	3.253076117e-11
-7.200000000e-03	2.321517467e-01	-4.962046040e-04	5.948198957e-12
-7.300000000e-03	2.321517503e-01	-4.938483476e-04	2.306786806e-11
-7.400000000e-03	2.321517537e-01	-4.914920912e-04	5.697224686e-12
-7.500000000e-03	2.321517571e-01	-4.891358346e-04	1.404173405e-11
-7.600000000e-03	2.321517604e-01	-4.867795780e-04	2.118435378e-12
-7.700000000e-03	2.321517637e-01	-4.844233213e-04	3.162760779e-11
-7.800000000e-03	2.321517669e-01	-4.820670645e-04	1.315422391e-11
-7.900000000e-03	2.321517700e-01	-4.797108076e-04	1.061764650e-11
-8.000000000e-03	2.321517730e-01	-4.773545506e-04	9.626142037e-12
-8.100000000e-03	2.321517760e-01	-4.749982935e-04	5.034743470e-12
-8.200000000e-03	2.321517789e-01	-4.726420364e-04	8.152188020e-12
-8.300000000e-03	2.321517817e-01	-4.702857792e-04	1.807106162e-11
-8.400000000e-03	2.321517844e-01	-4.679295220e-04	9.732566683e-12
-8.500000000e-03	2.321517871e-01	-4.655732647e-04	1.255188319e-11
-8.600000000e-03	2.321517897e-01	-4.632170073e-04	8.247691916e-12
-8.700000000e-03	2.321517922e-01	-4.608607499e-04	1.075581487e-11
-8.800000000e-03	2.321517947e-01	-4.585044924e-04	1.023198737e-11
-8.900000000e-03	2.321517971e-01	-4.561482349e-04	7.436810305e-12
-9.000000000e-03	2.321517994e-01	-4.537919773e-04	1.286879542e-11
-9.100000000e-03	2.321518017e-01	-4.514357197e-04	7.819539972e-12
-9.200000000e-03	2.321518038e-01	-4.490794621e-04	2.522265669e-11
-9.300000000e-03	2.321518059e-01	-4.467232044e-04	2.960321892e-11
-9.400000000e-03	2.321518080e-01	-4.443669467e-04	6.868168590e-12
-9.500000000e-03	2.321518099e-01	-4.420106890e-04	3.842246379e-11
-9.600000000e-03	2.321518118e-01	-4.396544313e-04	8.467336860e-12
-9.700000000e-03	2.321518136e-01	-4.372981735e-04	2.910108251e-11
-9.800000000e-03	2.321518154e-01	-4.349419158e-04	5.915942147e-12
-9.900000000e-03	2.321518170e-01	-4.325856580e-04	1.396471054e-11
-1.000000000e-02	2.321518187e-01	-4.302294002e-04	3.915446628e-12
-1.010000000e-02	2.321518202e-01	-4.278731424e-04	3.952502009e-11
-1.020000000e-02	2.321518216e-01	-4.255168846e-04	1.940065903e-11
-1.030000000e-02	2.321518230e-01	-4.231606269e-04	3.352649663e-11
-1.040000000e-02	2.321518243e-01	-4.208043691e-04	1.146177327e-11
-1.050000000e-02	2.321518256e-01	-4.184481114e-04	1.144797542e-11
-1.060000000e-02	2.321518268e-01	-4.160918536e-04	2.279918516e-11
-1.070000000e-02	2.321518279e-01	-4.137355959e-04	1.228390577e-11
-1.080000000e-02	2.321518289e-01	-4.113793382e-04	1.217708107e-11
-1.090000000e-02	2.321518298e-01	-4.090230805e-04	1.676643616e-11
-1.100000000e-02	2.321518307e-01	-4.066668229e-04	8.916416610e-12
-1.110000000e-02	2.321518315e-01	-4.043105653e-04	1.740092605e-11
-1.120000000e-02	2.321518323e-01	-4.019543077e-04	9.851637994e-12
-1.130000000e-02	2.321518329e-01	-3.995980502e-04	7.948721323e-12
-1.140000000e-02	2.321518335e-01	-3.972417927e-04	1.455476091e-11
-1.150000000e-02	2.321518341e-01	-3.948855353e-04	8.953472587e-12
-1.160000000e-02	2.321518345e-01	-3.925292779e-04	3.910784463e-12
-1.170000000e-02	2.321518349e-01	-3.901730206e-04	1.546672985e-11
-1.180000000e-02	2.321518352e-01	-3.878167634e-04	3.994880901e-11
-1.190000000e-02	2.321518354e-01	-3.854605062e-04	2.629824935e-11
-1.200000000e-02	2.321518356e-01	-3.831042490e-04	1.267108564e-11
-1.210000000e-02	2.321518357e-01	-3.807479920e-04	1.341368230e-11
-1.220000000e-02	2.321518357e-01	-3.783917350e-04	2.395508214e-11
-1.230000000e-02	2.321518357e-01	-3.760354781e-04	6.214859577e-12
-1.240000000e-02	2.321518356e-01	-3.736792213e-04	1.183346250e-11
-1.250000000e-02	2.321518354e-01	-3.713229645e-04	2.030184270e-11
-1.260000000e-02	2.321518351e-01	-3.689667079e-04	6.600732811e-12
-1.270000000e-02	2.321518348e-01	-3.666104513e-04	4.570955833e-11
-1.280000000e-02	2.321518344e-01	-3.642541949e-04	6.841046171e-12
-1.290000000e-02	2.321518339e-01	-3.618979385e-04	8.416005147e-12
-1.300000000e-02	2.321518333e-01	-3.595416822e-04	7.136061175e-12
-1.310000000e-02	2.321518327e-01	-3.571854261e-04	2.389800596e-11
-1.320000000e-02	2.321518320e-01	-3.548291700e-04	1.611103027e-11
-1.330000000e-02	2.321518313e-01	-3.524729141e-04	8.275453911e-12
-1.340000000e-02	2.321518304e-01	-3.501166583e-04	1.160497406e-11
-1.350000000e-02	2.321518295e-01	-3.477604026e-04	1.044543719e-11
-1.360000000e-02	2.321518285e-01	-3.454041471e-04	6.787301742e-12
-1.370000000e-02	2.321518275e-01	-3.430478916e-04	1.097885803e-11
-1.380000000e-02	2.321518264e-01	-3.406916363e-04	1.134331406e-11
-1.390000000e-02	2.321518252e-01	-3.383353812e-04	9.788096278e-12
-1.400000000e-02	2.321518239e-01	-3.359791261e-04	1.567323573e-11
-1.410000000e-02	2.321518226e-01	-3.336228713e-04	5.696732086e-12
-1.420000000e-02	2.321518211e-01	-3.312666165e-04	5.118354949e-11
-1.430000000e-02	2.321518197e-01	-3.289103620e-04	1.680007604e-11
-1.440000000e-02	2.321518181e-01	-3.265541075e-04	1.688681540e-11
-1.450000000e-02	2.321518165e-01	-3.241978533e-04	5.120994134e-11
-1.460000000e-02	2.321518148e-01	-3.218415992e-04	4.644123683e-11
-1.470000000e-02	2.321518130e-01	-3.194853452e-04	1.666986606e-10
-1.480000000e-02	2.321518112e-01	-3.171290914e-04	1.777698800e-11
-1.490000000e-02	2.321518093e-01	-3.147728378e-04	3.717610703e-11
-1.500000000e-02	2.321518073e-01	-3.124165844e-04	7.102854956e-12
-1.510000000e-02	2.321518052e-01	-3.100603312e-04	8.368867536e-12
-1.520000000e-02	2.321518031e-01	-3.077040781e-04	2.535995991e-11
-1.530000000e-02	2.321518009e-01	-3.053478252e-04	1.296888125e-11
-1.540000000e-02	2.321517986e-01	-3.029915725e-04	1.519390869e-11
-1.550000000e-02	2.321517963e-01	-3.006353200e-04	1.273651541e-11
-1.560000000e-02	2.321517939e-01	-2.982790678e-04	2.103092572e-11
-1.570000000e-02	2.321517914e-01	-2.959228157e-04	1.169076888e-11
-1.580000000e-02	2.321517888e-01	-2.935665638e-04	7.575959693e-12
-1.590000000e-02	2.321517862e-01	-2.912103121e-04	9.112117061e-12
-1.600000000e-02	2.321517835e-01	-2.888540606e-04	1.225203821e-11
-1.610000000e-02	2.321517807e-01	-2.864978094e-04	1.394867886e-11
-1.620000000e-02	2.321517779e-01	-2.841415584e-04	8.026868659e-12
-1.630000000e-02	2.321517750e-01	-2.817853076e-04	1.329041425e-11
-1.640000000e-02	2.321517720e-01	-2.794290570e-04	9.034573597e-12
-1.650000000e-02	2.321517689e-01	-2.770728066e-04	8.267543874e-12
-1.660000000e-02	2.321517658e-01	-2.747165565e-04	9.206000298e-12
-1.670000000e-02	2.321517626e-01	-2.723603066e-04	3.982442750e-11
-1.680000000e-02	2.321517593e-01	-2.700040570e-04	7.528422505e-12
-1.690000000e-02	2.321517559e-01	-2.676478076e-04	6.970503123e-12
-1.700000000e-02	2.321517525e-01	-2.652915585e-04	2.222640605e-11
-1.710000000e-02	2.321517490e-01	-2.629353096e-04	2.255800710e-11
-1.720000000e-02	2.321517455e-01	-2.605790610e-04	4.714421300e-11
-1.730000000e-02	2.321517418e-01	-2.582228126e-04	1.273141199e-11
-1.740000000e-02	2.321517381e-01	-2.558665645e-04	9.053107743e-12
-1.750000000e-02	2.321517344e-01	-2.535103167e-04	6.739483278e-11
-1.760000000e-02	2.321517305e-01	-2.511540691e-04	1.592242426e-11
-1.770000000e-02	2.321517266e-01	-2.487978218e-04	4.549797654e-12
-1.780000000e-02	2.321517226e-01	-2.464415748e-04	1.089885181e-11
-1.790000000e-02	2.321517185e-01	-2.440853280e-04	1.230564979e-11
-1.800000000e-02	2.321517144e-01	-2.417290816e-04	1.006867208e-11
-1.810000000e-02	2.321517102e-01	-2.393728354e-04	4.756035606e-12
-1.820000000e-02	2.321517059e-01	-2.370165896e-04	1.516561944e-11
-1.830000000e-02	2.321517016e-01	-2.346603440e-04	1.170456140e-11
-1.840000000e-02	2.321516971e-01	-2.323040987e-04	1.426816731e-11
-1.850000000e-02	2.321516926e-01	-2.299478537e-04	3.081622216e-11
-1.860000000e-02	2.321516881e-01	-2.275916091e-04	9.049326093e-12
-1.870000000e-02	2.321516834e-01	-2.252353647e-04	1.577505933e-11
-1.880000000e-02	2.321516787e-01	-2.228791207e-04	9.849685950e-12
-1.890000000e-02	2.321516740e-01	-2.205228770e-04	8.632247741e-12
-1.900000000e-02	2.321516691e-01	-2.181666336e-04	7.565961286e-12
-1.910000000e-02	2.321516642e-01	-2.158103905e-04	8.402744522e-12
-1.920000000e-02	2.321516592e-01	-2.134541478e-04	1.497653496e-11
-1.930000000e-02	2.321516541e-01	-2.110979053e-04	8.781018047e-12
-1.940000000e-02	2.321516490e-01	-2.087416633e-04	1.769957790e-11
-1.950000000e-02	2.321516438e-01	-2.063854215e-04	2.212752010e-11
-1.960000000e-02	2.321516385e-01	-2.040291801e-04	1.106935790e-11
-1.970000000e-02	2.321516331e-01	-2.016729391e-04	1.064412416e-11
-1.980000000e-02	2.321516277e-01	-1.993166984e-04	6.492313446e-12
-1.990000000e-02	2.321516222e-01	-1.969604581e-04	9.517050445e-12
-2.000000000e-02	2.321516166e-01	-1.946042181e-04	2.511541577e-11
-2.010000000e-02	2.321516110e-01	-1.922479785e-04	1.098068768e-11
-2.020000000e-02	2.321516053e-01	-1.898917392e-04	9.717990212e-12
-2.030000000e-02	2.321515995e-01	-1.875355003e-04	1.685632339e-11
-2.040000000e-02	2.321515936e-01	-1.851792618e-04	5.319474281e-12
-2.050000000e-02	2.321515877e-01	-1.828230237e-04	1.108589010e-11
-2.060000000e-02	2.321515817e-01	-1.804667859e-04	8.103873440e-12
-2.070000000e-02	2.321515756e-01	-1.781105485e-04	7.587186530e-12
-2.080000000e-02	2.321515695e-01	-1.757543115e-04	1.009856802e-11
-2.090000000e-02	2.321515633e-01	-1.733980749e-04	1.131221505e-11
-2.100000000e-02	2.321515570e-01	-1.710418387e-04	1.175446699e-11
-2.110000000e-02	2.321515506e-01	-1.686856029e-04	4.582599863e-12
-2.120000000e-02	2.321515442e-01	-1.663293675e-04	2.104115037e-11
-2.130000000e-02	2.321515377e-01	-1.639731325e-04	2.265813577e-11
-2.140000000e-02	2.321515311e-01	-1.616168979e-04	1.488055258e-11
-2.150000000e-02	2.321515245e-01	-1.592606638e-04	1.233088579e-11
-2.160000000e-02	2.321515178e-01	-1.569044300e-04	9.805189953e-12
-2.170000000e-02	2.321515110e-01	-1.545481966e-04	1.189952100e-11
-2.180000000e-02	2.321515041e-01	-1.521919637e-04	1.550879564e-11
-2.190000000e-02	2.321514972e-01	-1.498357312e-04	9.724757061e-12
-2.200000000e-02	2.321514902e-01	-1.474794992e-04	1.063256651e-10
-2.210000000e-02	2.321514831e-01	-1.451232676e-04	9.360667864e-12
-2.220000000e-02	2.321514760e-01	-1.427670364e-04	5.268135593e-11
-2.230000000e-02	2.321514687e-01	-1.404108056e-04	9.605503503e-12
-2.240000000e-02	2.321514614e-01	-1.380545753e-04	1.550432208e-11
-2.250000000e-02	2.321514541e-01	-1.356983455e-04	1.002691795e-11
-2.260000000e-02	2.321514466e-01	-1.333421161e-04	2.040734416e-11
-2.270000000e-02	2.321514391e-01	-1.309858871e-04	1.828490027e-11
-2.280000000e-02	2.321514316e-01	-1.286296586e-04	1.818552072e-11
-2.290000000e-02	2.321514239e-01	-1.262734306e-04	4.434057915e-11
-2.300000000e-02	2.321514162e-01	-1.239172031e-04	1.155957632e-11
-2.310000000e-02	2.321514084e-01	-1.215609760e-04	2.220012199e-11
-2.320000000e-02	2.321514005e-01	-1.192047494e-04	9.572560535e-12
-2.330000000e-02	2.321513926e-01	-1.168485232e-04	1.280289676e-11
-2.340000000e-02	2.321513846e-01	-1.144922976e-04	1.915440989e-11
-2.350000000e-02	2.321513765e-01	-1.121360724e-04	1.219156050e-11
-2.360000000e-02	2.321513684e-01	-1.097798477e-04	7.690721174e-12
-2.370000000e-02	2.321513601e-01	-1.074236236e-04	3.118094204e-11
-2.380000000e-02	2.321513518e-01	-1.050673999e-04	4.901647355e-12
-2.390000000e-02	2.321513435e-01	-1.027111767e-04	1.020453046e-11
-2.400000000e-02	2.321513350e-01	-1.003549540e-04	1.478590717e-11
-2.410000000e-02	2.321513265e-01	-9.799873182e-05	2.652125649e-11
-2.420000000e-02	2.321513179e-01	-9.564251015e-05	6.055734638e-12
-2.430000000e-02	2.321513093e-01	-9.328628899e-05	6.293066525e-12
-2.440000000e-02	2.321513006e-01	-9.093006836e-05	1.085418847e-11
-2.450000000e-02	2.321512918e-01	-8.857384825e-05	9.698833325e-12
-2.460000000e-02	2.321512829e-01	-8.621762866e-05	8.575574180e-12
-2.470000000e-02	2.321512740e-01	-8.386140960e-05	7.430556792e-12
-2.480000000e-02	2.321512650e-01	-8.150519107e-05	1.453230365e-11
-2.490000000e-02	2.321512559e-01	-7.914897308e-05	1.074735985e-11
-2.500000000e-02	2.321512467e-01	-7.679275563e-05	1.039900876e-11
-2.510000000e-02	2.321512375e-01	-7.443653872e-05	1.665090772e-11
-2.520000000e-02	2.321512282e-01	-7.208032236e-05	6.353630120e-12
-2.530000000e-02	2.321512188e-01	-6.972410655e-05	1.558073735e-11
-2.540000000e-02	2.321512094e-01	-6.736789129e-05	4.341842991e-12
-2.550000000e-02	2.321511999e-01	-6.501167659e-05	1.584043923e-11
-2.560000000e-02	2.321511903e-01	-6.265546245e-05	6.297804092e-12
-2.570000000e-02	2.321511806e-01	-6.029924888e-05	1.532760805e-11
-2.580000000e-02	2.321511709e-01	-5.794303588e-05	9.905635882e-12
-2.590000000e-02	2.321511611e-01	-5.558682345e-05	1.184433117e-11
-2.600000000e-02	2.321511512e-01	-5.323061159e-05	1.028053999e-11
-2.610000000e-02	2.321511413e-01	-5.087440032e-05	3.091440464e-11
-2.620000000e-02	2.321511313e-01	-4.851818963e-05	4.103547093e-11
-2.630000000e-02	2.321511212e-01	-4.616197952e-05	1.182590422e-11
-2.640000000e-02	2.321511110e-01	-4.380577001e-05	2.696050661e-11
-2.650000000e-02	2.321511008e-01	-4.144956109e-05	9.501599470e-12
-2.660000000e-02	2.321510905e-01	-3.909335276e-05	1.038080162e-11
-2.670000000e-02	2.321510801e-01	-3.673714504e-05	1.173382401e-11
-2.680000000e-02	2.321510697e-01	-3.438093793e-05	4.253409839e-12
-2.690000000e-02	2.321510591e-01	-3.202473142e-05	1.563894608e-11
-2.700000000e-02	2.321510486e-01	-2.966852553e-05	2.221225763e-11
-2.710000000e-02	2.321510379e-01	-2.731232025e-05	1.620163172e-11
-2.720000000e-02	2.321510272e-01	-2.495611559e-05	4.405648974e-11
-2.730000000e-02	2.321510164e-01	-2.259991155e-05	6.424839802e-12
-2.740000000e-02	2.321510055e-01	-2.024370814e-05	5.262274909e-11
-2.750000000e-02	2.321509945e-01	-1.788750537e-05	1.084007662e-11
-2.760000000e-02	2.321509835e-01	-1.553130322e-05	1.170014594e-11
-2.770000000e-02	2.321509724e-01	-1.317510172e-05	3.047662529e-11
-2.780000000e-02	2.321509613e-01	-1.081890085e-05	1.371750733e-11
-2.790000000e-02	2.321509500e-01	-8.462700633e-06	4.560584595e-12
-2.800000000e-02	2.321509387e-01	-6.106501062e-06	1.052030070e-11
-2.810000000e-02	2.321509273e-01	-3.750302144e-06	1.219664848e-11
-2.820000000e-02	2.321509159e-01	-1.394103877e-06	7.569620701e-11
-2.830000000e-02	2.321509044e-01	9.620937210e-07	7.654436722e-12
-2.840000000e-02	2.321508928e-01	3.318290659e-06	4.243957437e-11
-2.850000000e-02	2.321508811e-01	5.674486933e-06	1.226250768e-11
-2.860000000e-02	2.321508694e-01	8.030682536e-06	1.002717890e-11
-2.870000000e-02	2.321508576e-01	1.038687746e-05	1.125512750e-11
-2.880000000e-02	2.321508457e-01	1.274307171e-05	7.028059375e-12
-2.890000000e-02	2.321508337e-01	1.509926528e-05	9.371407117e-12
-2.900000000e-02	2.321508217e-01	1.745545817e-05	1.719799583e-11
-2.910000000e-02	2.321508096e-01	1.981165036e-05	1.236312417e-11
-2.920000000e-02	2.321507974e-01	2.216784186e-05	2.230282719e-11
-2.930000000e-02	2.321507852e-01	2.452403267e-05	1.966235940e-11
-2.940000000e-02	2.321507729e-01	2.688022278e-05	7.524015244e-12
-2.950000000e-02	2.321507605e-01	2.923641218e-05	1.271441292e-11
-2.960000000e-02	2.321507481e-01	3.159260087e-05	1.466960271e-11
-2.970000000e-02	2.321507355e-01	3.394878886e-05	9.294187885e-12
-2.980000000e-02	2.321507229e-01	3.630497613e-05	4.455389285e-11
-2.990000000e-02	2.321507103e-01	3.866116269e-05	1.984881551e-11
-3.000000000e-02	2.321506975e-01	4.101734852e-05	6.448828216e-12
