# Im(epsi1)     Re(omega/c)      Im(omega/c)      Eq(det).Opt det CON kz, R=0.5 \mum, mu_c=0.3, Re(epsi1)=3.90solve_det_conkz_vs_kz.py
0.000000000e+00	2.321396456e-01	-6.658113629e-04	1.050569454e-11
-1.000000000e-04	2.321396543e-01	-6.634552073e-04	8.058089560e-12
-2.000000000e-04	2.321396629e-01	-6.610990513e-04	1.100486163e-11
-3.000000000e-04	2.321396715e-01	-6.587428950e-04	1.645818995e-11
-4.000000000e-04	2.321396800e-01	-6.563867384e-04	1.303344180e-11
-5.000000000e-04	2.321396884e-01	-6.540305814e-04	1.785502112e-11
-6.000000000e-04	2.321396967e-01	-6.516744240e-04	1.030129431e-11
-7.000000000e-04	2.321397050e-01	-6.493182663e-04	9.588020199e-11
-8.000000000e-04	2.321397132e-01	-6.469621083e-04	1.411866554e-11
-9.000000000e-04	2.321397213e-01	-6.446059499e-04	3.637033136e-11
-1.000000000e-03	2.321397294e-01	-6.422497912e-04	2.093504986e-11
-1.100000000e-03	2.321397373e-01	-6.398936322e-04	9.076856144e-12
-1.200000000e-03	2.321397452e-01	-6.375374728e-04	1.509897494e-11
-1.300000000e-03	2.321397531e-01	-6.351813131e-04	1.319700613e-11
-1.400000000e-03	2.321397609e-01	-6.328251531e-04	2.968241445e-11
-1.500000000e-03	2.321397686e-01	-6.304689928e-04	1.017148801e-11
-1.600000000e-03	2.321397762e-01	-6.281128322e-04	3.303636377e-11
-1.700000000e-03	2.321397837e-01	-6.257566713e-04	8.120837110e-12
-1.800000000e-03	2.321397912e-01	-6.234005100e-04	1.270591442e-11
-1.900000000e-03	2.321397986e-01	-6.210443485e-04	2.017551260e-11
-2.000000000e-03	2.321398060e-01	-6.186881866e-04	1.050198304e-11
-2.100000000e-03	2.321398132e-01	-6.163320245e-04	1.655909549e-11
-2.200000000e-03	2.321398204e-01	-6.139758621e-04	1.590886551e-11
-2.300000000e-03	2.321398275e-01	-6.116196994e-04	2.231498323e-11
-2.400000000e-03	2.321398346e-01	-6.092635364e-04	1.032498674e-11
-2.500000000e-03	2.321398416e-01	-6.069073732e-04	1.382483960e-11
-2.600000000e-03	2.321398485e-01	-6.045512096e-04	2.790737857e-11
-2.700000000e-03	2.321398553e-01	-6.021950458e-04	1.537622898e-11
-2.800000000e-03	2.321398621e-01	-5.998388817e-04	1.555409902e-11
-2.900000000e-03	2.321398688e-01	-5.974827174e-04	3.347076852e-11
-3.000000000e-03	2.321398754e-01	-5.951265528e-04	8.554336791e-12
-3.100000000e-03	2.321398819e-01	-5.927703879e-04	1.903636943e-11
-3.200000000e-03	2.321398884e-01	-5.904142228e-04	5.617997422e-12
-3.300000000e-03	2.321398948e-01	-5.880580575e-04	1.448605843e-11
-3.400000000e-03	2.321399011e-01	-5.857018919e-04	1.142437898e-11
-3.500000000e-03	2.321399074e-01	-5.833457260e-04	1.362055861e-11
-3.600000000e-03	2.321399136e-01	-5.809895600e-04	1.086733282e-11
-3.700000000e-03	2.321399197e-01	-5.786333936e-04	7.757328361e-12
-3.800000000e-03	2.321399258e-01	-5.762772271e-04	1.018579987e-11
-3.900000000e-03	2.321399317e-01	-5.739210603e-04	3.959499697e-11
-4.000000000e-03	2.321399376e-01	-5.715648933e-04	1.163884417e-11
-4.100000000e-03	2.321399435e-01	-5.692087261e-04	2.313610452e-11
-4.200000000e-03	2.321399492e-01	-5.668525587e-04	1.041851026e-11
-4.300000000e-03	2.321399549e-01	-5.644963910e-04	1.137937593e-11
-4.400000000e-03	2.321399605e-01	-5.621402232e-04	1.898306541e-11
-4.500000000e-03	2.321399661e-01	-5.597840551e-04	3.062859117e-11
-4.600000000e-03	2.321399715e-01	-5.574278868e-04	3.011597871e-11
-4.700000000e-03	2.321399769e-01	-5.550717184e-04	3.411857592e-11
-4.800000000e-03	2.321399823e-01	-5.527155497e-04	7.414982258e-12
-4.900000000e-03	2.321399875e-01	-5.503593809e-04	1.292293176e-11
-5.000000000e-03	2.321399927e-01	-5.480032118e-04	6.267323829e-12
-5.100000000e-03	2.321399978e-01	-5.456470426e-04	1.476315769e-11
-5.200000000e-03	2.321400029e-01	-5.432908732e-04	8.096838324e-12
-5.300000000e-03	2.321400078e-01	-5.409347036e-04	3.985133576e-11
-5.400000000e-03	2.321400127e-01	-5.385785339e-04	1.279009351e-11
-5.500000000e-03	2.321400176e-01	-5.362223640e-04	1.016920510e-11
-5.600000000e-03	2.321400223e-01	-5.338661939e-04	6.376560884e-12
-5.700000000e-03	2.321400270e-01	-5.315100236e-04	9.673180515e-12
-5.800000000e-03	2.321400316e-01	-5.291538532e-04	2.109050175e-11
-5.900000000e-03	2.321400362e-01	-5.267976827e-04	5.458480738e-11
-6.000000000e-03	2.321400406e-01	-5.244415119e-04	8.575619308e-12
-6.100000000e-03	2.321400450e-01	-5.220853411e-04	1.646708743e-11
-6.200000000e-03	2.321400494e-01	-5.197291701e-04	1.004350833e-11
-6.300000000e-03	2.321400536e-01	-5.173729989e-04	5.419779552e-12
-6.400000000e-03	2.321400578e-01	-5.150168277e-04	1.326616876e-11
-6.500000000e-03	2.321400619e-01	-5.126606563e-04	2.763122654e-11
-6.600000000e-03	2.321400659e-01	-5.103044847e-04	8.722642164e-12
-6.700000000e-03	2.321400699e-01	-5.079483131e-04	1.391433798e-11
-6.800000000e-03	2.321400738e-01	-5.055921413e-04	1.031781408e-11
-6.900000000e-03	2.321400776e-01	-5.032359694e-04	2.193280978e-11
-7.000000000e-03	2.321400814e-01	-5.008797973e-04	2.024362053e-11
-7.100000000e-03	2.321400851e-01	-4.985236252e-04	2.441963493e-11
-7.200000000e-03	2.321400887e-01	-4.961674530e-04	1.280754192e-11
-7.300000000e-03	2.321400922e-01	-4.938112806e-04	7.473618638e-12
-7.400000000e-03	2.321400957e-01	-4.914551082e-04	2.519025031e-11
-7.500000000e-03	2.321400991e-01	-4.890989356e-04	1.077266276e-11
-7.600000000e-03	2.321401024e-01	-4.867427630e-04	9.203455211e-12
-7.700000000e-03	2.321401056e-01	-4.843865903e-04	8.910716154e-12
-7.800000000e-03	2.321401088e-01	-4.820304175e-04	1.604184811e-11
-7.900000000e-03	2.321401119e-01	-4.796742446e-04	9.267150463e-12
-8.000000000e-03	2.321401150e-01	-4.773180716e-04	8.505046444e-12
-8.100000000e-03	2.321401179e-01	-4.749618986e-04	2.989620742e-11
-8.200000000e-03	2.321401208e-01	-4.726057255e-04	2.182275581e-11
-8.300000000e-03	2.321401236e-01	-4.702495523e-04	1.124814515e-11
-8.400000000e-03	2.321401264e-01	-4.678933790e-04	1.361005936e-11
-8.500000000e-03	2.321401290e-01	-4.655372057e-04	5.946535141e-12
-8.600000000e-03	2.321401317e-01	-4.631810324e-04	1.025783429e-11
-8.700000000e-03	2.321401342e-01	-4.608248590e-04	1.993157531e-11
-8.800000000e-03	2.321401366e-01	-4.584686855e-04	2.377459145e-11
-8.900000000e-03	2.321401390e-01	-4.561125120e-04	7.726424424e-12
-9.000000000e-03	2.321401414e-01	-4.537563385e-04	1.447077726e-11
-9.100000000e-03	2.321401436e-01	-4.514001649e-04	1.949418983e-11
-9.200000000e-03	2.321401458e-01	-4.490439912e-04	1.225904478e-11
-9.300000000e-03	2.321401479e-01	-4.466878176e-04	1.325822718e-11
-9.400000000e-03	2.321401499e-01	-4.443316439e-04	1.142308454e-11
-9.500000000e-03	2.321401519e-01	-4.419754702e-04	1.772534996e-11
-9.600000000e-03	2.321401538e-01	-4.396192965e-04	1.245133383e-11
-9.700000000e-03	2.321401556e-01	-4.372631227e-04	5.409111487e-11
-9.800000000e-03	2.321401573e-01	-4.349069490e-04	9.920730400e-12
-9.900000000e-03	2.321401590e-01	-4.325507752e-04	7.287857121e-12
-1.000000000e-02	2.321401606e-01	-4.301946014e-04	1.458929408e-11
-1.010000000e-02	2.321401621e-01	-4.278384277e-04	3.385236640e-11
-1.020000000e-02	2.321401636e-01	-4.254822539e-04	7.861349020e-11
-1.030000000e-02	2.321401650e-01	-4.231260801e-04	1.238011984e-11
-1.040000000e-02	2.321401663e-01	-4.207699064e-04	1.160688437e-11
-1.050000000e-02	2.321401675e-01	-4.184137326e-04	3.471184404e-11
-1.060000000e-02	2.321401687e-01	-4.160575589e-04	7.781838354e-12
-1.070000000e-02	2.321401698e-01	-4.137013852e-04	8.650799480e-12
-1.080000000e-02	2.321401708e-01	-4.113452115e-04	2.185820427e-11
-1.090000000e-02	2.321401718e-01	-4.089890379e-04	4.883926716e-11
-1.100000000e-02	2.321401726e-01	-4.066328642e-04	1.755454824e-11
-1.110000000e-02	2.321401735e-01	-4.042766906e-04	8.138274212e-12
-1.120000000e-02	2.321401742e-01	-4.019205171e-04	2.217278293e-11
-1.130000000e-02	2.321401749e-01	-3.995643436e-04	5.029089353e-11
-1.140000000e-02	2.321401755e-01	-3.972081701e-04	2.039719598e-11
-1.150000000e-02	2.321401760e-01	-3.948519967e-04	9.212651104e-12
-1.160000000e-02	2.321401764e-01	-3.924958233e-04	2.526586129e-11
-1.170000000e-02	2.321401768e-01	-3.901396500e-04	2.673210303e-11
-1.180000000e-02	2.321401771e-01	-3.877834768e-04	9.007475473e-12
-1.190000000e-02	2.321401774e-01	-3.854273036e-04	1.399673948e-11
-1.200000000e-02	2.321401775e-01	-3.830711305e-04	1.531551247e-11
-1.210000000e-02	2.321401776e-01	-3.807149574e-04	1.003499672e-11
-1.220000000e-02	2.321401777e-01	-3.783587845e-04	1.912708347e-11
-1.230000000e-02	2.321401776e-01	-3.760026116e-04	5.886256063e-12
-1.240000000e-02	2.321401775e-01	-3.736464387e-04	1.919103548e-11
-1.250000000e-02	2.321401773e-01	-3.712902660e-04	1.160235154e-11
-1.260000000e-02	2.321401770e-01	-3.689340934e-04	8.282005937e-12
-1.270000000e-02	2.321401767e-01	-3.665779208e-04	1.885627737e-11
-1.280000000e-02	2.321401763e-01	-3.642217484e-04	7.245142237e-11
-1.290000000e-02	2.321401758e-01	-3.618655760e-04	3.250773160e-11
-1.300000000e-02	2.321401753e-01	-3.595094038e-04	1.552101977e-11
-1.310000000e-02	2.321401746e-01	-3.571532316e-04	7.855466077e-12
-1.320000000e-02	2.321401739e-01	-3.547970596e-04	1.503388610e-11
-1.330000000e-02	2.321401732e-01	-3.524408877e-04	7.125141990e-12
-1.340000000e-02	2.321401723e-01	-3.500847159e-04	8.128894683e-12
-1.350000000e-02	2.321401714e-01	-3.477285442e-04	3.298224684e-11
-1.360000000e-02	2.321401704e-01	-3.453723727e-04	1.616391451e-11
-1.370000000e-02	2.321401694e-01	-3.430162013e-04	8.723976384e-12
-1.380000000e-02	2.321401683e-01	-3.406600300e-04	9.177836100e-11
-1.390000000e-02	2.321401671e-01	-3.383038588e-04	1.747978035e-11
-1.400000000e-02	2.321401658e-01	-3.359476878e-04	1.415805873e-11
-1.410000000e-02	2.321401645e-01	-3.335915169e-04	1.334402008e-11
-1.420000000e-02	2.321401630e-01	-3.312353462e-04	1.232285874e-11
-1.430000000e-02	2.321401616e-01	-3.288791756e-04	6.498807528e-12
-1.440000000e-02	2.321401600e-01	-3.265230052e-04	7.718445360e-12
-1.450000000e-02	2.321401584e-01	-3.241668350e-04	5.302711329e-12
-1.460000000e-02	2.321401567e-01	-3.218106649e-04	1.595223698e-11
-1.470000000e-02	2.321401549e-01	-3.194544949e-04	1.094725703e-11
-1.480000000e-02	2.321401531e-01	-3.170983252e-04	2.123653878e-11
-1.490000000e-02	2.321401512e-01	-3.147421556e-04	1.272652870e-11
-1.500000000e-02	2.321401492e-01	-3.123859862e-04	2.304184168e-11
-1.510000000e-02	2.321401471e-01	-3.100298169e-04	1.496952325e-11
-1.520000000e-02	2.321401450e-01	-3.076736479e-04	2.736024002e-11
-1.530000000e-02	2.321401428e-01	-3.053174790e-04	1.353918189e-11
-1.540000000e-02	2.321401405e-01	-3.029613103e-04	1.329519646e-11
-1.550000000e-02	2.321401382e-01	-3.006051419e-04	1.538514598e-11
-1.560000000e-02	2.321401358e-01	-2.982489736e-04	2.905967583e-11
-1.570000000e-02	2.321401333e-01	-2.958928055e-04	9.679564108e-12
-1.580000000e-02	2.321401307e-01	-2.935366376e-04	1.260218932e-11
-1.590000000e-02	2.321401281e-01	-2.911804700e-04	9.105554386e-12
-1.600000000e-02	2.321401254e-01	-2.888243025e-04	1.025589564e-11
-1.610000000e-02	2.321401226e-01	-2.864681353e-04	9.437300218e-12
-1.620000000e-02	2.321401198e-01	-2.841119683e-04	2.108111110e-11
-1.630000000e-02	2.321401168e-01	-2.817558015e-04	8.445695661e-12
-1.640000000e-02	2.321401139e-01	-2.793996349e-04	7.368840859e-12
-1.650000000e-02	2.321401108e-01	-2.770434686e-04	3.006306004e-11
-1.660000000e-02	2.321401077e-01	-2.746873025e-04	1.743920588e-11
-1.670000000e-02	2.321401045e-01	-2.723311366e-04	2.659723316e-11
-1.680000000e-02	2.321401012e-01	-2.699749710e-04	1.926722109e-11
-1.690000000e-02	2.321400978e-01	-2.676188056e-04	1.115967428e-11
-1.700000000e-02	2.321400944e-01	-2.652626405e-04	2.672606431e-11
-1.710000000e-02	2.321400909e-01	-2.629064756e-04	1.691026644e-11
-1.720000000e-02	2.321400874e-01	-2.605503110e-04	4.219438470e-12
-1.730000000e-02	2.321400837e-01	-2.581941466e-04	1.915253597e-11
-1.740000000e-02	2.321400800e-01	-2.558379825e-04	1.893038285e-11
-1.750000000e-02	2.321400762e-01	-2.534818187e-04	6.182488563e-11
-1.760000000e-02	2.321400724e-01	-2.511256551e-04	1.126699828e-11
-1.770000000e-02	2.321400685e-01	-2.487694919e-04	1.062431336e-11
-1.780000000e-02	2.321400645e-01	-2.464133289e-04	1.354587257e-11
-1.790000000e-02	2.321400604e-01	-2.440571661e-04	1.015203916e-11
-1.800000000e-02	2.321400563e-01	-2.417010037e-04	2.204239530e-11
-1.810000000e-02	2.321400521e-01	-2.393448415e-04	6.723580710e-12
-1.820000000e-02	2.321400478e-01	-2.369886797e-04	6.347228592e-12
-1.830000000e-02	2.321400434e-01	-2.346325181e-04	1.949129666e-11
-1.840000000e-02	2.321400390e-01	-2.322763569e-04	3.249855499e-11
-1.850000000e-02	2.321400345e-01	-2.299201959e-04	2.169146055e-11
-1.860000000e-02	2.321400300e-01	-2.275640353e-04	1.942438367e-11
-1.870000000e-02	2.321400253e-01	-2.252078749e-04	3.922632900e-11
-1.880000000e-02	2.321400206e-01	-2.228517149e-04	1.269258200e-11
-1.890000000e-02	2.321400158e-01	-2.204955552e-04	1.125424580e-11
-1.900000000e-02	2.321400110e-01	-2.181393958e-04	8.598642635e-12
-1.910000000e-02	2.321400061e-01	-2.157832367e-04	1.193183876e-11
-1.920000000e-02	2.321400011e-01	-2.134270780e-04	7.727645521e-12
-1.930000000e-02	2.321399960e-01	-2.110709196e-04	1.189868515e-11
-1.940000000e-02	2.321399909e-01	-2.087147615e-04	1.601601592e-11
-1.950000000e-02	2.321399856e-01	-2.063586038e-04	1.381896797e-11
-1.960000000e-02	2.321399804e-01	-2.040024464e-04	1.033219519e-11
-1.970000000e-02	2.321399750e-01	-2.016462894e-04	2.375295544e-11
-1.980000000e-02	2.321399696e-01	-1.992901327e-04	2.483753849e-11
-1.990000000e-02	2.321399641e-01	-1.969339764e-04	1.809887482e-11
-2.000000000e-02	2.321399585e-01	-1.945778204e-04	4.555721603e-11
-2.010000000e-02	2.321399529e-01	-1.922216648e-04	3.230763199e-11
-2.020000000e-02	2.321399471e-01	-1.898655096e-04	9.543938924e-12
-2.030000000e-02	2.321399414e-01	-1.875093547e-04	2.941082025e-11
-2.040000000e-02	2.321399355e-01	-1.851532002e-04	2.349758711e-11
-2.050000000e-02	2.321399296e-01	-1.827970461e-04	2.939894008e-11
-2.060000000e-02	2.321399236e-01	-1.804408923e-04	3.908594723e-11
-2.070000000e-02	2.321399175e-01	-1.780847390e-04	1.412752283e-11
-2.080000000e-02	2.321399114e-01	-1.757285860e-04	1.227947920e-11
-2.090000000e-02	2.321399051e-01	-1.733724334e-04	1.200769880e-11
-2.100000000e-02	2.321398989e-01	-1.710162812e-04	7.420938031e-12
-2.110000000e-02	2.321398925e-01	-1.686601294e-04	9.675264990e-12
-2.120000000e-02	2.321398861e-01	-1.663039780e-04	1.505778078e-11
-2.130000000e-02	2.321398796e-01	-1.639478270e-04	1.186027592e-11
-2.140000000e-02	2.321398730e-01	-1.615916765e-04	1.505289136e-11
-2.150000000e-02	2.321398663e-01	-1.592355263e-04	9.367675298e-12
-2.160000000e-02	2.321398596e-01	-1.568793765e-04	2.572243728e-11
-2.170000000e-02	2.321398528e-01	-1.545232272e-04	1.123321063e-11
-2.180000000e-02	2.321398460e-01	-1.521670783e-04	1.342705660e-11
-2.190000000e-02	2.321398390e-01	-1.498109298e-04	1.139976496e-11
-2.200000000e-02	2.321398320e-01	-1.474547818e-04	8.642520077e-12
-2.210000000e-02	2.321398250e-01	-1.450986342e-04	7.889489707e-12
-2.220000000e-02	2.321398178e-01	-1.427424870e-04	8.580223931e-12
-2.230000000e-02	2.321398106e-01	-1.403863403e-04	3.986198273e-11
-2.240000000e-02	2.321398033e-01	-1.380301940e-04	2.937114019e-11
-2.250000000e-02	2.321397959e-01	-1.356740481e-04	1.385744490e-11
-2.260000000e-02	2.321397885e-01	-1.333179027e-04	2.989410532e-11
-2.270000000e-02	2.321397810e-01	-1.309617578e-04	7.184719005e-12
-2.280000000e-02	2.321397734e-01	-1.286056133e-04	1.111294655e-11
-2.290000000e-02	2.321397658e-01	-1.262494693e-04	7.236998594e-12
-2.300000000e-02	2.321397581e-01	-1.238933258e-04	1.774764864e-11
-2.310000000e-02	2.321397503e-01	-1.215371827e-04	2.162626006e-11
-2.320000000e-02	2.321397424e-01	-1.191810401e-04	3.875319557e-11
-2.330000000e-02	2.321397345e-01	-1.168248980e-04	1.069562314e-11
-2.340000000e-02	2.321397264e-01	-1.144687564e-04	1.947830165e-11
-2.350000000e-02	2.321397184e-01	-1.121126152e-04	5.832009064e-11
-2.360000000e-02	2.321397102e-01	-1.097564746e-04	2.551684894e-11
-2.370000000e-02	2.321397020e-01	-1.074003344e-04	9.561075300e-12
-2.380000000e-02	2.321396937e-01	-1.050441947e-04	7.712557804e-12
-2.390000000e-02	2.321396853e-01	-1.026880555e-04	2.339943415e-11
-2.400000000e-02	2.321396769e-01	-1.003319169e-04	1.073148895e-11
-2.410000000e-02	2.321396684e-01	-9.797577870e-05	9.472996782e-12
-2.420000000e-02	2.321396598e-01	-9.561964104e-05	5.103910170e-11
-2.430000000e-02	2.321396511e-01	-9.326350390e-05	6.834034260e-12
-2.440000000e-02	2.321396424e-01	-9.090736728e-05	2.550667484e-11
-2.450000000e-02	2.321396336e-01	-8.855123118e-05	3.012599826e-11
-2.460000000e-02	2.321396248e-01	-8.619509561e-05	2.278368703e-11
-2.470000000e-02	2.321396158e-01	-8.383896056e-05	1.066005966e-11
-2.480000000e-02	2.321396068e-01	-8.148282604e-05	2.460896701e-11
-2.490000000e-02	2.321395977e-01	-7.912669207e-05	9.293358799e-12
-2.500000000e-02	2.321395886e-01	-7.677055863e-05	1.441117432e-11
-2.510000000e-02	2.321395793e-01	-7.441442574e-05	1.173809817e-11
-2.520000000e-02	2.321395700e-01	-7.205829339e-05	9.070943080e-12
-2.530000000e-02	2.321395607e-01	-6.970216159e-05	1.050648765e-11
-2.540000000e-02	2.321395512e-01	-6.734603035e-05	1.770738926e-11
-2.550000000e-02	2.321395417e-01	-6.498989966e-05	1.171090487e-11
-2.560000000e-02	2.321395321e-01	-6.263376954e-05	2.483888112e-11
-2.570000000e-02	2.321395225e-01	-6.027763998e-05	9.586402281e-12
-2.580000000e-02	2.321395127e-01	-5.792151099e-05	4.189560184e-11
-2.590000000e-02	2.321395029e-01	-5.556538257e-05	1.959491545e-11
-2.600000000e-02	2.321394931e-01	-5.320925473e-05	1.598281705e-11
-2.610000000e-02	2.321394831e-01	-5.085312747e-05	1.806494653e-11
-2.620000000e-02	2.321394731e-01	-4.849700079e-05	2.714101766e-11
-2.630000000e-02	2.321394630e-01	-4.614087470e-05	3.258066148e-11
-2.640000000e-02	2.321394529e-01	-4.378474920e-05	2.117615120e-11
-2.650000000e-02	2.321394426e-01	-4.142862430e-05	6.230840743e-12
-2.660000000e-02	2.321394323e-01	-3.907249999e-05	1.562476271e-11
-2.670000000e-02	2.321394219e-01	-3.671637628e-05	1.001203828e-11
-2.680000000e-02	2.321394115e-01	-3.436025318e-05	8.173511599e-12
-2.690000000e-02	2.321394010e-01	-3.200413069e-05	1.185159411e-11
-2.700000000e-02	2.321393904e-01	-2.964800881e-05	1.911433982e-11
-2.710000000e-02	2.321393797e-01	-2.729188754e-05	4.159631303e-11
-2.720000000e-02	2.321393690e-01	-2.493576690e-05	3.091351822e-11
-2.730000000e-02	2.321393582e-01	-2.257964687e-05	1.515549246e-11
-2.740000000e-02	2.321393473e-01	-2.022352748e-05	1.356284575e-11
-2.750000000e-02	2.321393364e-01	-1.786740872e-05	1.262095562e-11
-2.760000000e-02	2.321393254e-01	-1.551129059e-05	1.109825277e-11
-2.770000000e-02	2.321393143e-01	-1.315517309e-05	8.786941543e-12
-2.780000000e-02	2.321393031e-01	-1.079905624e-05	9.643751125e-12
-2.790000000e-02	2.321392919e-01	-8.442940038e-06	1.151468670e-11
-2.800000000e-02	2.321392806e-01	-6.086824483e-06	1.803931865e-11
-2.810000000e-02	2.321392692e-01	-3.730709578e-06	1.068549538e-11
-2.820000000e-02	2.321392577e-01	-1.374595329e-06	1.262463969e-11
-2.830000000e-02	2.321392462e-01	9.815182580e-07	1.084827025e-11
-2.840000000e-02	2.321392346e-01	3.337631183e-06	1.203074120e-11
-2.850000000e-02	2.321392229e-01	5.693743442e-06	6.832231959e-12
-2.860000000e-02	2.321392112e-01	8.049855031e-06	2.539766988e-11
-2.870000000e-02	2.321391994e-01	1.040596594e-05	9.682107091e-11
-2.880000000e-02	2.321391875e-01	1.276207618e-05	1.886399305e-11
-2.890000000e-02	2.321391756e-01	1.511818573e-05	1.410109266e-11
-2.900000000e-02	2.321391635e-01	1.747429460e-05	4.615022798e-12
-2.910000000e-02	2.321391515e-01	1.983040278e-05	9.218953256e-12
-2.920000000e-02	2.321391393e-01	2.218651027e-05	1.455680913e-11
-2.930000000e-02	2.321391270e-01	2.454261706e-05	3.514319171e-11
-2.940000000e-02	2.321391147e-01	2.689872315e-05	1.382008639e-11
-2.950000000e-02	2.321391024e-01	2.925482855e-05	3.429738877e-11
-2.960000000e-02	2.321390899e-01	3.161093322e-05	2.855131538e-11
-2.970000000e-02	2.321390774e-01	3.396703720e-05	1.077059764e-11
-2.980000000e-02	2.321390648e-01	3.632314045e-05	8.522518974e-12
-2.990000000e-02	2.321390521e-01	3.867924299e-05	2.806626868e-11
-3.000000000e-02	2.321390394e-01	4.103534481e-05	2.012987960e-11
