# Im(epsi1)     Re(omega/c)      Im(omega/c)      Eq(det).Opt det CON kz, R=0.5 \mum, mu_c=0.3, Re(epsi1)=3.90solve_det_conkz_vs_kz.py
0.000000000e+00	2.321374543e-01	-6.658032421e-04	1.184021926e-11
-1.000000000e-04	2.321374630e-01	-6.634471023e-04	1.131514803e-11
-2.000000000e-04	2.321374717e-01	-6.610909621e-04	1.404388445e-11
-3.000000000e-04	2.321374802e-01	-6.587348216e-04	1.900430907e-11
-4.000000000e-04	2.321374887e-01	-6.563786807e-04	3.208389915e-11
-5.000000000e-04	2.321374971e-01	-6.540225395e-04	1.083914600e-11
-6.000000000e-04	2.321375055e-01	-6.516663980e-04	9.184968004e-12
-7.000000000e-04	2.321375137e-01	-6.493102560e-04	8.552354659e-12
-8.000000000e-04	2.321375219e-01	-6.469541138e-04	8.201133167e-11
-9.000000000e-04	2.321375300e-01	-6.445979712e-04	1.456336712e-11
-1.000000000e-03	2.321375381e-01	-6.422418283e-04	2.087407222e-11
-1.100000000e-03	2.321375461e-01	-6.398856850e-04	8.684895067e-12
-1.200000000e-03	2.321375540e-01	-6.375295415e-04	1.125376497e-11
-1.300000000e-03	2.321375618e-01	-6.351733976e-04	2.711956289e-11
-1.400000000e-03	2.321375696e-01	-6.328172534e-04	6.738378647e-12
-1.500000000e-03	2.321375773e-01	-6.304611089e-04	2.541886137e-10
-1.600000000e-03	2.321375849e-01	-6.281049640e-04	1.426693688e-11
-1.700000000e-03	2.321375925e-01	-6.257488188e-04	2.615085540e-11
-1.800000000e-03	2.321375999e-01	-6.233926734e-04	1.790982070e-11
-1.900000000e-03	2.321376074e-01	-6.210365276e-04	5.323069509e-11
-2.000000000e-03	2.321376147e-01	-6.186803816e-04	6.422737568e-12
-2.100000000e-03	2.321376220e-01	-6.163242353e-04	1.292014283e-11
-2.200000000e-03	2.321376292e-01	-6.139680886e-04	1.795526468e-11
-2.300000000e-03	2.321376363e-01	-6.116119417e-04	1.010519018e-11
-2.400000000e-03	2.321376433e-01	-6.092557945e-04	1.702569539e-11
-2.500000000e-03	2.321376503e-01	-6.068996470e-04	1.709460309e-11
-2.600000000e-03	2.321376572e-01	-6.045434993e-04	2.092498481e-11
-2.700000000e-03	2.321376640e-01	-6.021873513e-04	7.518701007e-11
-2.800000000e-03	2.321376708e-01	-5.998312030e-04	1.303813969e-11
-2.900000000e-03	2.321376775e-01	-5.974750544e-04	6.641759459e-12
-3.000000000e-03	2.321376841e-01	-5.951189056e-04	2.925384237e-11
-3.100000000e-03	2.321376907e-01	-5.927627566e-04	1.250526248e-11
-3.200000000e-03	2.321376971e-01	-5.904066072e-04	2.004097816e-11
-3.300000000e-03	2.321377035e-01	-5.880504577e-04	1.179099169e-11
-3.400000000e-03	2.321377099e-01	-5.856943079e-04	2.257590954e-11
-3.500000000e-03	2.321377161e-01	-5.833381578e-04	1.961721143e-11
-3.600000000e-03	2.321377223e-01	-5.809820075e-04	2.435918182e-11
-3.700000000e-03	2.321377285e-01	-5.786258570e-04	5.273526995e-12
-3.800000000e-03	2.321377345e-01	-5.762697062e-04	7.677348464e-12
-3.900000000e-03	2.321377405e-01	-5.739135552e-04	8.266379753e-12
-4.000000000e-03	2.321377464e-01	-5.715574040e-04	7.644442066e-12
-4.100000000e-03	2.321377522e-01	-5.692012526e-04	7.978369515e-12
-4.200000000e-03	2.321377580e-01	-5.668451009e-04	8.991653495e-12
-4.300000000e-03	2.321377637e-01	-5.644889491e-04	3.853285036e-11
-4.400000000e-03	2.321377693e-01	-5.621327970e-04	1.594791379e-11
-4.500000000e-03	2.321377748e-01	-5.597766447e-04	1.108675041e-11
-4.600000000e-03	2.321377803e-01	-5.574204922e-04	1.325078723e-11
-4.700000000e-03	2.321377857e-01	-5.550643396e-04	1.418562595e-11
-4.800000000e-03	2.321377910e-01	-5.527081867e-04	1.122039431e-11
-4.900000000e-03	2.321377963e-01	-5.503520336e-04	5.153425899e-11
-5.000000000e-03	2.321378015e-01	-5.479958804e-04	1.060660126e-11
-5.100000000e-03	2.321378066e-01	-5.456397270e-04	1.966535854e-11
-5.200000000e-03	2.321378116e-01	-5.432835733e-04	7.194186129e-12
-5.300000000e-03	2.321378166e-01	-5.409274196e-04	1.834715524e-11
-5.400000000e-03	2.321378215e-01	-5.385712656e-04	4.955149489e-11
-5.500000000e-03	2.321378263e-01	-5.362151115e-04	1.758611514e-11
-5.600000000e-03	2.321378311e-01	-5.338589572e-04	5.911409833e-12
-5.700000000e-03	2.321378357e-01	-5.315028027e-04	7.702979120e-11
-5.800000000e-03	2.321378404e-01	-5.291466481e-04	1.081053417e-11
-5.900000000e-03	2.321378449e-01	-5.267904933e-04	1.933973083e-11
-6.000000000e-03	2.321378494e-01	-5.244343384e-04	2.876362663e-11
-6.100000000e-03	2.321378538e-01	-5.220781833e-04	3.645740388e-11
-6.200000000e-03	2.321378581e-01	-5.197220281e-04	1.143297824e-11
-6.300000000e-03	2.321378623e-01	-5.173658728e-04	1.085565818e-11
-6.400000000e-03	2.321378665e-01	-5.150097173e-04	1.376732222e-11
-6.500000000e-03	2.321378706e-01	-5.126535616e-04	6.871890276e-12
-6.600000000e-03	2.321378747e-01	-5.102974059e-04	2.812641230e-11
-6.700000000e-03	2.321378786e-01	-5.079412500e-04	1.252247642e-11
-6.800000000e-03	2.321378825e-01	-5.055850940e-04	1.779903564e-11
-6.900000000e-03	2.321378864e-01	-5.032289379e-04	6.637919680e-12
-7.000000000e-03	2.321378901e-01	-5.008727817e-04	1.502166622e-11
-7.100000000e-03	2.321378938e-01	-4.985166253e-04	9.741559875e-12
-7.200000000e-03	2.321378974e-01	-4.961604689e-04	1.168924236e-11
-7.300000000e-03	2.321379009e-01	-4.938043123e-04	8.370529347e-12
-7.400000000e-03	2.321379044e-01	-4.914481557e-04	1.362510490e-11
-7.500000000e-03	2.321379078e-01	-4.890919989e-04	1.007572941e-11
-7.600000000e-03	2.321379111e-01	-4.867358421e-04	6.658511353e-12
-7.700000000e-03	2.321379144e-01	-4.843796851e-04	8.030269988e-12
-7.800000000e-03	2.321379175e-01	-4.820235281e-04	2.659806397e-11
-7.900000000e-03	2.321379206e-01	-4.796673710e-04	1.104734479e-11
-8.000000000e-03	2.321379237e-01	-4.773112138e-04	5.717989218e-12
-8.100000000e-03	2.321379266e-01	-4.749550566e-04	1.666985632e-11
-8.200000000e-03	2.321379295e-01	-4.725988993e-04	1.022323818e-11
-8.300000000e-03	2.321379324e-01	-4.702427419e-04	1.527250900e-11
-8.400000000e-03	2.321379351e-01	-4.678865844e-04	2.137386300e-11
-8.500000000e-03	2.321379378e-01	-4.655304269e-04	2.543643016e-11
-8.600000000e-03	2.321379404e-01	-4.631742693e-04	1.220011570e-11
-8.700000000e-03	2.321379429e-01	-4.608181117e-04	1.307300056e-11
-8.800000000e-03	2.321379454e-01	-4.584619540e-04	7.956967282e-12
-8.900000000e-03	2.321379478e-01	-4.561057963e-04	3.722523096e-11
-9.000000000e-03	2.321379501e-01	-4.537496385e-04	1.544595859e-11
-9.100000000e-03	2.321379523e-01	-4.513934807e-04	2.509689215e-11
-9.200000000e-03	2.321379545e-01	-4.490373229e-04	2.252949585e-11
-9.300000000e-03	2.321379566e-01	-4.466811650e-04	1.241717515e-11
-9.400000000e-03	2.321379586e-01	-4.443250071e-04	9.432116220e-12
-9.500000000e-03	2.321379606e-01	-4.419688492e-04	8.900836300e-12
-9.600000000e-03	2.321379625e-01	-4.396126913e-04	1.639006645e-11
-9.700000000e-03	2.321379643e-01	-4.372565333e-04	1.614604799e-11
-9.800000000e-03	2.321379660e-01	-4.349003754e-04	1.095950988e-11
-9.900000000e-03	2.321379677e-01	-4.325442174e-04	4.592572273e-11
-1.000000000e-02	2.321379693e-01	-4.301880594e-04	3.367734327e-11
-1.010000000e-02	2.321379708e-01	-4.278319014e-04	1.896937380e-11
-1.020000000e-02	2.321379723e-01	-4.254757434e-04	2.316877899e-11
-1.030000000e-02	2.321379737e-01	-4.231195855e-04	1.641953243e-11
-1.040000000e-02	2.321379750e-01	-4.207634275e-04	3.132512651e-11
-1.050000000e-02	2.321379762e-01	-4.184072695e-04	3.124230772e-11
-1.060000000e-02	2.321379774e-01	-4.160511116e-04	1.413631286e-11
-1.070000000e-02	2.321379785e-01	-4.136949537e-04	1.058467379e-11
-1.080000000e-02	2.321379795e-01	-4.113387958e-04	8.392552020e-12
-1.090000000e-02	2.321379805e-01	-4.089826379e-04	9.904611778e-12
-1.100000000e-02	2.321379814e-01	-4.066264801e-04	8.719525033e-12
-1.110000000e-02	2.321379822e-01	-4.042703223e-04	1.695576758e-11
-1.120000000e-02	2.321379829e-01	-4.019141645e-04	1.948748806e-11
-1.130000000e-02	2.321379836e-01	-3.995580068e-04	9.438873615e-12
-1.140000000e-02	2.321379842e-01	-3.972018491e-04	1.181458379e-11
-1.150000000e-02	2.321379847e-01	-3.948456915e-04	1.556576189e-11
-1.160000000e-02	2.321379852e-01	-3.924895339e-04	1.178689565e-11
-1.170000000e-02	2.321379855e-01	-3.901333764e-04	2.162629430e-11
-1.180000000e-02	2.321379859e-01	-3.877772189e-04	1.012219319e-11
-1.190000000e-02	2.321379861e-01	-3.854210615e-04	1.184423841e-11
-1.200000000e-02	2.321379863e-01	-3.830649042e-04	3.062427367e-11
-1.210000000e-02	2.321379864e-01	-3.807087469e-04	1.274900079e-11
-1.220000000e-02	2.321379864e-01	-3.783525897e-04	2.153059488e-11
-1.230000000e-02	2.321379863e-01	-3.759964326e-04	2.529961157e-11
-1.240000000e-02	2.321379862e-01	-3.736402756e-04	9.680185564e-12
-1.250000000e-02	2.321379860e-01	-3.712841187e-04	8.015113902e-12
-1.260000000e-02	2.321379858e-01	-3.689279618e-04	4.858616898e-11
-1.270000000e-02	2.321379854e-01	-3.665718051e-04	9.855295521e-12
-1.280000000e-02	2.321379850e-01	-3.642156484e-04	1.530891122e-11
-1.290000000e-02	2.321379845e-01	-3.618594918e-04	1.387411958e-11
-1.300000000e-02	2.321379840e-01	-3.595033354e-04	1.929884480e-11
-1.310000000e-02	2.321379834e-01	-3.571471790e-04	6.816188384e-12
-1.320000000e-02	2.321379827e-01	-3.547910228e-04	8.344714632e-12
-1.330000000e-02	2.321379819e-01	-3.524348667e-04	9.940937584e-12
-1.340000000e-02	2.321379811e-01	-3.500787106e-04	1.975034405e-11
-1.350000000e-02	2.321379801e-01	-3.477225548e-04	1.323006806e-11
-1.360000000e-02	2.321379792e-01	-3.453663990e-04	9.888484761e-12
-1.370000000e-02	2.321379781e-01	-3.430102434e-04	8.622973885e-12
-1.380000000e-02	2.321379770e-01	-3.406540879e-04	1.261791403e-11
-1.390000000e-02	2.321379758e-01	-3.382979325e-04	1.666965790e-11
-1.400000000e-02	2.321379745e-01	-3.359417773e-04	7.546821402e-12
-1.410000000e-02	2.321379732e-01	-3.335856222e-04	1.931257849e-11
-1.420000000e-02	2.321379718e-01	-3.312294673e-04	1.066472712e-11
-1.430000000e-02	2.321379703e-01	-3.288733125e-04	1.003358510e-11
-1.440000000e-02	2.321379687e-01	-3.265171578e-04	1.147722220e-11
-1.450000000e-02	2.321379671e-01	-3.241610034e-04	3.324334788e-11
-1.460000000e-02	2.321379654e-01	-3.218048491e-04	5.230145258e-12
-1.470000000e-02	2.321379636e-01	-3.194486949e-04	1.036682143e-11
-1.480000000e-02	2.321379618e-01	-3.170925409e-04	2.882706525e-11
-1.490000000e-02	2.321379599e-01	-3.147363871e-04	1.676363652e-11
-1.500000000e-02	2.321379579e-01	-3.123802335e-04	1.468844191e-11
-1.510000000e-02	2.321379558e-01	-3.100240801e-04	9.373974776e-12
-1.520000000e-02	2.321379537e-01	-3.076679268e-04	1.173142975e-11
-1.530000000e-02	2.321379515e-01	-3.053117737e-04	2.626364095e-11
-1.540000000e-02	2.321379492e-01	-3.029556208e-04	1.127046384e-11
-1.550000000e-02	2.321379469e-01	-3.005994682e-04	8.771512771e-12
-1.560000000e-02	2.321379445e-01	-2.982433157e-04	2.293304933e-11
-1.570000000e-02	2.321379420e-01	-2.958871634e-04	8.635746747e-12
-1.580000000e-02	2.321379394e-01	-2.935310113e-04	1.195290594e-11
-1.590000000e-02	2.321379368e-01	-2.911748594e-04	9.733279122e-12
-1.600000000e-02	2.321379341e-01	-2.888187077e-04	2.466169167e-11
-1.610000000e-02	2.321379313e-01	-2.864625563e-04	3.673711725e-11
-1.620000000e-02	2.321379285e-01	-2.841064051e-04	8.287045161e-12
-1.630000000e-02	2.321379256e-01	-2.817502541e-04	1.691444446e-11
-1.640000000e-02	2.321379226e-01	-2.793941033e-04	7.831271548e-12
-1.650000000e-02	2.321379195e-01	-2.770379527e-04	1.395683876e-11
-1.660000000e-02	2.321379164e-01	-2.746818024e-04	2.465216398e-11
-1.670000000e-02	2.321379132e-01	-2.723256523e-04	1.665582980e-11
-1.680000000e-02	2.321379099e-01	-2.699695025e-04	1.171838390e-11
-1.690000000e-02	2.321379066e-01	-2.676133529e-04	6.794395767e-12
-1.700000000e-02	2.321379031e-01	-2.652572036e-04	7.149085685e-11
-1.710000000e-02	2.321378997e-01	-2.629010545e-04	1.685003770e-11
-1.720000000e-02	2.321378961e-01	-2.605449057e-04	1.778048504e-11
-1.730000000e-02	2.321378925e-01	-2.581887571e-04	7.999367222e-12
-1.740000000e-02	2.321378887e-01	-2.558326088e-04	1.251646957e-11
-1.750000000e-02	2.321378850e-01	-2.534764608e-04	1.652606936e-11
-1.760000000e-02	2.321378811e-01	-2.511203130e-04	6.533828647e-12
-1.770000000e-02	2.321378772e-01	-2.487641655e-04	1.224296944e-11
-1.780000000e-02	2.321378732e-01	-2.464080183e-04	5.252112864e-12
-1.790000000e-02	2.321378691e-01	-2.440518713e-04	6.396504738e-12
-1.800000000e-02	2.321378650e-01	-2.416957247e-04	6.485284368e-12
-1.810000000e-02	2.321378608e-01	-2.393395783e-04	1.086082771e-11
-1.820000000e-02	2.321378565e-01	-2.369834323e-04	8.001888412e-12
-1.830000000e-02	2.321378522e-01	-2.346272865e-04	1.248095274e-11
-1.840000000e-02	2.321378477e-01	-2.322711410e-04	5.030191713e-11
-1.850000000e-02	2.321378433e-01	-2.299149958e-04	5.089256469e-11
-1.860000000e-02	2.321378387e-01	-2.275588510e-04	1.076680735e-11
-1.870000000e-02	2.321378340e-01	-2.252027064e-04	1.697738444e-11
-1.880000000e-02	2.321378293e-01	-2.228465622e-04	4.908792450e-12
-1.890000000e-02	2.321378246e-01	-2.204904183e-04	1.052368692e-11
-1.900000000e-02	2.321378197e-01	-2.181342747e-04	1.565103606e-11
-1.910000000e-02	2.321378148e-01	-2.157781314e-04	1.281545069e-11
-1.920000000e-02	2.321378098e-01	-2.134219885e-04	1.539964622e-11
-1.930000000e-02	2.321378047e-01	-2.110658458e-04	1.339652214e-11
-1.940000000e-02	2.321377996e-01	-2.087097036e-04	1.385826178e-11
-1.950000000e-02	2.321377944e-01	-2.063535616e-04	5.393638582e-11
-1.960000000e-02	2.321377891e-01	-2.039974200e-04	1.715637279e-11
-1.970000000e-02	2.321377837e-01	-2.016412788e-04	1.148141831e-11
-1.980000000e-02	2.321377783e-01	-1.992851379e-04	1.315419470e-11
-1.990000000e-02	2.321377728e-01	-1.969289974e-04	1.350684170e-11
-2.000000000e-02	2.321377672e-01	-1.945728572e-04	6.351783074e-11
-2.010000000e-02	2.321377616e-01	-1.922167174e-04	1.580643775e-11
-2.020000000e-02	2.321377559e-01	-1.898605779e-04	1.021627434e-11
-2.030000000e-02	2.321377501e-01	-1.875044388e-04	1.537236215e-10
-2.040000000e-02	2.321377442e-01	-1.851483001e-04	1.034852680e-11
-2.050000000e-02	2.321377383e-01	-1.827921618e-04	9.632353332e-12
-2.060000000e-02	2.321377323e-01	-1.804360238e-04	2.184971320e-11
-2.070000000e-02	2.321377262e-01	-1.780798862e-04	1.013304963e-10
-2.080000000e-02	2.321377201e-01	-1.757237490e-04	1.184844903e-11
-2.090000000e-02	2.321377139e-01	-1.733676122e-04	4.565710355e-11
-2.100000000e-02	2.321377076e-01	-1.710114758e-04	1.408816473e-11
-2.110000000e-02	2.321377012e-01	-1.686553398e-04	8.972373399e-12
-2.120000000e-02	2.321376948e-01	-1.662992042e-04	5.765625213e-11
-2.130000000e-02	2.321376883e-01	-1.639430690e-04	1.398417066e-11
-2.140000000e-02	2.321376817e-01	-1.615869342e-04	6.729566211e-12
-2.150000000e-02	2.321376751e-01	-1.592307999e-04	1.599678402e-11
-2.160000000e-02	2.321376683e-01	-1.568746659e-04	1.155577821e-11
-2.170000000e-02	2.321376616e-01	-1.545185324e-04	4.769223759e-12
-2.180000000e-02	2.321376547e-01	-1.521623992e-04	2.734733414e-11
-2.190000000e-02	2.321376478e-01	-1.498062666e-04	8.488590939e-12
-2.200000000e-02	2.321376408e-01	-1.474501343e-04	4.116230608e-12
-2.210000000e-02	2.321376337e-01	-1.450940025e-04	1.175317155e-11
-2.220000000e-02	2.321376265e-01	-1.427378711e-04	1.817188982e-11
-2.230000000e-02	2.321376193e-01	-1.403817401e-04	6.871470245e-12
-2.240000000e-02	2.321376120e-01	-1.380256096e-04	3.561581752e-11
-2.250000000e-02	2.321376047e-01	-1.356694796e-04	1.829532784e-11
-2.260000000e-02	2.321375972e-01	-1.333133500e-04	1.909526434e-11
-2.270000000e-02	2.321375897e-01	-1.309572208e-04	6.377019613e-11
-2.280000000e-02	2.321375821e-01	-1.286010922e-04	1.312947344e-11
-2.290000000e-02	2.321375745e-01	-1.262449639e-04	1.493817070e-11
-2.300000000e-02	2.321375668e-01	-1.238888362e-04	1.531979124e-11
-2.310000000e-02	2.321375590e-01	-1.215327089e-04	7.033092592e-12
-2.320000000e-02	2.321375511e-01	-1.191765821e-04	8.598111004e-12
-2.330000000e-02	2.321375432e-01	-1.168204558e-04	2.398581974e-11
-2.340000000e-02	2.321375352e-01	-1.144643299e-04	9.078611559e-12
-2.350000000e-02	2.321375271e-01	-1.121082046e-04	9.557309841e-12
-2.360000000e-02	2.321375189e-01	-1.097520797e-04	6.392537964e-12
-2.370000000e-02	2.321375107e-01	-1.073959553e-04	7.882565975e-12
-2.380000000e-02	2.321375024e-01	-1.050398314e-04	1.236505917e-11
-2.390000000e-02	2.321374940e-01	-1.026837080e-04	1.038388909e-11
-2.400000000e-02	2.321374856e-01	-1.003275851e-04	7.390920897e-12
-2.410000000e-02	2.321374771e-01	-9.797146277e-05	5.612001926e-12
-2.420000000e-02	2.321374685e-01	-9.561534090e-05	1.758341122e-11
-2.430000000e-02	2.321374599e-01	-9.325921955e-05	3.238218305e-11
-2.440000000e-02	2.321374511e-01	-9.090309872e-05	1.038807282e-11
-2.450000000e-02	2.321374423e-01	-8.854697840e-05	1.982457327e-11
-2.460000000e-02	2.321374335e-01	-8.619085862e-05	8.221129333e-12
-2.470000000e-02	2.321374245e-01	-8.383473936e-05	5.774252843e-12
-2.480000000e-02	2.321374155e-01	-8.147862063e-05	1.404123865e-11
-2.490000000e-02	2.321374064e-01	-7.912250244e-05	2.736005289e-11
-2.500000000e-02	2.321373973e-01	-7.676638480e-05	1.050685423e-11
-2.510000000e-02	2.321373881e-01	-7.441026769e-05	9.770070502e-12
-2.520000000e-02	2.321373788e-01	-7.205415113e-05	5.479244218e-12
-2.530000000e-02	2.321373694e-01	-6.969803512e-05	8.730281535e-12
-2.540000000e-02	2.321373599e-01	-6.734191967e-05	1.645720453e-11
-2.550000000e-02	2.321373504e-01	-6.498580477e-05	2.890020962e-11
-2.560000000e-02	2.321373408e-01	-6.262969043e-05	7.012295065e-12
-2.570000000e-02	2.321373312e-01	-6.027357666e-05	1.363927264e-11
-2.580000000e-02	2.321373215e-01	-5.791746347e-05	1.608737637e-11
-2.590000000e-02	2.321373117e-01	-5.556135083e-05	1.105689119e-11
-2.600000000e-02	2.321373018e-01	-5.320523878e-05	1.333374853e-11
-2.610000000e-02	2.321372918e-01	-5.084912731e-05	9.561872708e-12
-2.620000000e-02	2.321372818e-01	-4.849301642e-05	1.485542292e-11
-2.630000000e-02	2.321372717e-01	-4.613690612e-05	1.491889081e-11
-2.640000000e-02	2.321372616e-01	-4.378079641e-05	1.689306875e-11
-2.650000000e-02	2.321372513e-01	-4.142468729e-05	1.281922320e-11
-2.660000000e-02	2.321372410e-01	-3.906857877e-05	9.084616122e-12
-2.670000000e-02	2.321372307e-01	-3.671247085e-05	1.533697144e-11
-2.680000000e-02	2.321372202e-01	-3.435636354e-05	1.942298526e-11
-2.690000000e-02	2.321372097e-01	-3.200025684e-05	3.655923351e-11
-2.700000000e-02	2.321371991e-01	-2.964415074e-05	6.224516969e-12
-2.710000000e-02	2.321371884e-01	-2.728804526e-05	1.257452760e-11
-2.720000000e-02	2.321371777e-01	-2.493194041e-05	6.862492488e-11
-2.730000000e-02	2.321371669e-01	-2.257583617e-05	6.036191712e-12
-2.740000000e-02	2.321371560e-01	-2.021973257e-05	5.107981006e-12
-2.750000000e-02	2.321371451e-01	-1.786362959e-05	9.007949747e-12
-2.760000000e-02	2.321371341e-01	-1.550752725e-05	1.337081674e-11
-2.770000000e-02	2.321371230e-01	-1.315142555e-05	9.980927624e-12
-2.780000000e-02	2.321371118e-01	-1.079532449e-05	1.612520787e-11
-2.790000000e-02	2.321371006e-01	-8.439224070e-06	5.550419779e-12
-2.800000000e-02	2.321370893e-01	-6.083124303e-06	1.464211189e-11
-2.810000000e-02	2.321370779e-01	-3.727025187e-06	1.102124506e-11
-2.820000000e-02	2.321370664e-01	-1.370926726e-06	2.328455625e-11
-2.830000000e-02	2.321370549e-01	9.851710731e-07	1.675531328e-11
-2.840000000e-02	2.321370433e-01	3.341268205e-06	5.344207967e-11
-2.850000000e-02	2.321370317e-01	5.697364679e-06	3.273570617e-11
-2.860000000e-02	2.321370199e-01	8.053460479e-06	8.954194585e-12
-2.870000000e-02	2.321370081e-01	1.040955561e-05	4.884556157e-11
-2.880000000e-02	2.321369962e-01	1.276565005e-05	1.027751704e-11
-2.890000000e-02	2.321369843e-01	1.512174382e-05	8.544042632e-12
-2.900000000e-02	2.321369723e-01	1.747783689e-05	3.604796512e-11
-2.910000000e-02	2.321369602e-01	1.983392929e-05	9.415102015e-12
-2.920000000e-02	2.321369480e-01	2.219002099e-05	1.395870412e-11
-2.930000000e-02	2.321369358e-01	2.454611199e-05	1.439563890e-11
-2.940000000e-02	2.321369234e-01	2.690220229e-05	1.250440499e-11
-2.950000000e-02	2.321369111e-01	2.925829189e-05	1.019040169e-11
-2.960000000e-02	2.321368986e-01	3.161438079e-05	1.555035916e-11
-2.970000000e-02	2.321368861e-01	3.397046897e-05	2.987117821e-11
-2.980000000e-02	2.321368735e-01	3.632655644e-05	1.235729312e-11
-2.990000000e-02	2.321368608e-01	3.868264319e-05	1.873305979e-11
-3.000000000e-02	2.321368481e-01	4.103872922e-05	1.784154954e-11
