# Im(epsi1)     Re(omega/c)      Im(omega/c)      Eq(det).Opt det CON kz, R=0.5 \mum, mu_c=0.3, Re(epsi1)=3.90solve_det_conkz_vs_kz.py
0.000000000e+00	2.321354197e-01	-6.657957014e-04	2.368536829e-11
-1.000000000e-04	2.321354284e-01	-6.634395762e-04	1.243250458e-11
-2.000000000e-04	2.321354370e-01	-6.610834507e-04	1.478028523e-11
-3.000000000e-04	2.321354456e-01	-6.587273249e-04	8.170789183e-12
-4.000000000e-04	2.321354541e-01	-6.563711987e-04	5.808892609e-12
-5.000000000e-04	2.321354625e-01	-6.540150721e-04	1.279465591e-11
-6.000000000e-04	2.321354708e-01	-6.516589452e-04	1.115463585e-11
-7.000000000e-04	2.321354791e-01	-6.493028179e-04	9.910419132e-12
-8.000000000e-04	2.321354873e-01	-6.469466903e-04	2.969544593e-11
-9.000000000e-04	2.321354954e-01	-6.445905624e-04	5.203922286e-12
-1.000000000e-03	2.321355035e-01	-6.422344342e-04	2.232041768e-11
-1.100000000e-03	2.321355114e-01	-6.398783056e-04	3.993868215e-11
-1.200000000e-03	2.321355193e-01	-6.375221767e-04	1.001768987e-11
-1.300000000e-03	2.321355272e-01	-6.351660474e-04	5.234386819e-12
-1.400000000e-03	2.321355350e-01	-6.328099179e-04	1.180472550e-11
-1.500000000e-03	2.321355427e-01	-6.304537880e-04	1.668181832e-11
-1.600000000e-03	2.321355503e-01	-6.280976578e-04	9.314927477e-12
-1.700000000e-03	2.321355578e-01	-6.257415273e-04	1.319182729e-11
-1.800000000e-03	2.321355653e-01	-6.233853965e-04	1.176468466e-11
-1.900000000e-03	2.321355727e-01	-6.210292654e-04	8.906530210e-12
-2.000000000e-03	2.321355801e-01	-6.186731340e-04	8.049693487e-12
-2.100000000e-03	2.321355873e-01	-6.163170024e-04	1.784354065e-11
-2.200000000e-03	2.321355945e-01	-6.139608704e-04	7.417448062e-11
-2.300000000e-03	2.321356016e-01	-6.116047381e-04	1.056081184e-11
-2.400000000e-03	2.321356087e-01	-6.092486056e-04	1.718593910e-11
-2.500000000e-03	2.321356157e-01	-6.068924728e-04	1.002594631e-11
-2.600000000e-03	2.321356226e-01	-6.045363397e-04	1.986424113e-11
-2.700000000e-03	2.321356294e-01	-6.021802063e-04	3.830779124e-11
-2.800000000e-03	2.321356362e-01	-5.998240727e-04	1.614273926e-11
-2.900000000e-03	2.321356429e-01	-5.974679388e-04	1.157529833e-11
-3.000000000e-03	2.321356495e-01	-5.951118047e-04	1.322015536e-11
-3.100000000e-03	2.321356560e-01	-5.927556702e-04	1.042171286e-11
-3.200000000e-03	2.321356625e-01	-5.903995356e-04	7.529006272e-12
-3.300000000e-03	2.321356689e-01	-5.880434007e-04	2.724917127e-11
-3.400000000e-03	2.321356752e-01	-5.856872655e-04	1.516382335e-11
-3.500000000e-03	2.321356815e-01	-5.833311301e-04	1.133332231e-11
-3.600000000e-03	2.321356877e-01	-5.809749945e-04	1.031513901e-11
-3.700000000e-03	2.321356938e-01	-5.786188586e-04	1.015826829e-11
-3.800000000e-03	2.321356999e-01	-5.762627225e-04	5.270615893e-11
-3.900000000e-03	2.321357058e-01	-5.739065862e-04	3.154171499e-11
-4.000000000e-03	2.321357117e-01	-5.715504496e-04	5.228933931e-12
-4.100000000e-03	2.321357176e-01	-5.691943128e-04	1.123656324e-11
-4.200000000e-03	2.321357233e-01	-5.668381759e-04	1.701955446e-11
-4.300000000e-03	2.321357290e-01	-5.644820387e-04	1.187850726e-11
-4.400000000e-03	2.321357346e-01	-5.621259012e-04	3.053706458e-11
-4.500000000e-03	2.321357402e-01	-5.597697636e-04	9.467023848e-12
-4.600000000e-03	2.321357456e-01	-5.574136258e-04	2.410709299e-11
-4.700000000e-03	2.321357510e-01	-5.550574878e-04	1.447010331e-11
-4.800000000e-03	2.321357564e-01	-5.527013496e-04	1.317774731e-11
-4.900000000e-03	2.321357616e-01	-5.503452112e-04	1.789170400e-11
-5.000000000e-03	2.321357668e-01	-5.479890726e-04	2.962290468e-11
-5.100000000e-03	2.321357719e-01	-5.456329338e-04	1.854803918e-11
-5.200000000e-03	2.321357770e-01	-5.432767949e-04	1.561725540e-11
-5.300000000e-03	2.321357819e-01	-5.409206557e-04	1.126791262e-11
-5.400000000e-03	2.321357868e-01	-5.385645164e-04	1.228702674e-11
-5.500000000e-03	2.321357917e-01	-5.362083769e-04	9.241944729e-12
-5.600000000e-03	2.321357964e-01	-5.338522373e-04	7.514927646e-12
-5.700000000e-03	2.321358011e-01	-5.314960975e-04	1.544876534e-11
-5.800000000e-03	2.321358057e-01	-5.291399575e-04	1.023465677e-11
-5.900000000e-03	2.321358103e-01	-5.267838174e-04	1.014666928e-11
-6.000000000e-03	2.321358147e-01	-5.244276772e-04	1.048302759e-11
-6.100000000e-03	2.321358191e-01	-5.220715368e-04	1.386648360e-11
-6.200000000e-03	2.321358234e-01	-5.197153962e-04	1.028411115e-11
-6.300000000e-03	2.321358277e-01	-5.173592555e-04	8.405339007e-12
-6.400000000e-03	2.321358319e-01	-5.150031147e-04	1.733828525e-11
-6.500000000e-03	2.321358360e-01	-5.126469737e-04	1.346919362e-11
-6.600000000e-03	2.321358400e-01	-5.102908326e-04	9.537276795e-11
-6.700000000e-03	2.321358440e-01	-5.079346914e-04	1.301323543e-11
-6.800000000e-03	2.321358479e-01	-5.055785501e-04	4.802143900e-11
-6.900000000e-03	2.321358517e-01	-5.032224086e-04	1.537469000e-11
-7.000000000e-03	2.321358555e-01	-5.008662670e-04	6.422992401e-11
-7.100000000e-03	2.321358591e-01	-4.985101253e-04	5.159554463e-11
-7.200000000e-03	2.321358628e-01	-4.961539835e-04	2.394010642e-11
-7.300000000e-03	2.321358663e-01	-4.937978417e-04	1.212110448e-11
-7.400000000e-03	2.321358698e-01	-4.914416997e-04	1.891877741e-11
-7.500000000e-03	2.321358731e-01	-4.890855576e-04	1.057074243e-11
-7.600000000e-03	2.321358765e-01	-4.867294154e-04	2.456527990e-11
-7.700000000e-03	2.321358797e-01	-4.843732731e-04	1.287590623e-11
-7.800000000e-03	2.321358829e-01	-4.820171307e-04	1.226324339e-11
-7.900000000e-03	2.321358860e-01	-4.796609883e-04	2.017079316e-11
-8.000000000e-03	2.321358890e-01	-4.773048458e-04	1.361699872e-11
-8.100000000e-03	2.321358920e-01	-4.749487032e-04	1.069102083e-11
-8.200000000e-03	2.321358949e-01	-4.725925605e-04	3.174902522e-11
-8.300000000e-03	2.321358977e-01	-4.702364178e-04	8.554220107e-12
-8.400000000e-03	2.321359005e-01	-4.678802750e-04	7.813100836e-12
-8.500000000e-03	2.321359031e-01	-4.655241321e-04	1.335742754e-11
-8.600000000e-03	2.321359057e-01	-4.631679892e-04	8.778833021e-12
-8.700000000e-03	2.321359083e-01	-4.608118462e-04	1.880938768e-11
-8.800000000e-03	2.321359107e-01	-4.584557032e-04	1.874595720e-11
-8.900000000e-03	2.321359131e-01	-4.560995602e-04	1.606079052e-11
-9.000000000e-03	2.321359154e-01	-4.537434171e-04	1.423399640e-11
-9.100000000e-03	2.321359177e-01	-4.513872739e-04	2.254111811e-11
-9.200000000e-03	2.321359199e-01	-4.490311307e-04	1.729528360e-11
-9.300000000e-03	2.321359220e-01	-4.466749875e-04	7.513563719e-12
-9.400000000e-03	2.321359240e-01	-4.443188443e-04	1.558945787e-11
-9.500000000e-03	2.321359259e-01	-4.419627010e-04	1.209163856e-11
-9.600000000e-03	2.321359278e-01	-4.396065578e-04	5.830895252e-12
-9.700000000e-03	2.321359296e-01	-4.372504145e-04	1.269574721e-11
-9.800000000e-03	2.321359314e-01	-4.348942712e-04	9.879004151e-12
-9.900000000e-03	2.321359331e-01	-4.325381278e-04	1.913402638e-11
-1.000000000e-02	2.321359347e-01	-4.301819845e-04	1.833663517e-11
-1.010000000e-02	2.321359362e-01	-4.278258412e-04	1.849249251e-11
-1.020000000e-02	2.321359376e-01	-4.254696979e-04	9.829619460e-12
-1.030000000e-02	2.321359390e-01	-4.231135545e-04	8.556552203e-12
-1.040000000e-02	2.321359403e-01	-4.207574112e-04	9.065896039e-12
-1.050000000e-02	2.321359416e-01	-4.184012679e-04	2.256276964e-11
-1.060000000e-02	2.321359428e-01	-4.160451247e-04	1.325554024e-11
-1.070000000e-02	2.321359439e-01	-4.136889814e-04	7.121652037e-12
-1.080000000e-02	2.321359449e-01	-4.113328382e-04	2.590440902e-11
-1.090000000e-02	2.321359458e-01	-4.089766949e-04	7.583369142e-12
-1.100000000e-02	2.321359467e-01	-4.066205518e-04	1.206840924e-11
-1.110000000e-02	2.321359475e-01	-4.042644086e-04	1.972501674e-11
-1.120000000e-02	2.321359483e-01	-4.019082655e-04	9.253932181e-12
-1.130000000e-02	2.321359489e-01	-3.995521225e-04	1.396702697e-11
-1.140000000e-02	2.321359495e-01	-3.971959794e-04	2.520156948e-11
-1.150000000e-02	2.321359501e-01	-3.948398365e-04	2.030780270e-11
-1.160000000e-02	2.321359505e-01	-3.924836935e-04	1.055045095e-11
-1.170000000e-02	2.321359509e-01	-3.901275507e-04	1.192098276e-11
-1.180000000e-02	2.321359512e-01	-3.877714079e-04	3.906417015e-11
-1.190000000e-02	2.321359514e-01	-3.854152651e-04	2.458249072e-11
-1.200000000e-02	2.321359516e-01	-3.830591225e-04	2.535558805e-11
-1.210000000e-02	2.321359517e-01	-3.807029799e-04	1.620679194e-11
-1.220000000e-02	2.321359517e-01	-3.783468373e-04	9.031334836e-12
-1.230000000e-02	2.321359517e-01	-3.759906949e-04	1.403419830e-11
-1.240000000e-02	2.321359516e-01	-3.736345525e-04	8.596314970e-12
-1.250000000e-02	2.321359514e-01	-3.712784102e-04	2.907125867e-11
-1.260000000e-02	2.321359511e-01	-3.689222680e-04	6.930687943e-12
-1.270000000e-02	2.321359508e-01	-3.665661260e-04	1.902017107e-11
-1.280000000e-02	2.321359504e-01	-3.642099839e-04	9.257615223e-12
-1.290000000e-02	2.321359499e-01	-3.618538420e-04	1.942384186e-11
-1.300000000e-02	2.321359493e-01	-3.594977002e-04	1.211528221e-11
-1.310000000e-02	2.321359487e-01	-3.571415585e-04	4.250920806e-11
-1.320000000e-02	2.321359480e-01	-3.547854170e-04	9.323837646e-12
-1.330000000e-02	2.321359472e-01	-3.524292755e-04	1.009768985e-11
-1.340000000e-02	2.321359464e-01	-3.500731341e-04	8.730536508e-12
-1.350000000e-02	2.321359455e-01	-3.477169929e-04	2.039844341e-11
-1.360000000e-02	2.321359445e-01	-3.453608518e-04	1.661515054e-11
-1.370000000e-02	2.321359435e-01	-3.430047108e-04	2.040708441e-11
-1.380000000e-02	2.321359423e-01	-3.406485700e-04	2.618884500e-11
-1.390000000e-02	2.321359411e-01	-3.382924293e-04	9.114801791e-12
-1.400000000e-02	2.321359399e-01	-3.359362887e-04	1.865416000e-11
-1.410000000e-02	2.321359385e-01	-3.335801483e-04	1.532978364e-11
-1.420000000e-02	2.321359371e-01	-3.312240080e-04	1.913235965e-11
-1.430000000e-02	2.321359356e-01	-3.288678679e-04	1.003469458e-11
-1.440000000e-02	2.321359341e-01	-3.265117279e-04	8.616540764e-12
-1.450000000e-02	2.321359325e-01	-3.241555881e-04	1.607357152e-11
-1.460000000e-02	2.321359308e-01	-3.217994485e-04	1.176043364e-11
-1.470000000e-02	2.321359290e-01	-3.194433090e-04	9.473852642e-12
-1.480000000e-02	2.321359271e-01	-3.170871697e-04	2.230965763e-11
-1.490000000e-02	2.321359252e-01	-3.147310305e-04	1.368979451e-11
-1.500000000e-02	2.321359232e-01	-3.123748916e-04	1.246483885e-11
-1.510000000e-02	2.321359212e-01	-3.100187527e-04	3.305676226e-10
-1.520000000e-02	2.321359191e-01	-3.076626142e-04	1.537438392e-11
-1.530000000e-02	2.321359169e-01	-3.053064758e-04	1.926015842e-11
-1.540000000e-02	2.321359146e-01	-3.029503375e-04	2.033323174e-11
-1.550000000e-02	2.321359122e-01	-3.005941995e-04	7.037367699e-12
-1.560000000e-02	2.321359098e-01	-2.982380617e-04	1.236792279e-11
-1.570000000e-02	2.321359073e-01	-2.958819240e-04	1.665011140e-11
-1.580000000e-02	2.321359048e-01	-2.935257866e-04	9.269413711e-12
-1.590000000e-02	2.321359022e-01	-2.911696494e-04	2.192450867e-11
-1.600000000e-02	2.321358994e-01	-2.888135124e-04	3.207603009e-11
-1.610000000e-02	2.321358967e-01	-2.864573756e-04	2.194620049e-11
-1.620000000e-02	2.321358938e-01	-2.841012390e-04	1.464167879e-11
-1.630000000e-02	2.321358909e-01	-2.817451027e-04	1.845304305e-11
-1.640000000e-02	2.321358879e-01	-2.793889665e-04	1.406092790e-11
-1.650000000e-02	2.321358849e-01	-2.770328307e-04	1.986550530e-11
-1.660000000e-02	2.321358817e-01	-2.746766950e-04	1.001417980e-11
-1.670000000e-02	2.321358785e-01	-2.723205596e-04	8.714669376e-12
-1.680000000e-02	2.321358753e-01	-2.699644244e-04	8.770266364e-12
-1.690000000e-02	2.321358719e-01	-2.676082895e-04	1.586532339e-11
-1.700000000e-02	2.321358685e-01	-2.652521548e-04	1.010244648e-11
-1.710000000e-02	2.321358650e-01	-2.628960204e-04	6.621313032e-12
-1.720000000e-02	2.321358614e-01	-2.605398862e-04	6.972079527e-12
-1.730000000e-02	2.321358578e-01	-2.581837523e-04	2.155026261e-11
-1.740000000e-02	2.321358541e-01	-2.558276186e-04	1.559419943e-11
-1.750000000e-02	2.321358503e-01	-2.534714853e-04	1.704668890e-11
-1.760000000e-02	2.321358465e-01	-2.511153522e-04	5.088625979e-11
-1.770000000e-02	2.321358425e-01	-2.487592193e-04	1.402766652e-11
-1.780000000e-02	2.321358385e-01	-2.464030868e-04	1.004038499e-11
-1.790000000e-02	2.321358345e-01	-2.440469545e-04	7.148226747e-12
-1.800000000e-02	2.321358303e-01	-2.416908225e-04	2.070602223e-11
-1.810000000e-02	2.321358261e-01	-2.393346908e-04	2.296470675e-11
-1.820000000e-02	2.321358219e-01	-2.369785594e-04	1.517219546e-11
-1.830000000e-02	2.321358175e-01	-2.346224283e-04	2.122348624e-11
-1.840000000e-02	2.321358131e-01	-2.322662975e-04	1.659056199e-11
-1.850000000e-02	2.321358086e-01	-2.299101669e-04	1.332442088e-11
-1.860000000e-02	2.321358040e-01	-2.275540367e-04	2.900050257e-11
-1.870000000e-02	2.321357994e-01	-2.251979068e-04	3.568992980e-11
-1.880000000e-02	2.321357947e-01	-2.228417773e-04	4.959287748e-12
-1.890000000e-02	2.321357899e-01	-2.204856480e-04	3.163951011e-11
-1.900000000e-02	2.321357850e-01	-2.181295191e-04	2.085666165e-11
-1.910000000e-02	2.321357801e-01	-2.157733905e-04	4.619459642e-11
-1.920000000e-02	2.321357751e-01	-2.134172622e-04	2.568989197e-11
-1.930000000e-02	2.321357700e-01	-2.110611342e-04	1.674125604e-11
-1.940000000e-02	2.321357649e-01	-2.087050066e-04	1.612998986e-11
-1.950000000e-02	2.321357597e-01	-2.063488793e-04	4.619544855e-12
-1.960000000e-02	2.321357544e-01	-2.039927524e-04	8.476289208e-12
-1.970000000e-02	2.321357491e-01	-2.016366258e-04	2.217761429e-11
-1.980000000e-02	2.321357436e-01	-1.992804996e-04	9.248776449e-12
-1.990000000e-02	2.321357381e-01	-1.969243737e-04	3.311161859e-11
-2.000000000e-02	2.321357326e-01	-1.945682482e-04	7.997059002e-12
-2.010000000e-02	2.321357269e-01	-1.922121230e-04	8.405455299e-12
-2.020000000e-02	2.321357212e-01	-1.898559982e-04	6.648792219e-12
-2.030000000e-02	2.321357154e-01	-1.874998738e-04	8.039095064e-12
-2.040000000e-02	2.321357096e-01	-1.851437497e-04	9.949418460e-12
-2.050000000e-02	2.321357036e-01	-1.827876260e-04	9.194357214e-12
-2.060000000e-02	2.321356976e-01	-1.804315027e-04	1.430802484e-11
-2.070000000e-02	2.321356916e-01	-1.780753798e-04	1.021407242e-11
-2.080000000e-02	2.321356854e-01	-1.757192573e-04	1.275338776e-11
-2.090000000e-02	2.321356792e-01	-1.733631352e-04	4.317992706e-12
-2.100000000e-02	2.321356729e-01	-1.710070134e-04	9.771458727e-12
-2.110000000e-02	2.321356666e-01	-1.686508921e-04	1.164942861e-11
-2.120000000e-02	2.321356601e-01	-1.662947711e-04	1.572042176e-11
-2.130000000e-02	2.321356536e-01	-1.639386506e-04	3.300391452e-11
-2.140000000e-02	2.321356470e-01	-1.615825305e-04	1.202543126e-11
-2.150000000e-02	2.321356404e-01	-1.592264107e-04	1.396291659e-11
-2.160000000e-02	2.321356337e-01	-1.568702915e-04	3.027868359e-10
-2.170000000e-02	2.321356269e-01	-1.545141726e-04	5.163018136e-11
-2.180000000e-02	2.321356200e-01	-1.521580541e-04	8.111541777e-12
-2.190000000e-02	2.321356131e-01	-1.498019361e-04	1.022538397e-11
-2.200000000e-02	2.321356061e-01	-1.474458185e-04	6.694117299e-12
-2.210000000e-02	2.321355990e-01	-1.450897013e-04	7.360106791e-12
-2.220000000e-02	2.321355919e-01	-1.427335846e-04	1.682893237e-11
-2.230000000e-02	2.321355846e-01	-1.403774683e-04	6.032557791e-12
-2.240000000e-02	2.321355774e-01	-1.380213524e-04	3.441266902e-11
-2.250000000e-02	2.321355700e-01	-1.356652371e-04	2.980854811e-11
-2.260000000e-02	2.321355626e-01	-1.333091221e-04	1.885230759e-11
-2.270000000e-02	2.321355551e-01	-1.309530076e-04	1.680869769e-11
-2.280000000e-02	2.321355475e-01	-1.285968936e-04	2.492293761e-11
-2.290000000e-02	2.321355398e-01	-1.262407800e-04	1.047670356e-11
-2.300000000e-02	2.321355321e-01	-1.238846669e-04	2.644300700e-11
-2.310000000e-02	2.321355243e-01	-1.215285543e-04	1.641249262e-11
-2.320000000e-02	2.321355164e-01	-1.191724422e-04	1.447009469e-11
-2.330000000e-02	2.321355085e-01	-1.168163305e-04	3.020241731e-11
-2.340000000e-02	2.321355005e-01	-1.144602193e-04	1.412856547e-11
-2.350000000e-02	2.321354924e-01	-1.121041086e-04	8.430085236e-12
-2.360000000e-02	2.321354843e-01	-1.097479984e-04	9.985908080e-12
-2.370000000e-02	2.321354760e-01	-1.073918887e-04	4.141285652e-11
-2.380000000e-02	2.321354677e-01	-1.050357794e-04	1.432777288e-11
-2.390000000e-02	2.321354594e-01	-1.026796707e-04	1.542185487e-11
-2.400000000e-02	2.321354509e-01	-1.003235625e-04	6.770586963e-12
-2.410000000e-02	2.321354424e-01	-9.796745477e-05	8.693025218e-12
-2.420000000e-02	2.321354339e-01	-9.561134757e-05	6.145283901e-12
-2.430000000e-02	2.321354252e-01	-9.325524087e-05	9.461021348e-12
-2.440000000e-02	2.321354165e-01	-9.089913470e-05	1.334811220e-11
-2.450000000e-02	2.321354077e-01	-8.854302905e-05	6.185605860e-12
-2.460000000e-02	2.321353988e-01	-8.618692392e-05	2.768635282e-11
-2.470000000e-02	2.321353899e-01	-8.383081934e-05	2.009057452e-10
-2.480000000e-02	2.321353809e-01	-8.147471525e-05	8.258046146e-12
-2.490000000e-02	2.321353718e-01	-7.911861172e-05	1.503138904e-11
-2.500000000e-02	2.321353626e-01	-7.676250873e-05	2.025296090e-11
-2.510000000e-02	2.321353534e-01	-7.440640629e-05	7.830331926e-12
-2.520000000e-02	2.321353441e-01	-7.205030438e-05	1.196146319e-11
-2.530000000e-02	2.321353347e-01	-6.969420304e-05	1.167303519e-11
-2.540000000e-02	2.321353253e-01	-6.733810224e-05	1.089185716e-11
-2.550000000e-02	2.321353158e-01	-6.498200201e-05	3.466813249e-11
-2.560000000e-02	2.321353062e-01	-6.262590233e-05	1.274783749e-11
-2.570000000e-02	2.321352965e-01	-6.026980322e-05	1.718638569e-11
-2.580000000e-02	2.321352868e-01	-5.791370467e-05	3.523388527e-11
-2.590000000e-02	2.321352770e-01	-5.555760671e-05	1.275355669e-11
-2.600000000e-02	2.321352671e-01	-5.320150931e-05	1.036551492e-11
-2.610000000e-02	2.321352572e-01	-5.084541250e-05	1.581815091e-11
-2.620000000e-02	2.321352472e-01	-4.848931627e-05	9.102171472e-12
-2.630000000e-02	2.321352371e-01	-4.613322063e-05	8.193159848e-12
-2.640000000e-02	2.321352269e-01	-4.377712557e-05	7.260273385e-12
-2.650000000e-02	2.321352167e-01	-4.142103111e-05	1.528383934e-11
-2.660000000e-02	2.321352064e-01	-3.906493725e-05	1.092020085e-11
-2.670000000e-02	2.321351960e-01	-3.670884399e-05	9.306885452e-12
-2.680000000e-02	2.321351855e-01	-3.435275134e-05	1.125151459e-11
-2.690000000e-02	2.321351750e-01	-3.199665930e-05	3.428509077e-11
-2.700000000e-02	2.321351644e-01	-2.964056786e-05	2.407734120e-11
-2.710000000e-02	2.321351538e-01	-2.728447704e-05	2.482715595e-11
-2.720000000e-02	2.321351430e-01	-2.492838685e-05	5.885498794e-12
-2.730000000e-02	2.321351322e-01	-2.257229727e-05	1.824774301e-11
-2.740000000e-02	2.321351214e-01	-2.021620833e-05	1.116542999e-11
-2.750000000e-02	2.321351104e-01	-1.786012001e-05	1.891533252e-11
-2.760000000e-02	2.321350994e-01	-1.550403233e-05	2.842090987e-11
-2.770000000e-02	2.321350883e-01	-1.314794529e-05	4.948136148e-12
-2.780000000e-02	2.321350771e-01	-1.079185888e-05	1.004743239e-11
-2.790000000e-02	2.321350659e-01	-8.435773128e-06	2.997276308e-11
-2.800000000e-02	2.321350546e-01	-6.079688016e-06	1.000894028e-11
-2.810000000e-02	2.321350432e-01	-3.723603559e-06	1.110398351e-11
-2.820000000e-02	2.321350318e-01	-1.367519760e-06	6.127293096e-12
-2.830000000e-02	2.321350202e-01	9.885633851e-07	3.879180126e-11
-2.840000000e-02	2.321350087e-01	3.344645857e-06	2.451137517e-11
-2.850000000e-02	2.321349970e-01	5.700727706e-06	3.986034129e-10
-2.860000000e-02	2.321349853e-01	8.056808809e-06	8.549587293e-12
-2.870000000e-02	2.321349734e-01	1.041288927e-05	6.534071400e-12
-2.880000000e-02	2.321349616e-01	1.276896906e-05	7.289943105e-12
-2.890000000e-02	2.321349496e-01	1.512504817e-05	1.916751544e-11
-2.900000000e-02	2.321349376e-01	1.748112659e-05	1.880870485e-11
-2.910000000e-02	2.321349255e-01	1.983720432e-05	1.960180999e-11
-2.920000000e-02	2.321349133e-01	2.219328136e-05	1.014770140e-11
-2.930000000e-02	2.321349011e-01	2.454935771e-05	9.197215703e-12
-2.940000000e-02	2.321348888e-01	2.690543335e-05	8.527174778e-12
-2.950000000e-02	2.321348764e-01	2.926150829e-05	4.071823986e-11
-2.960000000e-02	2.321348639e-01	3.161758253e-05	4.415181052e-11
-2.970000000e-02	2.321348514e-01	3.397365605e-05	1.036079182e-11
-2.980000000e-02	2.321348388e-01	3.632972886e-05	9.006562909e-12
-2.990000000e-02	2.321348261e-01	3.868580095e-05	1.492643038e-11
-3.000000000e-02	2.321348134e-01	4.104187232e-05	2.166087152e-11
