# Im(epsi1)     Re(omega/c)      Im(omega/c)      Eq(det).Opt det CON kz, R=0.5 \mum, mu_c=0.3, Re(epsi1)=3.90solve_det_conkz_vs_kz.py
0.000000000e+00	2.321419688e-01	-6.658199724e-04	1.526249120e-11
-1.000000000e-04	2.321419775e-01	-6.634638000e-04	9.377385203e-12
-2.000000000e-04	2.321419861e-01	-6.611076274e-04	1.333183937e-11
-3.000000000e-04	2.321419947e-01	-6.587514543e-04	1.185170910e-11
-4.000000000e-04	2.321420032e-01	-6.563952809e-04	6.622953586e-12
-5.000000000e-04	2.321420116e-01	-6.540391072e-04	2.097736998e-11
-6.000000000e-04	2.321420199e-01	-6.516829331e-04	1.080525795e-11
-7.000000000e-04	2.321420282e-01	-6.493267586e-04	7.787268849e-12
-8.000000000e-04	2.321420364e-01	-6.469705839e-04	9.095752734e-12
-9.000000000e-04	2.321420445e-01	-6.446144088e-04	9.935342002e-12
-1.000000000e-03	2.321420526e-01	-6.422582333e-04	1.241000577e-11
-1.100000000e-03	2.321420606e-01	-6.399020575e-04	6.654891245e-12
-1.200000000e-03	2.321420685e-01	-6.375458814e-04	8.226671055e-12
-1.300000000e-03	2.321420763e-01	-6.351897050e-04	7.204370336e-12
-1.400000000e-03	2.321420841e-01	-6.328335283e-04	1.170830417e-11
-1.500000000e-03	2.321420918e-01	-6.304773512e-04	9.723018037e-12
-1.600000000e-03	2.321420994e-01	-6.281211739e-04	7.227959956e-11
-1.700000000e-03	2.321421070e-01	-6.257649962e-04	3.899448324e-12
-1.800000000e-03	2.321421144e-01	-6.234088182e-04	1.044699131e-11
-1.900000000e-03	2.321421218e-01	-6.210526399e-04	2.736294527e-11
-2.000000000e-03	2.321421292e-01	-6.186964614e-04	1.042292946e-11
-2.100000000e-03	2.321421364e-01	-6.163402825e-04	2.193816197e-11
-2.200000000e-03	2.321421436e-01	-6.139841033e-04	1.436395981e-11
-2.300000000e-03	2.321421508e-01	-6.116279239e-04	2.370688779e-11
-2.400000000e-03	2.321421578e-01	-6.092717442e-04	2.185250884e-11
-2.500000000e-03	2.321421648e-01	-6.069155642e-04	8.014112835e-12
-2.600000000e-03	2.321421717e-01	-6.045593839e-04	8.839901996e-12
-2.700000000e-03	2.321421785e-01	-6.022032034e-04	1.011363396e-11
-2.800000000e-03	2.321421853e-01	-5.998470225e-04	2.514148919e-11
-2.900000000e-03	2.321421920e-01	-5.974908415e-04	1.729180358e-11
-3.000000000e-03	2.321421986e-01	-5.951346601e-04	1.362855497e-11
-3.100000000e-03	2.321422052e-01	-5.927784785e-04	1.819360709e-11
-3.200000000e-03	2.321422116e-01	-5.904222967e-04	1.021439386e-11
-3.300000000e-03	2.321422180e-01	-5.880661146e-04	8.138134490e-12
-3.400000000e-03	2.321422244e-01	-5.857099322e-04	1.422998985e-11
-3.500000000e-03	2.321422306e-01	-5.833537497e-04	4.032127696e-12
-3.600000000e-03	2.321422368e-01	-5.809975668e-04	2.208121327e-11
-3.700000000e-03	2.321422429e-01	-5.786413838e-04	1.355137658e-11
-3.800000000e-03	2.321422490e-01	-5.762852005e-04	2.117033982e-11
-3.900000000e-03	2.321422550e-01	-5.739290170e-04	1.530820147e-11
-4.000000000e-03	2.321422609e-01	-5.715728332e-04	4.942293098e-11
-4.100000000e-03	2.321422667e-01	-5.692166493e-04	2.724323896e-11
-4.200000000e-03	2.321422725e-01	-5.668604651e-04	1.083607196e-11
-4.300000000e-03	2.321422781e-01	-5.645042807e-04	9.392903231e-12
-4.400000000e-03	2.321422838e-01	-5.621480961e-04	1.540885976e-11
-4.500000000e-03	2.321422893e-01	-5.597919113e-04	1.771890552e-11
-4.600000000e-03	2.321422948e-01	-5.574357263e-04	3.121490094e-11
-4.700000000e-03	2.321423002e-01	-5.550795411e-04	5.972259341e-12
-4.800000000e-03	2.321423055e-01	-5.527233557e-04	1.284664166e-11
-4.900000000e-03	2.321423108e-01	-5.503671701e-04	8.766024434e-12
-5.000000000e-03	2.321423160e-01	-5.480109844e-04	7.953094249e-12
-5.100000000e-03	2.321423211e-01	-5.456547984e-04	1.234231390e-11
-5.200000000e-03	2.321423261e-01	-5.432986123e-04	1.161550558e-11
-5.300000000e-03	2.321423311e-01	-5.409424259e-04	8.611834077e-12
-5.400000000e-03	2.321423360e-01	-5.385862395e-04	2.859180656e-11
-5.500000000e-03	2.321423408e-01	-5.362300528e-04	1.222281473e-11
-5.600000000e-03	2.321423456e-01	-5.338738660e-04	1.018159794e-11
-5.700000000e-03	2.321423502e-01	-5.315176790e-04	9.421692929e-12
-5.800000000e-03	2.321423549e-01	-5.291614918e-04	1.104590736e-11
-5.900000000e-03	2.321423594e-01	-5.268053045e-04	1.768930574e-10
-6.000000000e-03	2.321423639e-01	-5.244491171e-04	1.192588121e-11
-6.100000000e-03	2.321423683e-01	-5.220929295e-04	9.715096320e-12
-6.200000000e-03	2.321423726e-01	-5.197367418e-04	1.724324348e-11
-6.300000000e-03	2.321423768e-01	-5.173805539e-04	3.043789623e-11
-6.400000000e-03	2.321423810e-01	-5.150243659e-04	1.906980343e-11
-6.500000000e-03	2.321423851e-01	-5.126681777e-04	1.587558554e-11
-6.600000000e-03	2.321423892e-01	-5.103119894e-04	1.081665793e-11
-6.700000000e-03	2.321423931e-01	-5.079558010e-04	1.441709646e-11
-6.800000000e-03	2.321423970e-01	-5.055996125e-04	1.323350504e-11
-6.900000000e-03	2.321424009e-01	-5.032434239e-04	3.143869335e-11
-7.000000000e-03	2.321424046e-01	-5.008872351e-04	1.875684265e-11
-7.100000000e-03	2.321424083e-01	-4.985310462e-04	1.397904725e-11
-7.200000000e-03	2.321424119e-01	-4.961748572e-04	8.458099134e-12
-7.300000000e-03	2.321424154e-01	-4.938186682e-04	6.654776779e-12
-7.400000000e-03	2.321424189e-01	-4.914624790e-04	1.049887863e-11
-7.500000000e-03	2.321424223e-01	-4.891062897e-04	1.237643228e-11
-7.600000000e-03	2.321424256e-01	-4.867501003e-04	1.476493949e-11
-7.700000000e-03	2.321424289e-01	-4.843939109e-04	3.175338698e-11
-7.800000000e-03	2.321424320e-01	-4.820377213e-04	1.430252778e-11
-7.900000000e-03	2.321424352e-01	-4.796815317e-04	1.147313525e-11
-8.000000000e-03	2.321424382e-01	-4.773253420e-04	9.855848020e-12
-8.100000000e-03	2.321424411e-01	-4.749691522e-04	1.593242245e-11
-8.200000000e-03	2.321424440e-01	-4.726129624e-04	1.079647874e-11
-8.300000000e-03	2.321424469e-01	-4.702567724e-04	1.400252435e-11
-8.400000000e-03	2.321424496e-01	-4.679005824e-04	3.075171545e-11
-8.500000000e-03	2.321424523e-01	-4.655443924e-04	2.905420871e-11
-8.600000000e-03	2.321424549e-01	-4.631882023e-04	1.341509537e-11
-8.700000000e-03	2.321424574e-01	-4.608320122e-04	1.563165072e-11
-8.800000000e-03	2.321424599e-01	-4.584758220e-04	1.362931297e-11
-8.900000000e-03	2.321424623e-01	-4.561196317e-04	1.878765853e-11
-9.000000000e-03	2.321424646e-01	-4.537634414e-04	2.068242457e-11
-9.100000000e-03	2.321424668e-01	-4.514072511e-04	3.071608117e-11
-9.200000000e-03	2.321424690e-01	-4.490510607e-04	1.346507557e-11
-9.300000000e-03	2.321424711e-01	-4.466948703e-04	2.785110026e-11
-9.400000000e-03	2.321424731e-01	-4.443386799e-04	7.397225173e-12
-9.500000000e-03	2.321424751e-01	-4.419824895e-04	1.816798934e-11
-9.600000000e-03	2.321424770e-01	-4.396262990e-04	9.412725672e-12
-9.700000000e-03	2.321424788e-01	-4.372701085e-04	1.322804297e-11
-9.800000000e-03	2.321424805e-01	-4.349139180e-04	8.339228580e-12
-9.900000000e-03	2.321424822e-01	-4.325577275e-04	1.587991445e-10
-1.000000000e-02	2.321424838e-01	-4.302015370e-04	1.171841460e-11
-1.010000000e-02	2.321424854e-01	-4.278453465e-04	1.286627579e-11
-1.020000000e-02	2.321424868e-01	-4.254891560e-04	7.173560341e-12
-1.030000000e-02	2.321424882e-01	-4.231329655e-04	1.598135313e-11
-1.040000000e-02	2.321424895e-01	-4.207767750e-04	1.415778280e-11
-1.050000000e-02	2.321424907e-01	-4.184205845e-04	1.422519975e-11
-1.060000000e-02	2.321424919e-01	-4.160643940e-04	1.039787707e-11
-1.070000000e-02	2.321424930e-01	-4.137082036e-04	1.900701789e-11
-1.080000000e-02	2.321424940e-01	-4.113520132e-04	2.832583428e-11
-1.090000000e-02	2.321424950e-01	-4.089958228e-04	1.830671833e-11
-1.100000000e-02	2.321424959e-01	-4.066396324e-04	2.484688569e-11
-1.110000000e-02	2.321424967e-01	-4.042834421e-04	2.644366761e-11
-1.120000000e-02	2.321424974e-01	-4.019272518e-04	1.018149293e-11
-1.130000000e-02	2.321424981e-01	-3.995710615e-04	1.423010634e-11
-1.140000000e-02	2.321424987e-01	-3.972148713e-04	2.504505020e-11
-1.150000000e-02	2.321424992e-01	-3.948586812e-04	6.032096442e-12
-1.160000000e-02	2.321424997e-01	-3.925024911e-04	1.113590695e-11
-1.170000000e-02	2.321425001e-01	-3.901463010e-04	8.170581629e-12
-1.180000000e-02	2.321425004e-01	-3.877901110e-04	7.825586845e-11
-1.190000000e-02	2.321425006e-01	-3.854339211e-04	1.418824900e-11
-1.200000000e-02	2.321425008e-01	-3.830777312e-04	2.009312086e-11
-1.210000000e-02	2.321425009e-01	-3.807215415e-04	6.607329949e-12
-1.220000000e-02	2.321425009e-01	-3.783653517e-04	1.710645318e-11
-1.230000000e-02	2.321425008e-01	-3.760091621e-04	1.758171484e-11
-1.240000000e-02	2.321425007e-01	-3.736529726e-04	1.757803234e-11
-1.250000000e-02	2.321425005e-01	-3.712967831e-04	1.226074122e-11
-1.260000000e-02	2.321425003e-01	-3.689405937e-04	1.400713877e-11
-1.270000000e-02	2.321424999e-01	-3.665844044e-04	6.947246954e-12
-1.280000000e-02	2.321424995e-01	-3.642282152e-04	1.882040745e-11
-1.290000000e-02	2.321424990e-01	-3.618720261e-04	6.585164249e-11
-1.300000000e-02	2.321424985e-01	-3.595158372e-04	7.280335856e-12
-1.310000000e-02	2.321424979e-01	-3.571596483e-04	5.853937875e-12
-1.320000000e-02	2.321424972e-01	-3.548034595e-04	6.059699393e-12
-1.330000000e-02	2.321424964e-01	-3.524472709e-04	3.469389733e-11
-1.340000000e-02	2.321424956e-01	-3.500910823e-04	5.391465213e-12
-1.350000000e-02	2.321424947e-01	-3.477348939e-04	1.484073316e-11
-1.360000000e-02	2.321424937e-01	-3.453787056e-04	7.142654151e-11
-1.370000000e-02	2.321424926e-01	-3.430225175e-04	8.658156284e-12
-1.380000000e-02	2.321424915e-01	-3.406663294e-04	7.193407908e-11
-1.390000000e-02	2.321424903e-01	-3.383101415e-04	8.470124649e-12
-1.400000000e-02	2.321424890e-01	-3.359539538e-04	9.644551892e-12
-1.410000000e-02	2.321424877e-01	-3.335977662e-04	1.301221548e-11
-1.420000000e-02	2.321424863e-01	-3.312415787e-04	9.697597199e-12
-1.430000000e-02	2.321424848e-01	-3.288853914e-04	2.096801873e-11
-1.440000000e-02	2.321424833e-01	-3.265292042e-04	1.114033827e-11
-1.450000000e-02	2.321424816e-01	-3.241730172e-04	1.045203772e-11
-1.460000000e-02	2.321424799e-01	-3.218168304e-04	1.804397889e-11
-1.470000000e-02	2.321424782e-01	-3.194606437e-04	9.770954914e-12
-1.480000000e-02	2.321424763e-01	-3.171044572e-04	3.298023814e-11
-1.490000000e-02	2.321424744e-01	-3.147482709e-04	1.748804665e-11
-1.500000000e-02	2.321424724e-01	-3.123920848e-04	1.784779906e-11
-1.510000000e-02	2.321424704e-01	-3.100358988e-04	1.728440043e-11
-1.520000000e-02	2.321424682e-01	-3.076797130e-04	9.692414222e-12
-1.530000000e-02	2.321424660e-01	-3.053235274e-04	3.609895356e-11
-1.540000000e-02	2.321424638e-01	-3.029673420e-04	7.794894684e-12
-1.550000000e-02	2.321424614e-01	-3.006111568e-04	3.344549240e-11
-1.560000000e-02	2.321424590e-01	-2.982549717e-04	2.647801318e-11
-1.570000000e-02	2.321424565e-01	-2.958987869e-04	2.069904235e-11
-1.580000000e-02	2.321424540e-01	-2.935426023e-04	6.238706447e-12
-1.590000000e-02	2.321424513e-01	-2.911864179e-04	1.231311023e-11
-1.600000000e-02	2.321424486e-01	-2.888302337e-04	1.118818842e-11
-1.610000000e-02	2.321424459e-01	-2.864740497e-04	7.015070244e-12
-1.620000000e-02	2.321424430e-01	-2.841178660e-04	9.572219629e-12
-1.630000000e-02	2.321424401e-01	-2.817616824e-04	6.944717079e-12
-1.640000000e-02	2.321424371e-01	-2.794054991e-04	1.411369930e-11
-1.650000000e-02	2.321424340e-01	-2.770493161e-04	1.264329967e-11
-1.660000000e-02	2.321424309e-01	-2.746931332e-04	7.492272404e-12
-1.670000000e-02	2.321424277e-01	-2.723369506e-04	1.079154559e-11
-1.680000000e-02	2.321424244e-01	-2.699807682e-04	7.435344176e-12
-1.690000000e-02	2.321424211e-01	-2.676245861e-04	8.939351933e-12
-1.700000000e-02	2.321424177e-01	-2.652684043e-04	6.890758888e-11
-1.710000000e-02	2.321424142e-01	-2.629122227e-04	1.322927121e-11
-1.720000000e-02	2.321424106e-01	-2.605560413e-04	2.866091024e-11
-1.730000000e-02	2.321424070e-01	-2.581998602e-04	1.327187460e-11
-1.740000000e-02	2.321424033e-01	-2.558436794e-04	6.129713738e-12
-1.750000000e-02	2.321423995e-01	-2.534874988e-04	2.093721495e-11
-1.760000000e-02	2.321423956e-01	-2.511313185e-04	2.018987667e-11
-1.770000000e-02	2.321423917e-01	-2.487751385e-04	2.734479474e-11
-1.780000000e-02	2.321423877e-01	-2.464189587e-04	9.137881251e-12
-1.790000000e-02	2.321423837e-01	-2.440627793e-04	8.294622153e-12
-1.800000000e-02	2.321423795e-01	-2.417066001e-04	3.482585397e-12
-1.810000000e-02	2.321423753e-01	-2.393504212e-04	1.076334042e-11
-1.820000000e-02	2.321423710e-01	-2.369942426e-04	6.012557987e-11
-1.830000000e-02	2.321423667e-01	-2.346380643e-04	7.494946005e-12
-1.840000000e-02	2.321423623e-01	-2.322818863e-04	9.876533786e-12
-1.850000000e-02	2.321423578e-01	-2.299257086e-04	1.322272595e-11
-1.860000000e-02	2.321423532e-01	-2.275695312e-04	6.444930327e-12
-1.870000000e-02	2.321423486e-01	-2.252133541e-04	1.201471946e-11
-1.880000000e-02	2.321423439e-01	-2.228571774e-04	1.596615111e-11
-1.890000000e-02	2.321423391e-01	-2.205010009e-04	9.185587386e-12
-1.900000000e-02	2.321423342e-01	-2.181448248e-04	1.696827173e-11
-1.910000000e-02	2.321423293e-01	-2.157886490e-04	7.542672469e-11
-1.920000000e-02	2.321423243e-01	-2.134324735e-04	1.235366562e-11
-1.930000000e-02	2.321423192e-01	-2.110762984e-04	3.275337281e-11
-1.940000000e-02	2.321423141e-01	-2.087201236e-04	2.004646831e-11
-1.950000000e-02	2.321423089e-01	-2.063639491e-04	1.898804475e-11
-1.960000000e-02	2.321423036e-01	-2.040077750e-04	7.094457020e-12
-1.970000000e-02	2.321422982e-01	-2.016516012e-04	1.695270792e-11
-1.980000000e-02	2.321422928e-01	-1.992954278e-04	2.686230536e-11
-1.990000000e-02	2.321422873e-01	-1.969392547e-04	8.863292683e-12
-2.000000000e-02	2.321422818e-01	-1.945830820e-04	1.354486365e-11
-2.010000000e-02	2.321422761e-01	-1.922269097e-04	1.089013954e-11
-2.020000000e-02	2.321422704e-01	-1.898707377e-04	8.297261931e-12
-2.030000000e-02	2.321422646e-01	-1.875145661e-04	1.134288291e-11
-2.040000000e-02	2.321422588e-01	-1.851583948e-04	2.702186785e-11
-2.050000000e-02	2.321422528e-01	-1.828022240e-04	1.355239756e-11
-2.060000000e-02	2.321422468e-01	-1.804460535e-04	1.053760479e-11
-2.070000000e-02	2.321422408e-01	-1.780898834e-04	1.016712629e-11
-2.080000000e-02	2.321422346e-01	-1.757337137e-04	2.334961408e-11
-2.090000000e-02	2.321422284e-01	-1.733775443e-04	1.117209701e-11
-2.100000000e-02	2.321422221e-01	-1.710213754e-04	4.757882919e-11
-2.110000000e-02	2.321422157e-01	-1.686652069e-04	1.462737191e-11
-2.120000000e-02	2.321422093e-01	-1.663090387e-04	1.315094331e-11
-2.130000000e-02	2.321422028e-01	-1.639528710e-04	9.554439429e-12
-2.140000000e-02	2.321421962e-01	-1.615967037e-04	1.035752091e-11
-2.150000000e-02	2.321421896e-01	-1.592405368e-04	2.180738628e-11
-2.160000000e-02	2.321421829e-01	-1.568843703e-04	8.633738070e-12
-2.170000000e-02	2.321421761e-01	-1.545282042e-04	9.119592425e-12
-2.180000000e-02	2.321421692e-01	-1.521720386e-04	8.828884664e-12
-2.190000000e-02	2.321421623e-01	-1.498158734e-04	3.251477704e-11
-2.200000000e-02	2.321421553e-01	-1.474597086e-04	1.058174734e-11
-2.210000000e-02	2.321421482e-01	-1.451035442e-04	1.209409140e-11
-2.220000000e-02	2.321421411e-01	-1.427473803e-04	2.175300184e-11
-2.230000000e-02	2.321421338e-01	-1.403912168e-04	9.263838375e-12
-2.240000000e-02	2.321421266e-01	-1.380350538e-04	1.070341088e-11
-2.250000000e-02	2.321421192e-01	-1.356788912e-04	1.833790377e-11
-2.260000000e-02	2.321421118e-01	-1.333227291e-04	1.479826308e-11
-2.270000000e-02	2.321421043e-01	-1.309665674e-04	3.382640964e-11
-2.280000000e-02	2.321420967e-01	-1.286104062e-04	3.343280920e-11
-2.290000000e-02	2.321420890e-01	-1.262542455e-04	2.305123981e-11
-2.300000000e-02	2.321420813e-01	-1.238980852e-04	2.082267502e-11
-2.310000000e-02	2.321420735e-01	-1.215419254e-04	2.184396824e-11
-2.320000000e-02	2.321420656e-01	-1.191857660e-04	1.924670477e-11
-2.330000000e-02	2.321420577e-01	-1.168296072e-04	3.889558060e-11
-2.340000000e-02	2.321420497e-01	-1.144734488e-04	2.010284030e-11
-2.350000000e-02	2.321420416e-01	-1.121172909e-04	5.680759706e-12
-2.360000000e-02	2.321420335e-01	-1.097611335e-04	1.340485540e-11
-2.370000000e-02	2.321420252e-01	-1.074049766e-04	7.265698489e-12
-2.380000000e-02	2.321420170e-01	-1.050488202e-04	2.897947387e-11
-2.390000000e-02	2.321420086e-01	-1.026926643e-04	1.184148766e-11
-2.400000000e-02	2.321420001e-01	-1.003365088e-04	7.466777781e-12
-2.410000000e-02	2.321419916e-01	-9.798035394e-05	3.633354714e-11
-2.420000000e-02	2.321419831e-01	-9.562419955e-05	3.590996861e-11
-2.430000000e-02	2.321419744e-01	-9.326804566e-05	6.578259694e-12
-2.440000000e-02	2.321419657e-01	-9.091189230e-05	2.045787708e-11
-2.450000000e-02	2.321419569e-01	-8.855573946e-05	6.123255897e-12
-2.460000000e-02	2.321419480e-01	-8.619958715e-05	1.593698169e-11
-2.470000000e-02	2.321419391e-01	-8.384343536e-05	3.677472216e-11
-2.480000000e-02	2.321419301e-01	-8.148728411e-05	1.302158582e-11
-2.490000000e-02	2.321419210e-01	-7.913113339e-05	9.698667834e-12
-2.500000000e-02	2.321419118e-01	-7.677498321e-05	9.036403631e-12
-2.510000000e-02	2.321419026e-01	-7.441883357e-05	8.604311635e-12
-2.520000000e-02	2.321418933e-01	-7.206268449e-05	9.553471898e-12
-2.530000000e-02	2.321418839e-01	-6.970653595e-05	1.359174199e-11
-2.540000000e-02	2.321418745e-01	-6.735038797e-05	1.955003067e-11
-2.550000000e-02	2.321418650e-01	-6.499424054e-05	3.544718780e-11
-2.560000000e-02	2.321418554e-01	-6.263809368e-05	1.524554308e-11
-2.570000000e-02	2.321418457e-01	-6.028194738e-05	4.360132031e-11
-2.580000000e-02	2.321418360e-01	-5.792580165e-05	1.314901060e-11
-2.590000000e-02	2.321418262e-01	-5.556965649e-05	9.488351340e-12
-2.600000000e-02	2.321418163e-01	-5.321351191e-05	1.304569473e-11
-2.610000000e-02	2.321418064e-01	-5.085736791e-05	9.030813465e-12
-2.620000000e-02	2.321417964e-01	-4.850122449e-05	1.427621570e-11
-2.630000000e-02	2.321417863e-01	-4.614508166e-05	1.054995329e-11
-2.640000000e-02	2.321417761e-01	-4.378893942e-05	1.600125918e-11
-2.650000000e-02	2.321417659e-01	-4.143279777e-05	1.049041355e-11
-2.660000000e-02	2.321417556e-01	-3.907665672e-05	1.164145398e-11
-2.670000000e-02	2.321417452e-01	-3.672051627e-05	1.499810825e-11
-2.680000000e-02	2.321417348e-01	-3.436437643e-05	7.933643806e-12
-2.690000000e-02	2.321417242e-01	-3.200823720e-05	2.523921066e-11
-2.700000000e-02	2.321417137e-01	-2.965209858e-05	1.984845227e-11
-2.710000000e-02	2.321417030e-01	-2.729596057e-05	9.826343775e-12
-2.720000000e-02	2.321416923e-01	-2.493982319e-05	3.218372503e-11
-2.730000000e-02	2.321416815e-01	-2.258368643e-05	9.002226358e-12
-2.740000000e-02	2.321416706e-01	-2.022755029e-05	1.693198039e-11
-2.750000000e-02	2.321416596e-01	-1.787141479e-05	9.794011113e-12
-2.760000000e-02	2.321416486e-01	-1.551527992e-05	4.298467933e-11
-2.770000000e-02	2.321416375e-01	-1.315914568e-05	1.167264791e-11
-2.780000000e-02	2.321416264e-01	-1.080301209e-05	1.203073768e-11
-2.790000000e-02	2.321416151e-01	-8.446879150e-06	2.117214417e-11
-2.800000000e-02	2.321416038e-01	-6.090746852e-06	6.967067446e-11
-2.810000000e-02	2.321415924e-01	-3.734615202e-06	6.545837861e-11
-2.820000000e-02	2.321415810e-01	-1.378484218e-06	2.528199618e-11
-2.830000000e-02	2.321415695e-01	9.776461109e-07	1.560334706e-11
-2.840000000e-02	2.321415579e-01	3.333775777e-06	1.371653603e-11
-2.850000000e-02	2.321415462e-01	5.689904775e-06	2.229302472e-11
-2.860000000e-02	2.321415345e-01	8.046033104e-06	3.087227667e-11
-2.870000000e-02	2.321415227e-01	1.040216076e-05	1.565228516e-11
-2.880000000e-02	2.321415108e-01	1.275828773e-05	1.078237378e-11
-2.890000000e-02	2.321414988e-01	1.511441403e-05	8.698053658e-12
-2.900000000e-02	2.321414868e-01	1.747053964e-05	8.700611475e-11
-2.910000000e-02	2.321414747e-01	1.982666456e-05	8.437364153e-12
-2.920000000e-02	2.321414625e-01	2.218278879e-05	2.243004302e-11
-2.930000000e-02	2.321414503e-01	2.453891232e-05	1.465937379e-11
-2.940000000e-02	2.321414380e-01	2.689503515e-05	8.084664637e-12
-2.950000000e-02	2.321414256e-01	2.925115728e-05	1.937245337e-11
-2.960000000e-02	2.321414132e-01	3.160727870e-05	8.290670363e-12
-2.970000000e-02	2.321414006e-01	3.396339942e-05	2.910618430e-11
-2.980000000e-02	2.321413880e-01	3.631951941e-05	1.310655836e-11
-2.990000000e-02	2.321413754e-01	3.867563869e-05	3.029864004e-11
-3.000000000e-02	2.321413626e-01	4.103175725e-05	3.400446496e-11
