# Im(epsi1)     Re(omega/c)      Im(omega/c)      Eq(det).Opt det CON kz, R=0.5 \mum, mu_c=0.3, Re(epsi1)=3.90solve_det_conkz_vs_kz.py
0.000000000e+00	2.321377007e-01	-6.658041553e-04	1.479487341e-11
-1.000000000e-04	2.321377094e-01	-6.634480137e-04	1.468126797e-11
-2.000000000e-04	2.321377181e-01	-6.610918718e-04	2.280197067e-11
-3.000000000e-04	2.321377266e-01	-6.587357295e-04	1.374562700e-11
-4.000000000e-04	2.321377351e-01	-6.563795868e-04	1.726164500e-11
-5.000000000e-04	2.321377435e-01	-6.540234438e-04	6.192596351e-12
-6.000000000e-04	2.321377519e-01	-6.516673005e-04	2.592397608e-11
-7.000000000e-04	2.321377601e-01	-6.493111568e-04	2.072359615e-11
-8.000000000e-04	2.321377683e-01	-6.469550128e-04	3.079103530e-11
-9.000000000e-04	2.321377765e-01	-6.445988684e-04	5.950104318e-12
-1.000000000e-03	2.321377845e-01	-6.422427237e-04	1.167808492e-11
-1.100000000e-03	2.321377925e-01	-6.398865787e-04	2.569640938e-11
-1.200000000e-03	2.321378004e-01	-6.375304334e-04	1.152076941e-11
-1.300000000e-03	2.321378082e-01	-6.351742877e-04	2.193979392e-11
-1.400000000e-03	2.321378160e-01	-6.328181417e-04	1.411274376e-11
-1.500000000e-03	2.321378237e-01	-6.304619954e-04	2.158132228e-11
-1.600000000e-03	2.321378313e-01	-6.281058488e-04	8.376937528e-12
-1.700000000e-03	2.321378389e-01	-6.257497019e-04	6.199726321e-12
-1.800000000e-03	2.321378464e-01	-6.233935546e-04	6.640660635e-12
-1.900000000e-03	2.321378538e-01	-6.210374071e-04	1.194518180e-11
-2.000000000e-03	2.321378611e-01	-6.186812593e-04	1.205082700e-11
-2.100000000e-03	2.321378684e-01	-6.163251112e-04	1.205180268e-11
-2.200000000e-03	2.321378756e-01	-6.139689628e-04	1.164460398e-10
-2.300000000e-03	2.321378827e-01	-6.116128141e-04	1.323154522e-11
-2.400000000e-03	2.321378897e-01	-6.092566651e-04	9.789062350e-12
-2.500000000e-03	2.321378967e-01	-6.069005159e-04	1.518081193e-11
-2.600000000e-03	2.321379036e-01	-6.045443663e-04	1.151578317e-11
-2.700000000e-03	2.321379105e-01	-6.021882166e-04	7.695459631e-12
-2.800000000e-03	2.321379172e-01	-5.998320665e-04	1.971058649e-11
-2.900000000e-03	2.321379239e-01	-5.974759162e-04	2.680596392e-11
-3.000000000e-03	2.321379305e-01	-5.951197656e-04	2.849830032e-11
-3.100000000e-03	2.321379371e-01	-5.927636147e-04	9.139056063e-12
-3.200000000e-03	2.321379436e-01	-5.904074636e-04	1.467738224e-11
-3.300000000e-03	2.321379500e-01	-5.880513123e-04	9.000641221e-12
-3.400000000e-03	2.321379563e-01	-5.856951607e-04	1.291944524e-11
-3.500000000e-03	2.321379626e-01	-5.833390089e-04	1.104141481e-11
-3.600000000e-03	2.321379687e-01	-5.809828568e-04	9.999773318e-12
-3.700000000e-03	2.321379749e-01	-5.786267045e-04	3.524685207e-11
-3.800000000e-03	2.321379809e-01	-5.762705520e-04	3.724044211e-11
-3.900000000e-03	2.321379869e-01	-5.739143992e-04	1.856854191e-11
-4.000000000e-03	2.321379928e-01	-5.715582462e-04	1.418875459e-11
-4.100000000e-03	2.321379986e-01	-5.692020930e-04	7.215865951e-12
-4.200000000e-03	2.321380044e-01	-5.668459396e-04	1.154622725e-11
-4.300000000e-03	2.321380101e-01	-5.644897859e-04	8.010628693e-12
-4.400000000e-03	2.321380157e-01	-5.621336321e-04	7.220108697e-12
-4.500000000e-03	2.321380212e-01	-5.597774780e-04	1.273504852e-11
-4.600000000e-03	2.321380267e-01	-5.574213238e-04	7.543255248e-12
-4.700000000e-03	2.321380321e-01	-5.550651693e-04	1.740935987e-11
-4.800000000e-03	2.321380374e-01	-5.527090147e-04	6.064302324e-12
-4.900000000e-03	2.321380427e-01	-5.503528599e-04	1.018341476e-11
-5.000000000e-03	2.321380479e-01	-5.479967048e-04	9.462415033e-12
-5.100000000e-03	2.321380530e-01	-5.456405496e-04	5.169608835e-12
-5.200000000e-03	2.321380580e-01	-5.432843942e-04	1.384376751e-11
-5.300000000e-03	2.321380630e-01	-5.409282387e-04	1.003453442e-11
-5.400000000e-03	2.321380679e-01	-5.385720829e-04	1.098600071e-11
-5.500000000e-03	2.321380727e-01	-5.362159270e-04	1.230622290e-11
-5.600000000e-03	2.321380775e-01	-5.338597710e-04	8.417195796e-12
-5.700000000e-03	2.321380822e-01	-5.315036147e-04	1.185133589e-11
-5.800000000e-03	2.321380868e-01	-5.291474583e-04	1.045256360e-11
-5.900000000e-03	2.321380913e-01	-5.267913018e-04	1.080271442e-11
-6.000000000e-03	2.321380958e-01	-5.244351451e-04	1.185307737e-11
-6.100000000e-03	2.321381002e-01	-5.220789882e-04	2.998113948e-11
-6.200000000e-03	2.321381045e-01	-5.197228313e-04	5.301319841e-12
-6.300000000e-03	2.321381088e-01	-5.173666741e-04	2.254218289e-11
-6.400000000e-03	2.321381129e-01	-5.150105169e-04	1.769734903e-11
-6.500000000e-03	2.321381170e-01	-5.126543595e-04	4.271838271e-12
-6.600000000e-03	2.321381211e-01	-5.102982019e-04	9.966659819e-12
-6.700000000e-03	2.321381251e-01	-5.079420443e-04	2.202423778e-11
-6.800000000e-03	2.321381289e-01	-5.055858865e-04	1.188702167e-11
-6.900000000e-03	2.321381328e-01	-5.032297286e-04	1.161393443e-11
-7.000000000e-03	2.321381365e-01	-5.008735706e-04	2.417735604e-11
-7.100000000e-03	2.321381402e-01	-4.985174125e-04	1.078294589e-11
-7.200000000e-03	2.321381438e-01	-4.961612543e-04	1.395128808e-11
-7.300000000e-03	2.321381473e-01	-4.938050959e-04	4.723651987e-12
-7.400000000e-03	2.321381508e-01	-4.914489375e-04	1.791742468e-11
-7.500000000e-03	2.321381542e-01	-4.890927790e-04	7.490983018e-12
-7.600000000e-03	2.321381575e-01	-4.867366203e-04	9.778823272e-12
-7.700000000e-03	2.321381608e-01	-4.843804616e-04	4.996295135e-11
-7.800000000e-03	2.321381640e-01	-4.820243028e-04	1.299421304e-11
-7.900000000e-03	2.321381671e-01	-4.796681440e-04	7.817518945e-12
-8.000000000e-03	2.321381701e-01	-4.773119850e-04	1.632996527e-11
-8.100000000e-03	2.321381731e-01	-4.749558260e-04	3.518224195e-11
-8.200000000e-03	2.321381759e-01	-4.725996669e-04	1.271919168e-11
-8.300000000e-03	2.321381788e-01	-4.702435077e-04	3.724037591e-11
-8.400000000e-03	2.321381815e-01	-4.678873485e-04	1.367599332e-11
-8.500000000e-03	2.321381842e-01	-4.655311892e-04	7.575261141e-11
-8.600000000e-03	2.321381868e-01	-4.631750298e-04	8.601586923e-12
-8.700000000e-03	2.321381893e-01	-4.608188704e-04	3.808101754e-11
-8.800000000e-03	2.321381918e-01	-4.584627110e-04	9.073274079e-12
-8.900000000e-03	2.321381942e-01	-4.561065515e-04	2.658548955e-11
-9.000000000e-03	2.321381965e-01	-4.537503920e-04	5.926332562e-12
-9.100000000e-03	2.321381987e-01	-4.513942324e-04	1.636984449e-11
-9.200000000e-03	2.321382009e-01	-4.490380728e-04	6.281895639e-12
-9.300000000e-03	2.321382030e-01	-4.466819131e-04	1.510431824e-11
-9.400000000e-03	2.321382050e-01	-4.443257535e-04	3.576398408e-11
-9.500000000e-03	2.321382070e-01	-4.419695938e-04	1.935387370e-11
-9.600000000e-03	2.321382089e-01	-4.396134341e-04	4.286786807e-12
-9.700000000e-03	2.321382107e-01	-4.372572743e-04	1.096431225e-11
-9.800000000e-03	2.321382125e-01	-4.349011146e-04	1.070612838e-11
-9.900000000e-03	2.321382141e-01	-4.325449548e-04	1.111260097e-11
-1.000000000e-02	2.321382157e-01	-4.301887951e-04	1.699218663e-11
-1.010000000e-02	2.321382173e-01	-4.278326353e-04	1.522381242e-11
-1.020000000e-02	2.321382187e-01	-4.254764756e-04	7.197296421e-12
-1.030000000e-02	2.321382201e-01	-4.231203158e-04	6.755328734e-11
-1.040000000e-02	2.321382214e-01	-4.207641561e-04	2.137504366e-11
-1.050000000e-02	2.321382226e-01	-4.184079963e-04	7.184758904e-12
-1.060000000e-02	2.321382238e-01	-4.160518366e-04	1.008823168e-11
-1.070000000e-02	2.321382249e-01	-4.136956769e-04	8.522003489e-12
-1.080000000e-02	2.321382259e-01	-4.113395173e-04	1.442164256e-11
-1.090000000e-02	2.321382269e-01	-4.089833576e-04	2.385687905e-11
-1.100000000e-02	2.321382278e-01	-4.066271980e-04	1.502457156e-11
-1.110000000e-02	2.321382286e-01	-4.042710384e-04	8.535414076e-12
-1.120000000e-02	2.321382293e-01	-4.019148789e-04	1.444382291e-11
-1.130000000e-02	2.321382300e-01	-3.995587194e-04	1.210693628e-11
-1.140000000e-02	2.321382306e-01	-3.972025599e-04	5.872301341e-12
-1.150000000e-02	2.321382311e-01	-3.948464005e-04	2.234267151e-11
-1.160000000e-02	2.321382316e-01	-3.924902412e-04	9.820570320e-12
-1.170000000e-02	2.321382320e-01	-3.901340819e-04	8.253496365e-12
-1.180000000e-02	2.321382323e-01	-3.877779226e-04	9.320196668e-12
-1.190000000e-02	2.321382325e-01	-3.854217635e-04	2.326211928e-11
-1.200000000e-02	2.321382327e-01	-3.830656044e-04	9.848279771e-12
-1.210000000e-02	2.321382328e-01	-3.807094453e-04	1.152889463e-11
-1.220000000e-02	2.321382328e-01	-3.783532864e-04	1.178393090e-11
-1.230000000e-02	2.321382327e-01	-3.759971275e-04	1.528746351e-11
-1.240000000e-02	2.321382326e-01	-3.736409687e-04	1.110305441e-11
-1.250000000e-02	2.321382324e-01	-3.712848100e-04	1.163033030e-11
-1.260000000e-02	2.321382322e-01	-3.689286513e-04	5.832926705e-11
-1.270000000e-02	2.321382318e-01	-3.665724928e-04	3.551081631e-11
-1.280000000e-02	2.321382314e-01	-3.642163344e-04	1.869485256e-11
-1.290000000e-02	2.321382309e-01	-3.618601760e-04	2.945101735e-11
-1.300000000e-02	2.321382304e-01	-3.595040178e-04	3.216929847e-11
-1.310000000e-02	2.321382298e-01	-3.571478597e-04	1.358776830e-11
-1.320000000e-02	2.321382291e-01	-3.547917016e-04	1.135783766e-11
-1.330000000e-02	2.321382283e-01	-3.524355437e-04	1.511852277e-11
-1.340000000e-02	2.321382275e-01	-3.500793860e-04	1.395064331e-11
-1.350000000e-02	2.321382266e-01	-3.477232283e-04	1.710038899e-11
-1.360000000e-02	2.321382256e-01	-3.453670708e-04	8.476635989e-12
-1.370000000e-02	2.321382245e-01	-3.430109134e-04	1.194915522e-11
-1.380000000e-02	2.321382234e-01	-3.406547561e-04	1.064579040e-11
-1.390000000e-02	2.321382222e-01	-3.382985989e-04	8.065164178e-12
-1.400000000e-02	2.321382209e-01	-3.359424419e-04	2.881866608e-11
-1.410000000e-02	2.321382196e-01	-3.335862851e-04	8.327342347e-12
-1.420000000e-02	2.321382182e-01	-3.312301284e-04	2.186705552e-11
-1.430000000e-02	2.321382167e-01	-3.288739718e-04	1.319324934e-11
-1.440000000e-02	2.321382151e-01	-3.265178154e-04	3.032727398e-11
-1.450000000e-02	2.321382135e-01	-3.241616592e-04	1.531854693e-11
-1.460000000e-02	2.321382118e-01	-3.218055031e-04	9.104177162e-12
-1.470000000e-02	2.321382101e-01	-3.194493472e-04	2.666276880e-11
-1.480000000e-02	2.321382082e-01	-3.170931914e-04	1.071991408e-11
-1.490000000e-02	2.321382063e-01	-3.147370358e-04	4.388134358e-11
-1.500000000e-02	2.321382043e-01	-3.123808804e-04	4.787271280e-12
-1.510000000e-02	2.321382023e-01	-3.100247252e-04	1.406970505e-11
-1.520000000e-02	2.321382001e-01	-3.076685702e-04	9.339280139e-12
-1.530000000e-02	2.321381979e-01	-3.053124153e-04	1.446041764e-11
-1.540000000e-02	2.321381957e-01	-3.029562607e-04	1.296989164e-11
-1.550000000e-02	2.321381933e-01	-3.006001062e-04	1.258842480e-11
-1.560000000e-02	2.321381909e-01	-2.982439519e-04	9.978917295e-12
-1.570000000e-02	2.321381884e-01	-2.958877979e-04	1.134236561e-11
-1.580000000e-02	2.321381859e-01	-2.935316440e-04	8.207952623e-12
-1.590000000e-02	2.321381832e-01	-2.911754903e-04	9.775470593e-12
-1.600000000e-02	2.321381805e-01	-2.888193369e-04	2.762001760e-11
-1.610000000e-02	2.321381777e-01	-2.864631837e-04	1.857931301e-11
-1.620000000e-02	2.321381749e-01	-2.841070307e-04	1.234887470e-11
-1.630000000e-02	2.321381720e-01	-2.817508779e-04	6.940755729e-12
-1.640000000e-02	2.321381690e-01	-2.793947253e-04	9.686136398e-12
-1.650000000e-02	2.321381659e-01	-2.770385730e-04	1.336928263e-11
-1.660000000e-02	2.321381628e-01	-2.746824209e-04	1.758463905e-11
-1.670000000e-02	2.321381596e-01	-2.723262691e-04	1.187329504e-11
-1.680000000e-02	2.321381563e-01	-2.699701175e-04	1.235856235e-11
-1.690000000e-02	2.321381530e-01	-2.676139661e-04	1.540714496e-11
-1.700000000e-02	2.321381496e-01	-2.652578150e-04	6.694926808e-12
-1.710000000e-02	2.321381461e-01	-2.629016641e-04	7.485230609e-12
-1.720000000e-02	2.321381425e-01	-2.605455135e-04	1.269193160e-11
-1.730000000e-02	2.321381389e-01	-2.581893632e-04	6.050248437e-11
-1.740000000e-02	2.321381352e-01	-2.558332131e-04	7.962953168e-12
-1.750000000e-02	2.321381314e-01	-2.534770633e-04	3.704691683e-11
-1.760000000e-02	2.321381275e-01	-2.511209137e-04	1.202771279e-11
-1.770000000e-02	2.321381236e-01	-2.487647645e-04	8.259457097e-12
-1.780000000e-02	2.321381196e-01	-2.464086155e-04	6.776753992e-12
-1.790000000e-02	2.321381156e-01	-2.440524668e-04	1.587805800e-11
-1.800000000e-02	2.321381114e-01	-2.416963183e-04	2.352213623e-11
-1.810000000e-02	2.321381072e-01	-2.393401702e-04	1.085039775e-11
-1.820000000e-02	2.321381029e-01	-2.369840224e-04	7.214323468e-11
-1.830000000e-02	2.321380986e-01	-2.346278748e-04	7.607715641e-12
-1.840000000e-02	2.321380942e-01	-2.322717276e-04	1.102047068e-11
-1.850000000e-02	2.321380897e-01	-2.299155806e-04	1.706868753e-11
-1.860000000e-02	2.321380851e-01	-2.275594340e-04	3.355098943e-11
-1.870000000e-02	2.321380805e-01	-2.252032876e-04	1.207984615e-11
-1.880000000e-02	2.321380757e-01	-2.228471416e-04	9.482941529e-12
-1.890000000e-02	2.321380710e-01	-2.204909960e-04	2.717729357e-10
-1.900000000e-02	2.321380661e-01	-2.181348506e-04	2.452225473e-11
-1.910000000e-02	2.321380612e-01	-2.157787055e-04	2.010597035e-11
-1.920000000e-02	2.321380562e-01	-2.134225608e-04	4.437835586e-11
-1.930000000e-02	2.321380511e-01	-2.110664164e-04	1.058753682e-11
-1.940000000e-02	2.321380460e-01	-2.087102724e-04	8.587854902e-12
-1.950000000e-02	2.321380408e-01	-2.063541287e-04	4.524799570e-12
-1.960000000e-02	2.321380355e-01	-2.039979853e-04	1.500066937e-11
-1.970000000e-02	2.321380301e-01	-2.016418423e-04	6.097844875e-12
-1.980000000e-02	2.321380247e-01	-1.992856996e-04	1.408304406e-11
-1.990000000e-02	2.321380192e-01	-1.969295573e-04	6.207318377e-11
-2.000000000e-02	2.321380136e-01	-1.945734153e-04	6.580124631e-12
-2.010000000e-02	2.321380080e-01	-1.922172737e-04	9.516026834e-12
-2.020000000e-02	2.321380023e-01	-1.898611325e-04	1.387210889e-11
-2.030000000e-02	2.321379965e-01	-1.875049916e-04	1.106539212e-11
-2.040000000e-02	2.321379906e-01	-1.851488511e-04	9.706183152e-12
-2.050000000e-02	2.321379847e-01	-1.827927110e-04	1.525537397e-11
-2.060000000e-02	2.321379787e-01	-1.804365713e-04	1.084703401e-11
-2.070000000e-02	2.321379726e-01	-1.780804319e-04	2.012678909e-11
-2.080000000e-02	2.321379665e-01	-1.757242930e-04	7.828696369e-12
-2.090000000e-02	2.321379603e-01	-1.733681544e-04	6.239915844e-12
-2.100000000e-02	2.321379540e-01	-1.710120162e-04	6.765569821e-12
-2.110000000e-02	2.321379476e-01	-1.686558785e-04	6.923490842e-12
-2.120000000e-02	2.321379412e-01	-1.662997411e-04	1.101047337e-11
-2.130000000e-02	2.321379347e-01	-1.639436041e-04	5.549935533e-12
-2.140000000e-02	2.321379281e-01	-1.615874675e-04	6.894036579e-12
-2.150000000e-02	2.321379215e-01	-1.592313314e-04	2.090935131e-11
-2.160000000e-02	2.321379148e-01	-1.568751957e-04	2.860674888e-11
-2.170000000e-02	2.321379080e-01	-1.545190603e-04	2.951486312e-11
-2.180000000e-02	2.321379011e-01	-1.521629254e-04	8.535098688e-12
-2.190000000e-02	2.321378942e-01	-1.498067910e-04	8.038383333e-12
-2.200000000e-02	2.321378872e-01	-1.474506569e-04	1.112667206e-11
-2.210000000e-02	2.321378801e-01	-1.450945233e-04	1.490518729e-11
-2.220000000e-02	2.321378729e-01	-1.427383902e-04	1.185186710e-11
-2.230000000e-02	2.321378657e-01	-1.403822575e-04	7.666698293e-12
-2.240000000e-02	2.321378584e-01	-1.380261252e-04	9.651122899e-12
-2.250000000e-02	2.321378511e-01	-1.356699934e-04	1.523199750e-11
-2.260000000e-02	2.321378436e-01	-1.333138620e-04	1.341893238e-11
-2.270000000e-02	2.321378361e-01	-1.309577311e-04	8.321027974e-12
-2.280000000e-02	2.321378286e-01	-1.286016006e-04	1.103071627e-11
-2.290000000e-02	2.321378209e-01	-1.262454706e-04	7.831983462e-12
-2.300000000e-02	2.321378132e-01	-1.238893411e-04	6.861515831e-12
-2.310000000e-02	2.321378054e-01	-1.215332120e-04	4.539153882e-12
-2.320000000e-02	2.321377975e-01	-1.191770834e-04	2.298555749e-11
-2.330000000e-02	2.321377896e-01	-1.168209553e-04	6.769443603e-12
-2.340000000e-02	2.321377816e-01	-1.144648277e-04	1.273849710e-11
-2.350000000e-02	2.321377735e-01	-1.121087006e-04	4.948955747e-11
-2.360000000e-02	2.321377653e-01	-1.097525739e-04	2.041892165e-11
-2.370000000e-02	2.321377571e-01	-1.073964478e-04	1.307386173e-11
-2.380000000e-02	2.321377488e-01	-1.050403221e-04	1.723366119e-11
-2.390000000e-02	2.321377405e-01	-1.026841969e-04	8.333682878e-12
-2.400000000e-02	2.321377320e-01	-1.003280723e-04	2.097978276e-11
-2.410000000e-02	2.321377235e-01	-9.797194812e-05	1.582138277e-11
-2.420000000e-02	2.321377149e-01	-9.561582448e-05	9.038371075e-12
-2.430000000e-02	2.321377063e-01	-9.325970136e-05	1.486533222e-11
-2.440000000e-02	2.321376975e-01	-9.090357875e-05	4.352561497e-11
-2.450000000e-02	2.321376888e-01	-8.854745666e-05	2.966708896e-11
-2.460000000e-02	2.321376799e-01	-8.619133510e-05	6.488472420e-12
-2.470000000e-02	2.321376709e-01	-8.383521406e-05	1.771973916e-11
-2.480000000e-02	2.321376619e-01	-8.147909357e-05	1.509447193e-11
-2.490000000e-02	2.321376528e-01	-7.912297360e-05	1.545456696e-11
-2.500000000e-02	2.321376437e-01	-7.676685417e-05	9.733255345e-12
-2.510000000e-02	2.321376345e-01	-7.441073529e-05	1.084716442e-11
-2.520000000e-02	2.321376252e-01	-7.205461696e-05	7.219592815e-12
-2.530000000e-02	2.321376158e-01	-6.969849917e-05	1.268342320e-11
-2.540000000e-02	2.321376064e-01	-6.734238194e-05	6.064062625e-12
-2.550000000e-02	2.321375968e-01	-6.498626527e-05	8.542279099e-12
-2.560000000e-02	2.321375873e-01	-6.263014916e-05	1.092940929e-11
-2.570000000e-02	2.321375776e-01	-6.027403362e-05	5.544843254e-11
-2.580000000e-02	2.321375679e-01	-5.791791864e-05	1.009149069e-11
-2.590000000e-02	2.321375581e-01	-5.556180424e-05	1.178031216e-11
-2.600000000e-02	2.321375482e-01	-5.320569041e-05	2.570844495e-11
-2.610000000e-02	2.321375382e-01	-5.084957716e-05	1.277850583e-11
-2.620000000e-02	2.321375282e-01	-4.849346450e-05	2.127848095e-11
-2.630000000e-02	2.321375181e-01	-4.613735242e-05	1.468843825e-11
-2.640000000e-02	2.321375080e-01	-4.378124093e-05	2.120224072e-11
-2.650000000e-02	2.321374978e-01	-4.142513004e-05	1.299104653e-11
-2.660000000e-02	2.321374874e-01	-3.906901974e-05	4.214306042e-12
-2.670000000e-02	2.321374771e-01	-3.671291005e-05	7.722392588e-12
-2.680000000e-02	2.321374666e-01	-3.435680097e-05	1.087679298e-10
-2.690000000e-02	2.321374561e-01	-3.200069248e-05	1.908108727e-11
-2.700000000e-02	2.321374455e-01	-2.964458461e-05	1.598869894e-11
-2.710000000e-02	2.321374349e-01	-2.728847736e-05	9.769522744e-12
-2.720000000e-02	2.321374241e-01	-2.493237073e-05	1.132919642e-11
-2.730000000e-02	2.321374133e-01	-2.257626472e-05	6.716360315e-12
-2.740000000e-02	2.321374024e-01	-2.022015934e-05	1.241743954e-11
-2.750000000e-02	2.321373915e-01	-1.786405459e-05	2.718602456e-11
-2.760000000e-02	2.321373805e-01	-1.550795047e-05	1.077740900e-11
-2.770000000e-02	2.321373694e-01	-1.315184699e-05	3.541393042e-11
-2.780000000e-02	2.321373582e-01	-1.079574416e-05	1.448002112e-11
-2.790000000e-02	2.321373470e-01	-8.439641963e-06	1.288985707e-11
-2.800000000e-02	2.321373357e-01	-6.083540420e-06	1.229778743e-11
-2.810000000e-02	2.321373243e-01	-3.727439530e-06	1.588553280e-11
-2.820000000e-02	2.321373129e-01	-1.371339295e-06	2.178234633e-11
-2.830000000e-02	2.321373013e-01	9.847602819e-07	1.984179417e-11
-2.840000000e-02	2.321372897e-01	3.340859193e-06	8.200950213e-12
-2.850000000e-02	2.321372781e-01	5.696957439e-06	7.047458238e-12
-2.860000000e-02	2.321372663e-01	8.053055012e-06	1.067508319e-11
-2.870000000e-02	2.321372545e-01	1.040915191e-05	1.687513964e-11
-2.880000000e-02	2.321372426e-01	1.276524814e-05	1.493986998e-11
-2.890000000e-02	2.321372307e-01	1.512134368e-05	1.090125149e-11
-2.900000000e-02	2.321372187e-01	1.747743853e-05	1.816359963e-11
-2.910000000e-02	2.321372066e-01	1.983353270e-05	1.375292708e-11
-2.920000000e-02	2.321371944e-01	2.218962617e-05	2.128825964e-11
-2.930000000e-02	2.321371822e-01	2.454571895e-05	1.223544077e-11
-2.940000000e-02	2.321371699e-01	2.690181103e-05	1.449336614e-11
-2.950000000e-02	2.321371575e-01	2.925790241e-05	6.509250362e-12
-2.960000000e-02	2.321371450e-01	3.161399308e-05	1.520978026e-11
-2.970000000e-02	2.321371325e-01	3.397008304e-05	3.917733038e-11
-2.980000000e-02	2.321371199e-01	3.632617228e-05	1.364323729e-11
-2.990000000e-02	2.321371072e-01	3.868226080e-05	1.429518335e-11
-3.000000000e-02	2.321370945e-01	4.103834861e-05	5.904148165e-11
