# Im(epsi1)     Re(omega/c)      Im(omega/c)      Eq(det).Opt det CON kz, R=0.5 \mum, mu_c=0.3, Re(epsi1)=3.90solve_det_conkz_vs_kz.py
0.000000000e+00	2.321363508e-01	-6.657991521e-04	1.595102677e-11
-1.000000000e-04	2.321363595e-01	-6.634430203e-04	1.779816972e-11
-2.000000000e-04	2.321363681e-01	-6.610868881e-04	2.208348037e-11
-3.000000000e-04	2.321363767e-01	-6.587307555e-04	6.608469678e-12
-4.000000000e-04	2.321363851e-01	-6.563746226e-04	7.631377512e-12
-5.000000000e-04	2.321363936e-01	-6.540184893e-04	2.471964861e-11
-6.000000000e-04	2.321364019e-01	-6.516623557e-04	9.070076596e-12
-7.000000000e-04	2.321364102e-01	-6.493062218e-04	1.063383872e-11
-8.000000000e-04	2.321364184e-01	-6.469500875e-04	7.675008850e-12
-9.000000000e-04	2.321364265e-01	-6.445939528e-04	2.516454118e-11
-1.000000000e-03	2.321364345e-01	-6.422378179e-04	1.811398632e-11
-1.100000000e-03	2.321364425e-01	-6.398816826e-04	2.239629742e-11
-1.200000000e-03	2.321364504e-01	-6.375255469e-04	9.231288986e-11
-1.300000000e-03	2.321364583e-01	-6.351694110e-04	4.869859041e-11
-1.400000000e-03	2.321364660e-01	-6.328132747e-04	1.168080765e-11
-1.500000000e-03	2.321364737e-01	-6.304571382e-04	5.761866903e-11
-1.600000000e-03	2.321364814e-01	-6.281010013e-04	1.208318619e-11
-1.700000000e-03	2.321364889e-01	-6.257448641e-04	1.699582895e-11
-1.800000000e-03	2.321364964e-01	-6.233887266e-04	1.361980569e-11
-1.900000000e-03	2.321365038e-01	-6.210325888e-04	1.265015170e-11
-2.000000000e-03	2.321365111e-01	-6.186764507e-04	4.281655149e-11
-2.100000000e-03	2.321365184e-01	-6.163203123e-04	1.650512701e-11
-2.200000000e-03	2.321365256e-01	-6.139641736e-04	1.469142702e-11
-2.300000000e-03	2.321365327e-01	-6.116080346e-04	2.028225916e-11
-2.400000000e-03	2.321365398e-01	-6.092518954e-04	1.459425999e-11
-2.500000000e-03	2.321365467e-01	-6.068957559e-04	2.836093734e-11
-2.600000000e-03	2.321365536e-01	-6.045396161e-04	2.426691958e-11
-2.700000000e-03	2.321365605e-01	-6.021834760e-04	6.497803395e-12
-2.800000000e-03	2.321365672e-01	-5.998273357e-04	1.628993198e-11
-2.900000000e-03	2.321365739e-01	-5.974711951e-04	1.997746423e-11
-3.000000000e-03	2.321365806e-01	-5.951150542e-04	8.208498852e-11
-3.100000000e-03	2.321365871e-01	-5.927589131e-04	1.759295091e-11
-3.200000000e-03	2.321365936e-01	-5.904027717e-04	1.200259180e-11
-3.300000000e-03	2.321366000e-01	-5.880466301e-04	1.029814732e-11
-3.400000000e-03	2.321366063e-01	-5.856904882e-04	1.754884459e-11
-3.500000000e-03	2.321366126e-01	-5.833343461e-04	7.118459701e-12
-3.600000000e-03	2.321366188e-01	-5.809782038e-04	1.046617220e-11
-3.700000000e-03	2.321366249e-01	-5.786220612e-04	1.212652355e-11
-3.800000000e-03	2.321366309e-01	-5.762659184e-04	1.997957600e-11
-3.900000000e-03	2.321366369e-01	-5.739097754e-04	1.054406225e-11
-4.000000000e-03	2.321366428e-01	-5.715536321e-04	2.810004885e-11
-4.100000000e-03	2.321366486e-01	-5.691974886e-04	9.440116212e-12
-4.200000000e-03	2.321366544e-01	-5.668413449e-04	1.161272299e-11
-4.300000000e-03	2.321366601e-01	-5.644852010e-04	5.488020141e-12
-4.400000000e-03	2.321366657e-01	-5.621290569e-04	7.946935102e-12
-4.500000000e-03	2.321366712e-01	-5.597729126e-04	6.881829294e-12
-4.600000000e-03	2.321366767e-01	-5.574167680e-04	7.408986272e-11
-4.700000000e-03	2.321366821e-01	-5.550606233e-04	2.156664106e-11
-4.800000000e-03	2.321366875e-01	-5.527044784e-04	1.366886648e-11
-4.900000000e-03	2.321366927e-01	-5.503483333e-04	5.651375864e-11
-5.000000000e-03	2.321366979e-01	-5.479921880e-04	9.348465631e-12
-5.100000000e-03	2.321367030e-01	-5.456360425e-04	1.475743110e-11
-5.200000000e-03	2.321367080e-01	-5.432798968e-04	2.280642908e-11
-5.300000000e-03	2.321367130e-01	-5.409237510e-04	6.824211909e-12
-5.400000000e-03	2.321367179e-01	-5.385676050e-04	3.645241293e-11
-5.500000000e-03	2.321367227e-01	-5.362114588e-04	1.130912716e-11
-5.600000000e-03	2.321367275e-01	-5.338553125e-04	6.448287616e-12
-5.700000000e-03	2.321367322e-01	-5.314991659e-04	2.315798122e-11
-5.800000000e-03	2.321367368e-01	-5.291430193e-04	1.316914816e-11
-5.900000000e-03	2.321367413e-01	-5.267868725e-04	1.771952092e-11
-6.000000000e-03	2.321367458e-01	-5.244307255e-04	9.552546842e-12
-6.100000000e-03	2.321367502e-01	-5.220745784e-04	2.460530112e-11
-6.200000000e-03	2.321367545e-01	-5.197184311e-04	1.396878856e-11
-6.300000000e-03	2.321367588e-01	-5.173622837e-04	2.090895302e-11
-6.400000000e-03	2.321367630e-01	-5.150061362e-04	9.544611773e-12
-6.500000000e-03	2.321367671e-01	-5.126499885e-04	8.386801319e-12
-6.600000000e-03	2.321367711e-01	-5.102938407e-04	7.958768680e-12
-6.700000000e-03	2.321367751e-01	-5.079376928e-04	1.555215793e-11
-6.800000000e-03	2.321367790e-01	-5.055815447e-04	5.401045757e-11
-6.900000000e-03	2.321367828e-01	-5.032253965e-04	6.464422023e-12
-7.000000000e-03	2.321367865e-01	-5.008692483e-04	5.704411226e-12
-7.100000000e-03	2.321367902e-01	-4.985130999e-04	1.388708311e-11
-7.200000000e-03	2.321367938e-01	-4.961569514e-04	1.352517532e-11
-7.300000000e-03	2.321367974e-01	-4.938008028e-04	8.959336472e-12
-7.400000000e-03	2.321368008e-01	-4.914446541e-04	1.129855709e-11
-7.500000000e-03	2.321368042e-01	-4.890885053e-04	1.699079489e-11
-7.600000000e-03	2.321368076e-01	-4.867323564e-04	6.251317254e-12
-7.700000000e-03	2.321368108e-01	-4.843762074e-04	1.720889427e-11
-7.800000000e-03	2.321368140e-01	-4.820200583e-04	6.835455839e-11
-7.900000000e-03	2.321368171e-01	-4.796639092e-04	1.555233106e-11
-8.000000000e-03	2.321368201e-01	-4.773077599e-04	1.335873099e-11
-8.100000000e-03	2.321368231e-01	-4.749516106e-04	9.225362060e-12
-8.200000000e-03	2.321368260e-01	-4.725954613e-04	7.109186005e-12
-8.300000000e-03	2.321368288e-01	-4.702393118e-04	2.483232265e-11
-8.400000000e-03	2.321368315e-01	-4.678831623e-04	1.646990260e-11
-8.500000000e-03	2.321368342e-01	-4.655270127e-04	1.041766018e-11
-8.600000000e-03	2.321368368e-01	-4.631708631e-04	9.495663625e-12
-8.700000000e-03	2.321368394e-01	-4.608147134e-04	1.627803244e-11
-8.800000000e-03	2.321368418e-01	-4.584585637e-04	1.786678693e-11
-8.900000000e-03	2.321368442e-01	-4.561024140e-04	9.193181442e-12
-9.000000000e-03	2.321368465e-01	-4.537462641e-04	1.285608363e-11
-9.100000000e-03	2.321368488e-01	-4.513901143e-04	7.379235202e-12
-9.200000000e-03	2.321368509e-01	-4.490339644e-04	7.920672958e-12
-9.300000000e-03	2.321368530e-01	-4.466778145e-04	1.039137007e-11
-9.400000000e-03	2.321368551e-01	-4.443216645e-04	1.526563184e-11
-9.500000000e-03	2.321368570e-01	-4.419655146e-04	1.297542444e-11
-9.600000000e-03	2.321368589e-01	-4.396093646e-04	1.419456471e-11
-9.700000000e-03	2.321368607e-01	-4.372532146e-04	2.863938588e-11
-9.800000000e-03	2.321368625e-01	-4.348970646e-04	5.906470384e-12
-9.900000000e-03	2.321368641e-01	-4.325409145e-04	1.596175237e-11
-1.000000000e-02	2.321368657e-01	-4.301847645e-04	1.285693793e-11
-1.010000000e-02	2.321368673e-01	-4.278286145e-04	1.395731435e-11
-1.020000000e-02	2.321368687e-01	-4.254724645e-04	1.036666750e-11
-1.030000000e-02	2.321368701e-01	-4.231163144e-04	1.599123932e-11
-1.040000000e-02	2.321368714e-01	-4.207601644e-04	9.445821703e-12
-1.050000000e-02	2.321368727e-01	-4.184040144e-04	1.074472176e-11
-1.060000000e-02	2.321368738e-01	-4.160478644e-04	6.402742185e-12
-1.070000000e-02	2.321368749e-01	-4.136917144e-04	9.419423229e-12
-1.080000000e-02	2.321368760e-01	-4.113355645e-04	8.008876535e-12
-1.090000000e-02	2.321368769e-01	-4.089794146e-04	1.761884694e-11
-1.100000000e-02	2.321368778e-01	-4.066232647e-04	6.819902814e-12
-1.110000000e-02	2.321368786e-01	-4.042671148e-04	7.825916957e-12
-1.120000000e-02	2.321368794e-01	-4.019109650e-04	1.355891261e-11
-1.130000000e-02	2.321368800e-01	-3.995548153e-04	1.265407579e-11
-1.140000000e-02	2.321368806e-01	-3.971986655e-04	1.130157232e-11
-1.150000000e-02	2.321368811e-01	-3.948425158e-04	1.502554989e-11
-1.160000000e-02	2.321368816e-01	-3.924863662e-04	9.674147634e-12
-1.170000000e-02	2.321368820e-01	-3.901302167e-04	8.562922000e-12
-1.180000000e-02	2.321368823e-01	-3.877740671e-04	1.095668211e-11
-1.190000000e-02	2.321368825e-01	-3.854179177e-04	7.947174740e-12
-1.200000000e-02	2.321368827e-01	-3.830617683e-04	2.042334288e-11
-1.210000000e-02	2.321368828e-01	-3.807056190e-04	1.962829542e-11
-1.220000000e-02	2.321368828e-01	-3.783494698e-04	1.722746484e-11
-1.230000000e-02	2.321368828e-01	-3.759933206e-04	5.456024525e-12
-1.240000000e-02	2.321368826e-01	-3.736371715e-04	1.062802211e-11
-1.250000000e-02	2.321368824e-01	-3.712810226e-04	1.745417831e-11
-1.260000000e-02	2.321368822e-01	-3.689248736e-04	1.154915965e-11
-1.270000000e-02	2.321368818e-01	-3.665687248e-04	6.262464947e-12
-1.280000000e-02	2.321368814e-01	-3.642125761e-04	8.341004650e-11
-1.290000000e-02	2.321368810e-01	-3.618564275e-04	2.799974615e-11
-1.300000000e-02	2.321368804e-01	-3.595002790e-04	1.881826509e-11
-1.310000000e-02	2.321368798e-01	-3.571441306e-04	4.130942315e-11
-1.320000000e-02	2.321368791e-01	-3.547879823e-04	8.233195823e-12
-1.330000000e-02	2.321368783e-01	-3.524318341e-04	4.677306176e-11
-1.340000000e-02	2.321368775e-01	-3.500756861e-04	7.245743632e-12
-1.350000000e-02	2.321368766e-01	-3.477195381e-04	1.268020377e-11
-1.360000000e-02	2.321368756e-01	-3.453633903e-04	1.930065692e-11
-1.370000000e-02	2.321368745e-01	-3.430072427e-04	1.296626304e-11
-1.380000000e-02	2.321368734e-01	-3.406510951e-04	1.872812711e-11
-1.390000000e-02	2.321368722e-01	-3.382949477e-04	1.753212690e-11
-1.400000000e-02	2.321368710e-01	-3.359388004e-04	2.698550314e-11
-1.410000000e-02	2.321368696e-01	-3.335826533e-04	1.512708677e-11
-1.420000000e-02	2.321368682e-01	-3.312265063e-04	1.533252802e-11
-1.430000000e-02	2.321368667e-01	-3.288703595e-04	1.486433829e-11
-1.440000000e-02	2.321368652e-01	-3.265142128e-04	5.617276560e-11
-1.450000000e-02	2.321368635e-01	-3.241580663e-04	9.268116846e-12
-1.460000000e-02	2.321368618e-01	-3.218019199e-04	9.246569730e-12
-1.470000000e-02	2.321368601e-01	-3.194457737e-04	1.700193796e-11
-1.480000000e-02	2.321368582e-01	-3.170896277e-04	1.069020978e-11
-1.490000000e-02	2.321368563e-01	-3.147334818e-04	8.898606745e-12
-1.500000000e-02	2.321368543e-01	-3.123773362e-04	8.574731445e-12
-1.510000000e-02	2.321368523e-01	-3.100211907e-04	1.879834872e-11
-1.520000000e-02	2.321368501e-01	-3.076650454e-04	4.361920738e-12
-1.530000000e-02	2.321368479e-01	-3.053089002e-04	4.884674118e-12
-1.540000000e-02	2.321368457e-01	-3.029527553e-04	7.285672551e-12
-1.550000000e-02	2.321368433e-01	-3.005966106e-04	4.497662073e-11
-1.560000000e-02	2.321368409e-01	-2.982404660e-04	1.112277783e-11
-1.570000000e-02	2.321368384e-01	-2.958843217e-04	1.541157230e-11
-1.580000000e-02	2.321368359e-01	-2.935281775e-04	1.177881326e-11
-1.590000000e-02	2.321368332e-01	-2.911720336e-04	8.558323584e-12
-1.600000000e-02	2.321368305e-01	-2.888158899e-04	1.685073442e-11
-1.610000000e-02	2.321368278e-01	-2.864597464e-04	7.427828735e-12
-1.620000000e-02	2.321368249e-01	-2.841036031e-04	1.543984541e-11
-1.630000000e-02	2.321368220e-01	-2.817474601e-04	1.674352617e-11
-1.640000000e-02	2.321368190e-01	-2.793913172e-04	1.132696369e-11
-1.650000000e-02	2.321368160e-01	-2.770351747e-04	8.847576673e-12
-1.660000000e-02	2.321368128e-01	-2.746790323e-04	1.658901331e-11
-1.670000000e-02	2.321368096e-01	-2.723228902e-04	1.638294302e-11
-1.680000000e-02	2.321368063e-01	-2.699667483e-04	8.487487271e-12
-1.690000000e-02	2.321368030e-01	-2.676106066e-04	6.142688638e-12
-1.700000000e-02	2.321367996e-01	-2.652544653e-04	1.382027027e-11
-1.710000000e-02	2.321367961e-01	-2.628983241e-04	2.163225688e-11
-1.720000000e-02	2.321367925e-01	-2.605421832e-04	5.055371865e-11
-1.730000000e-02	2.321367889e-01	-2.581860426e-04	6.405728185e-12
-1.740000000e-02	2.321367852e-01	-2.558299023e-04	1.222689091e-11
-1.750000000e-02	2.321367814e-01	-2.534737622e-04	1.802524658e-11
-1.760000000e-02	2.321367776e-01	-2.511176224e-04	2.007870837e-11
-1.770000000e-02	2.321367736e-01	-2.487614828e-04	1.194006764e-11
-1.780000000e-02	2.321367696e-01	-2.464053435e-04	9.105843425e-12
-1.790000000e-02	2.321367656e-01	-2.440492046e-04	1.004305450e-11
-1.800000000e-02	2.321367614e-01	-2.416930659e-04	1.110626147e-10
-1.810000000e-02	2.321367572e-01	-2.393369275e-04	4.594083286e-10
-1.820000000e-02	2.321367529e-01	-2.369807893e-04	2.162086556e-11
-1.830000000e-02	2.321367486e-01	-2.346246515e-04	1.751799261e-11
-1.840000000e-02	2.321367442e-01	-2.322685140e-04	1.637213304e-11
-1.850000000e-02	2.321367397e-01	-2.299123768e-04	1.518393190e-11
-1.860000000e-02	2.321367351e-01	-2.275562399e-04	1.138529673e-11
-1.870000000e-02	2.321367305e-01	-2.252001033e-04	9.890084805e-12
-1.880000000e-02	2.321367258e-01	-2.228439670e-04	8.132378917e-12
-1.890000000e-02	2.321367210e-01	-2.204878310e-04	1.095939091e-11
-1.900000000e-02	2.321367161e-01	-2.181316954e-04	1.500430543e-11
-1.910000000e-02	2.321367112e-01	-2.157755600e-04	1.447405489e-11
-1.920000000e-02	2.321367062e-01	-2.134194250e-04	1.134060204e-11
-1.930000000e-02	2.321367011e-01	-2.110632904e-04	6.406956758e-11
-1.940000000e-02	2.321366960e-01	-2.087071561e-04	8.724676859e-12
-1.950000000e-02	2.321366908e-01	-2.063510221e-04	2.935943500e-11
-1.960000000e-02	2.321366855e-01	-2.039948884e-04	1.148367041e-11
-1.970000000e-02	2.321366801e-01	-2.016387551e-04	1.606388054e-11
-1.980000000e-02	2.321366747e-01	-1.992826222e-04	7.704706630e-12
-1.990000000e-02	2.321366692e-01	-1.969264896e-04	1.544156607e-11
-2.000000000e-02	2.321366637e-01	-1.945703574e-04	9.107264709e-12
-2.010000000e-02	2.321366580e-01	-1.922142255e-04	5.778995293e-12
-2.020000000e-02	2.321366523e-01	-1.898580940e-04	8.696650220e-12
-2.030000000e-02	2.321366465e-01	-1.875019629e-04	1.866135528e-11
-2.040000000e-02	2.321366407e-01	-1.851458321e-04	1.001857930e-11
-2.050000000e-02	2.321366347e-01	-1.827897017e-04	2.874826326e-11
-2.060000000e-02	2.321366287e-01	-1.804335717e-04	1.404428692e-11
-2.070000000e-02	2.321366227e-01	-1.780774421e-04	8.483395496e-12
-2.080000000e-02	2.321366165e-01	-1.757213128e-04	3.171219301e-11
-2.090000000e-02	2.321366103e-01	-1.733651840e-04	2.270753645e-11
-2.100000000e-02	2.321366040e-01	-1.710090555e-04	1.222692012e-11
-2.110000000e-02	2.321365976e-01	-1.686529275e-04	3.650816295e-11
-2.120000000e-02	2.321365912e-01	-1.662967998e-04	2.126221332e-11
-2.130000000e-02	2.321365847e-01	-1.639406726e-04	9.963807022e-12
-2.140000000e-02	2.321365781e-01	-1.615845458e-04	1.762934009e-11
-2.150000000e-02	2.321365715e-01	-1.592284193e-04	5.826703539e-11
-2.160000000e-02	2.321365648e-01	-1.568722933e-04	1.901439509e-11
-2.170000000e-02	2.321365580e-01	-1.545161677e-04	4.946503008e-12
-2.180000000e-02	2.321365511e-01	-1.521600426e-04	7.725737796e-12
-2.190000000e-02	2.321365442e-01	-1.498039178e-04	8.868190894e-12
-2.200000000e-02	2.321365372e-01	-1.474477935e-04	2.349176087e-11
-2.210000000e-02	2.321365301e-01	-1.450916696e-04	1.476427540e-11
-2.220000000e-02	2.321365230e-01	-1.427355462e-04	1.233760697e-11
-2.230000000e-02	2.321365157e-01	-1.403794232e-04	7.808691064e-12
-2.240000000e-02	2.321365084e-01	-1.380233007e-04	9.533907658e-12
-2.250000000e-02	2.321365011e-01	-1.356671786e-04	6.372894162e-12
-2.260000000e-02	2.321364937e-01	-1.333110569e-04	8.501131595e-12
-2.270000000e-02	2.321364861e-01	-1.309549357e-04	7.499173995e-12
-2.280000000e-02	2.321364786e-01	-1.285988150e-04	1.782907812e-11
-2.290000000e-02	2.321364709e-01	-1.262426947e-04	1.983182776e-11
-2.300000000e-02	2.321364632e-01	-1.238865749e-04	1.515516094e-11
-2.310000000e-02	2.321364554e-01	-1.215304556e-04	1.149554387e-11
-2.320000000e-02	2.321364475e-01	-1.191743367e-04	2.274475185e-11
-2.330000000e-02	2.321364396e-01	-1.168182183e-04	1.127809285e-11
-2.340000000e-02	2.321364316e-01	-1.144621004e-04	1.220046688e-11
-2.350000000e-02	2.321364235e-01	-1.121059830e-04	1.555706862e-11
-2.360000000e-02	2.321364154e-01	-1.097498661e-04	1.048233987e-11
-2.370000000e-02	2.321364071e-01	-1.073937497e-04	1.205642545e-11
-2.380000000e-02	2.321363988e-01	-1.050376337e-04	1.192796109e-11
-2.390000000e-02	2.321363905e-01	-1.026815183e-04	8.038954932e-12
-2.400000000e-02	2.321363820e-01	-1.003254034e-04	1.540841733e-11
-2.410000000e-02	2.321363735e-01	-9.796928895e-05	1.121648833e-11
-2.420000000e-02	2.321363649e-01	-9.561317504e-05	1.846782715e-11
-2.430000000e-02	2.321363563e-01	-9.325706164e-05	1.263794390e-11
-2.440000000e-02	2.321363476e-01	-9.090094875e-05	1.154789572e-10
-2.450000000e-02	2.321363388e-01	-8.854483639e-05	1.084834976e-11
-2.460000000e-02	2.321363299e-01	-8.618872456e-05	8.342454756e-12
-2.470000000e-02	2.321363210e-01	-8.383261325e-05	3.067141230e-11
-2.480000000e-02	2.321363119e-01	-8.147650248e-05	1.259448960e-11
-2.490000000e-02	2.321363029e-01	-7.912039224e-05	8.586874064e-12
-2.500000000e-02	2.321362937e-01	-7.676428254e-05	1.711379226e-11
-2.510000000e-02	2.321362845e-01	-7.440817339e-05	7.990210339e-12
-2.520000000e-02	2.321362752e-01	-7.205206478e-05	1.167494018e-11
-2.530000000e-02	2.321362658e-01	-6.969595672e-05	1.481847725e-11
-2.540000000e-02	2.321362564e-01	-6.733984922e-05	1.152011951e-11
-2.550000000e-02	2.321362469e-01	-6.498374227e-05	2.339101150e-11
-2.560000000e-02	2.321362373e-01	-6.262763589e-05	1.182886191e-11
-2.570000000e-02	2.321362276e-01	-6.027153007e-05	1.766255335e-11
-2.580000000e-02	2.321362179e-01	-5.791542482e-05	6.354227678e-12
-2.590000000e-02	2.321362081e-01	-5.555932014e-05	1.953472484e-11
-2.600000000e-02	2.321361982e-01	-5.320321604e-05	9.966529670e-12
-2.610000000e-02	2.321361883e-01	-5.084711252e-05	1.707912302e-11
-2.620000000e-02	2.321361782e-01	-4.849100958e-05	3.029176365e-11
-2.630000000e-02	2.321361682e-01	-4.613490722e-05	3.183180097e-11
-2.640000000e-02	2.321361580e-01	-4.377880546e-05	1.130823302e-11
-2.650000000e-02	2.321361478e-01	-4.142270430e-05	3.385292202e-11
-2.660000000e-02	2.321361375e-01	-3.906660373e-05	1.858523716e-11
-2.670000000e-02	2.321361271e-01	-3.671050376e-05	1.955267548e-11
-2.680000000e-02	2.321361166e-01	-3.435440440e-05	1.489905610e-11
-2.690000000e-02	2.321361061e-01	-3.199830565e-05	1.449824035e-11
-2.700000000e-02	2.321360955e-01	-2.964220751e-05	9.521468940e-12
-2.710000000e-02	2.321360849e-01	-2.728610998e-05	6.131123694e-12
-2.720000000e-02	2.321360741e-01	-2.493001309e-05	1.021391070e-10
-2.730000000e-02	2.321360633e-01	-2.257391679e-05	1.957282220e-11
-2.740000000e-02	2.321360525e-01	-2.021782114e-05	2.371526155e-11
-2.750000000e-02	2.321360415e-01	-1.786172612e-05	7.221752083e-12
-2.760000000e-02	2.321360305e-01	-1.550563172e-05	8.006649034e-12
-2.770000000e-02	2.321360194e-01	-1.314953797e-05	2.235463136e-11
-2.780000000e-02	2.321360082e-01	-1.079344486e-05	1.648629019e-11
-2.790000000e-02	2.321359970e-01	-8.437352395e-06	1.277059905e-11
-2.800000000e-02	2.321359857e-01	-6.081260579e-06	7.046276964e-12
-2.810000000e-02	2.321359743e-01	-3.725169411e-06	4.505593016e-11
-2.820000000e-02	2.321359629e-01	-1.369078910e-06	4.764988576e-11
-2.830000000e-02	2.321359513e-01	9.870109436e-07	1.784082465e-11
-2.840000000e-02	2.321359397e-01	3.343100130e-06	1.530067308e-11
-2.850000000e-02	2.321359281e-01	5.699188648e-06	1.177398930e-11
-2.860000000e-02	2.321359163e-01	8.055276495e-06	6.038004488e-12
-2.870000000e-02	2.321359045e-01	1.041136367e-05	1.340629733e-11
-2.880000000e-02	2.321358927e-01	1.276745016e-05	9.686040312e-12
-2.890000000e-02	2.321358807e-01	1.512353598e-05	1.502234874e-11
-2.900000000e-02	2.321358687e-01	1.747962110e-05	5.074264265e-11
-2.910000000e-02	2.321358566e-01	1.983570555e-05	1.175530235e-11
-2.920000000e-02	2.321358444e-01	2.219178930e-05	2.782074437e-11
-2.930000000e-02	2.321358322e-01	2.454787235e-05	1.030106561e-11
-2.940000000e-02	2.321358199e-01	2.690395470e-05	1.724563860e-11
-2.950000000e-02	2.321358075e-01	2.926003635e-05	1.833297171e-11
-2.960000000e-02	2.321357950e-01	3.161611729e-05	1.510878049e-11
-2.970000000e-02	2.321357825e-01	3.397219753e-05	1.667827019e-11
-2.980000000e-02	2.321357699e-01	3.632827705e-05	2.202491840e-11
-2.990000000e-02	2.321357572e-01	3.868435584e-05	1.000255812e-11
-3.000000000e-02	2.321357445e-01	4.104043392e-05	6.098403450e-12
