# Im(epsi1)     Re(omega/c)      Im(omega/c)      Eq(det).Opt det CON kz, R=0.5 \mum, mu_c=0.3, Re(epsi1)=3.90solve_det_conkz_vs_kz.py
0.000000000e+00	2.321607627e-01	-6.658896105e-04	1.072646482e-11
-1.000000000e-04	2.321607714e-01	-6.635333027e-04	1.128551971e-11
-2.000000000e-04	2.321607800e-01	-6.611769946e-04	8.315498499e-11
-3.000000000e-04	2.321607886e-01	-6.588206861e-04	7.590350405e-12
-4.000000000e-04	2.321607971e-01	-6.564643773e-04	8.295458078e-12
-5.000000000e-04	2.321608055e-01	-6.541080681e-04	1.447947616e-11
-6.000000000e-04	2.321608138e-01	-6.517517585e-04	1.799240279e-11
-7.000000000e-04	2.321608221e-01	-6.493954486e-04	1.418729513e-11
-8.000000000e-04	2.321608303e-01	-6.470391384e-04	8.327957440e-12
-9.000000000e-04	2.321608384e-01	-6.446828278e-04	1.325194484e-11
-1.000000000e-03	2.321608465e-01	-6.423265170e-04	2.016493037e-11
-1.100000000e-03	2.321608545e-01	-6.399702057e-04	1.153530630e-11
-1.200000000e-03	2.321608624e-01	-6.376138942e-04	1.306830659e-11
-1.300000000e-03	2.321608702e-01	-6.352575823e-04	1.432912718e-11
-1.400000000e-03	2.321608780e-01	-6.329012701e-04	1.160093847e-11
-1.500000000e-03	2.321608857e-01	-6.305449576e-04	2.087678696e-11
-1.600000000e-03	2.321608933e-01	-6.281886448e-04	1.589852884e-11
-1.700000000e-03	2.321609009e-01	-6.258323317e-04	1.050573192e-11
-1.800000000e-03	2.321609084e-01	-6.234760182e-04	3.036820815e-11
-1.900000000e-03	2.321609158e-01	-6.211197045e-04	9.630155130e-12
-2.000000000e-03	2.321609231e-01	-6.187633905e-04	2.933622505e-11
-2.100000000e-03	2.321609304e-01	-6.164070762e-04	7.408145278e-12
-2.200000000e-03	2.321609376e-01	-6.140507616e-04	1.212073994e-11
-2.300000000e-03	2.321609447e-01	-6.116944467e-04	8.078749137e-12
-2.400000000e-03	2.321609517e-01	-6.093381315e-04	1.091848503e-11
-2.500000000e-03	2.321609587e-01	-6.069818161e-04	6.851358753e-12
-2.600000000e-03	2.321609656e-01	-6.046255003e-04	1.842668001e-11
-2.700000000e-03	2.321609725e-01	-6.022691843e-04	2.101027192e-11
-2.800000000e-03	2.321609792e-01	-5.999128681e-04	7.375911912e-12
-2.900000000e-03	2.321609859e-01	-5.975565515e-04	1.710036697e-11
-3.000000000e-03	2.321609925e-01	-5.952002348e-04	1.640066774e-11
-3.100000000e-03	2.321609991e-01	-5.928439177e-04	1.362418863e-11
-3.200000000e-03	2.321610056e-01	-5.904876004e-04	1.436671941e-11
-3.300000000e-03	2.321610120e-01	-5.881312829e-04	9.139988822e-12
-3.400000000e-03	2.321610183e-01	-5.857749651e-04	1.888967812e-11
-3.500000000e-03	2.321610246e-01	-5.834186470e-04	3.084427616e-10
-3.600000000e-03	2.321610308e-01	-5.810623288e-04	1.474927317e-11
-3.700000000e-03	2.321610369e-01	-5.787060103e-04	1.048579531e-11
-3.800000000e-03	2.321610429e-01	-5.763496915e-04	1.736953980e-11
-3.900000000e-03	2.321610489e-01	-5.739933726e-04	8.617486045e-12
-4.000000000e-03	2.321610548e-01	-5.716370534e-04	1.084368040e-11
-4.100000000e-03	2.321610606e-01	-5.692807340e-04	6.623684564e-12
-4.200000000e-03	2.321610664e-01	-5.669244143e-04	5.507244976e-11
-4.300000000e-03	2.321610721e-01	-5.645680945e-04	1.008469878e-11
-4.400000000e-03	2.321610777e-01	-5.622117744e-04	1.270226242e-11
-4.500000000e-03	2.321610833e-01	-5.598554542e-04	1.583220758e-11
-4.600000000e-03	2.321610887e-01	-5.574991337e-04	8.485867341e-12
-4.700000000e-03	2.321610941e-01	-5.551428131e-04	1.565319141e-11
-4.800000000e-03	2.321610995e-01	-5.527864922e-04	2.121189389e-11
-4.900000000e-03	2.321611047e-01	-5.504301712e-04	1.019910868e-11
-5.000000000e-03	2.321611099e-01	-5.480738500e-04	1.727299476e-11
-5.100000000e-03	2.321611150e-01	-5.457175285e-04	8.961208584e-12
-5.200000000e-03	2.321611201e-01	-5.433612070e-04	2.453067254e-11
-5.300000000e-03	2.321611250e-01	-5.410048852e-04	1.508025209e-11
-5.400000000e-03	2.321611299e-01	-5.386485632e-04	1.922836969e-11
-5.500000000e-03	2.321611348e-01	-5.362922411e-04	9.959631743e-12
-5.600000000e-03	2.321611395e-01	-5.339359189e-04	1.135977426e-11
-5.700000000e-03	2.321611442e-01	-5.315795964e-04	1.321771052e-11
-5.800000000e-03	2.321611488e-01	-5.292232738e-04	2.294989717e-11
-5.900000000e-03	2.321611534e-01	-5.268669511e-04	6.913633772e-12
-6.000000000e-03	2.321611578e-01	-5.245106282e-04	1.149350116e-11
-6.100000000e-03	2.321611622e-01	-5.221543051e-04	1.120266033e-11
-6.200000000e-03	2.321611666e-01	-5.197979819e-04	3.634774726e-11
-6.300000000e-03	2.321611708e-01	-5.174416586e-04	3.128069872e-11
-6.400000000e-03	2.321611750e-01	-5.150853351e-04	2.358051260e-11
-6.500000000e-03	2.321611791e-01	-5.127290115e-04	2.941196813e-11
-6.600000000e-03	2.321611832e-01	-5.103726878e-04	1.296183131e-11
-6.700000000e-03	2.321611871e-01	-5.080163639e-04	5.749049274e-12
-6.800000000e-03	2.321611910e-01	-5.056600400e-04	1.368262852e-11
-6.900000000e-03	2.321611948e-01	-5.033037159e-04	1.411704570e-11
-7.000000000e-03	2.321611986e-01	-5.009473917e-04	1.552480371e-11
-7.100000000e-03	2.321612023e-01	-4.985910673e-04	8.306555008e-12
-7.200000000e-03	2.321612059e-01	-4.962347429e-04	1.748948087e-11
-7.300000000e-03	2.321612094e-01	-4.938784184e-04	1.165843179e-11
-7.400000000e-03	2.321612129e-01	-4.915220937e-04	4.715707481e-11
-7.500000000e-03	2.321612163e-01	-4.891657690e-04	1.080283437e-11
-7.600000000e-03	2.321612196e-01	-4.868094442e-04	6.358815678e-12
-7.700000000e-03	2.321612229e-01	-4.844531193e-04	9.457093015e-12
-7.800000000e-03	2.321612260e-01	-4.820967943e-04	9.613012303e-12
-7.900000000e-03	2.321612291e-01	-4.797404692e-04	1.882867424e-11
-8.000000000e-03	2.321612322e-01	-4.773841440e-04	2.242990033e-11
-8.100000000e-03	2.321612351e-01	-4.750278188e-04	1.321381547e-11
-8.200000000e-03	2.321612380e-01	-4.726714935e-04	1.189437022e-11
-8.300000000e-03	2.321612409e-01	-4.703151681e-04	2.343475145e-11
-8.400000000e-03	2.321612436e-01	-4.679588427e-04	7.676693924e-12
-8.500000000e-03	2.321612463e-01	-4.656025172e-04	8.515296429e-12
-8.600000000e-03	2.321612489e-01	-4.632461916e-04	7.514857656e-12
-8.700000000e-03	2.321612514e-01	-4.608898660e-04	9.629392870e-12
-8.800000000e-03	2.321612539e-01	-4.585335404e-04	9.185401622e-12
-8.900000000e-03	2.321612563e-01	-4.561772147e-04	8.206754787e-12
-9.000000000e-03	2.321612586e-01	-4.538208889e-04	1.334432042e-11
-9.100000000e-03	2.321612608e-01	-4.514645631e-04	1.408172731e-11
-9.200000000e-03	2.321612630e-01	-4.491082373e-04	7.506414207e-12
-9.300000000e-03	2.321612651e-01	-4.467519115e-04	2.352720008e-11
-9.400000000e-03	2.321612672e-01	-4.443955856e-04	1.453708502e-11
-9.500000000e-03	2.321612691e-01	-4.420392597e-04	6.233957976e-12
-9.600000000e-03	2.321612710e-01	-4.396829338e-04	3.617457954e-11
-9.700000000e-03	2.321612728e-01	-4.373266078e-04	1.974811359e-11
-9.800000000e-03	2.321612746e-01	-4.349702819e-04	4.818464397e-11
-9.900000000e-03	2.321612762e-01	-4.326139559e-04	7.986209130e-12
-1.000000000e-02	2.321612778e-01	-4.302576300e-04	7.971608743e-12
-1.010000000e-02	2.321612794e-01	-4.279013040e-04	1.121085434e-11
-1.020000000e-02	2.321612808e-01	-4.255449780e-04	3.329522900e-11
-1.030000000e-02	2.321612822e-01	-4.231886521e-04	2.893671843e-11
-1.040000000e-02	2.321612835e-01	-4.208323261e-04	1.858545065e-11
-1.050000000e-02	2.321612848e-01	-4.184760002e-04	1.031912069e-11
-1.060000000e-02	2.321612859e-01	-4.161196743e-04	7.068352290e-12
-1.070000000e-02	2.321612870e-01	-4.137633484e-04	1.956300850e-11
-1.080000000e-02	2.321612881e-01	-4.114070225e-04	1.398934158e-11
-1.090000000e-02	2.321612890e-01	-4.090506967e-04	1.220819536e-11
-1.100000000e-02	2.321612899e-01	-4.066943708e-04	9.081259257e-12
-1.110000000e-02	2.321612907e-01	-4.043380450e-04	2.799575135e-11
-1.120000000e-02	2.321612915e-01	-4.019817193e-04	1.103558658e-11
-1.130000000e-02	2.321612921e-01	-3.996253936e-04	5.080553397e-11
-1.140000000e-02	2.321612927e-01	-3.972690679e-04	1.863284575e-11
-1.150000000e-02	2.321612933e-01	-3.949127423e-04	8.329378417e-12
-1.160000000e-02	2.321612937e-01	-3.925564168e-04	7.471385831e-12
-1.170000000e-02	2.321612941e-01	-3.902000913e-04	1.453155750e-11
-1.180000000e-02	2.321612944e-01	-3.878437658e-04	6.326977675e-11
-1.190000000e-02	2.321612946e-01	-3.854874404e-04	1.183159646e-11
-1.200000000e-02	2.321612948e-01	-3.831311151e-04	2.188333405e-11
-1.210000000e-02	2.321612949e-01	-3.807747899e-04	1.126652989e-11
-1.220000000e-02	2.321612949e-01	-3.784184647e-04	2.902906348e-11
-1.230000000e-02	2.321612949e-01	-3.760621396e-04	8.373759756e-12
-1.240000000e-02	2.321612948e-01	-3.737058146e-04	7.465709174e-12
-1.250000000e-02	2.321612946e-01	-3.713494897e-04	2.202296988e-11
-1.260000000e-02	2.321612943e-01	-3.689931649e-04	2.277364382e-11
-1.270000000e-02	2.321612940e-01	-3.666368401e-04	3.041585165e-11
-1.280000000e-02	2.321612936e-01	-3.642805155e-04	5.273077402e-12
-1.290000000e-02	2.321612931e-01	-3.619241909e-04	8.992664560e-12
-1.300000000e-02	2.321612925e-01	-3.595678665e-04	1.330256642e-11
-1.310000000e-02	2.321612919e-01	-3.572115422e-04	1.424840627e-11
-1.320000000e-02	2.321612912e-01	-3.548552179e-04	1.809035015e-11
-1.330000000e-02	2.321612905e-01	-3.524988938e-04	1.074275687e-11
-1.340000000e-02	2.321612896e-01	-3.501425698e-04	6.745970686e-10
-1.350000000e-02	2.321612887e-01	-3.477862460e-04	8.553985798e-12
-1.360000000e-02	2.321612877e-01	-3.454299222e-04	3.155645923e-11
-1.370000000e-02	2.321612867e-01	-3.430735986e-04	8.861375177e-11
-1.380000000e-02	2.321612856e-01	-3.407172751e-04	9.871403133e-12
-1.390000000e-02	2.321612844e-01	-3.383609518e-04	7.010764677e-12
-1.400000000e-02	2.321612831e-01	-3.360046286e-04	2.199250360e-11
-1.410000000e-02	2.321612818e-01	-3.336483055e-04	3.971221429e-11
-1.420000000e-02	2.321612804e-01	-3.312919826e-04	1.606901831e-11
-1.430000000e-02	2.321612789e-01	-3.289356598e-04	2.961852897e-11
-1.440000000e-02	2.321612773e-01	-3.265793372e-04	7.743090568e-12
-1.450000000e-02	2.321612757e-01	-3.242230147e-04	3.170453482e-11
-1.460000000e-02	2.321612740e-01	-3.218666925e-04	8.587514174e-12
-1.470000000e-02	2.321612722e-01	-3.195103703e-04	5.588601272e-12
-1.480000000e-02	2.321612704e-01	-3.171540484e-04	8.786774738e-12
-1.490000000e-02	2.321612685e-01	-3.147977266e-04	1.914033341e-11
-1.500000000e-02	2.321612665e-01	-3.124414050e-04	1.364197280e-11
-1.510000000e-02	2.321612644e-01	-3.100850835e-04	1.319313654e-11
-1.520000000e-02	2.321612623e-01	-3.077287623e-04	2.370823411e-11
-1.530000000e-02	2.321612601e-01	-3.053724412e-04	4.189546723e-11
-1.540000000e-02	2.321612578e-01	-3.030161204e-04	6.792123919e-12
-1.550000000e-02	2.321612555e-01	-3.006597997e-04	2.571927450e-11
-1.560000000e-02	2.321612531e-01	-2.983034792e-04	5.740232386e-11
-1.570000000e-02	2.321612506e-01	-2.959471589e-04	3.210943263e-11
-1.580000000e-02	2.321612480e-01	-2.935908389e-04	3.738405665e-11
-1.590000000e-02	2.321612454e-01	-2.912345190e-04	3.734616852e-12
-1.600000000e-02	2.321612427e-01	-2.888781994e-04	1.376749982e-11
-1.610000000e-02	2.321612399e-01	-2.865218799e-04	2.341982930e-11
-1.620000000e-02	2.321612371e-01	-2.841655607e-04	2.109663106e-11
-1.630000000e-02	2.321612342e-01	-2.818092417e-04	1.077054149e-11
-1.640000000e-02	2.321612312e-01	-2.794529230e-04	9.971359823e-12
-1.650000000e-02	2.321612281e-01	-2.770966044e-04	1.151936359e-11
-1.660000000e-02	2.321612250e-01	-2.747402861e-04	5.165350087e-11
-1.670000000e-02	2.321612218e-01	-2.723839681e-04	1.517066999e-11
-1.680000000e-02	2.321612185e-01	-2.700276503e-04	1.460608107e-11
-1.690000000e-02	2.321612152e-01	-2.676713327e-04	6.745231564e-12
-1.700000000e-02	2.321612117e-01	-2.653150154e-04	5.011160685e-12
-1.710000000e-02	2.321612083e-01	-2.629586983e-04	6.687560831e-11
-1.720000000e-02	2.321612047e-01	-2.606023815e-04	2.502438906e-11
-1.730000000e-02	2.321612011e-01	-2.582460649e-04	9.700511070e-12
-1.740000000e-02	2.321611974e-01	-2.558897486e-04	2.796926987e-11
-1.750000000e-02	2.321611936e-01	-2.535334326e-04	1.081001673e-11
-1.760000000e-02	2.321611897e-01	-2.511771168e-04	4.608392202e-12
-1.770000000e-02	2.321611858e-01	-2.488208014e-04	1.606147406e-11
-1.780000000e-02	2.321611818e-01	-2.464644862e-04	2.751361390e-11
-1.790000000e-02	2.321611778e-01	-2.441081712e-04	1.388610046e-11
-1.800000000e-02	2.321611736e-01	-2.417518566e-04	1.206515593e-11
-1.810000000e-02	2.321611694e-01	-2.393955423e-04	6.359835191e-11
-1.820000000e-02	2.321611651e-01	-2.370392282e-04	1.278095025e-11
-1.830000000e-02	2.321611608e-01	-2.346829144e-04	1.110379581e-11
-1.840000000e-02	2.321611564e-01	-2.323266010e-04	7.099778252e-12
-1.850000000e-02	2.321611519e-01	-2.299702878e-04	2.570905122e-11
-1.860000000e-02	2.321611473e-01	-2.276139750e-04	3.161393339e-11
-1.870000000e-02	2.321611427e-01	-2.252576624e-04	2.935935253e-11
-1.880000000e-02	2.321611380e-01	-2.229013502e-04	8.429518948e-12
-1.890000000e-02	2.321611332e-01	-2.205450383e-04	1.511306771e-11
-1.900000000e-02	2.321611283e-01	-2.181887267e-04	1.595235900e-11
-1.910000000e-02	2.321611234e-01	-2.158324155e-04	1.730799727e-11
-1.920000000e-02	2.321611184e-01	-2.134761045e-04	1.174097924e-11
-1.930000000e-02	2.321611133e-01	-2.111197939e-04	6.362748340e-12
-1.940000000e-02	2.321611082e-01	-2.087634837e-04	9.592365059e-12
-1.950000000e-02	2.321611030e-01	-2.064071738e-04	1.628114464e-11
-1.960000000e-02	2.321610977e-01	-2.040508642e-04	3.258168695e-11
-1.970000000e-02	2.321610924e-01	-2.016945550e-04	1.410587685e-10
-1.980000000e-02	2.321610869e-01	-1.993382461e-04	3.671075574e-11
-1.990000000e-02	2.321610814e-01	-1.969819375e-04	2.158620520e-11
-2.000000000e-02	2.321610759e-01	-1.946256294e-04	4.771125110e-12
-2.010000000e-02	2.321610702e-01	-1.922693216e-04	8.990366608e-12
-2.020000000e-02	2.321610645e-01	-1.899130141e-04	5.092766527e-11
-2.030000000e-02	2.321610587e-01	-1.875567071e-04	7.936775418e-12
-2.040000000e-02	2.321610529e-01	-1.852004004e-04	1.458483442e-11
-2.050000000e-02	2.321610469e-01	-1.828440940e-04	1.079997975e-11
-2.060000000e-02	2.321610409e-01	-1.804877881e-04	9.167069890e-12
-2.070000000e-02	2.321610349e-01	-1.781314825e-04	2.232717529e-11
-2.080000000e-02	2.321610287e-01	-1.757751774e-04	8.234214287e-12
-2.090000000e-02	2.321610225e-01	-1.734188726e-04	1.116847920e-11
-2.100000000e-02	2.321610162e-01	-1.710625682e-04	8.057840055e-12
-2.110000000e-02	2.321610099e-01	-1.687062642e-04	1.272695499e-11
-2.120000000e-02	2.321610034e-01	-1.663499606e-04	8.329177828e-12
-2.130000000e-02	2.321609969e-01	-1.639936574e-04	9.219273961e-12
-2.140000000e-02	2.321609904e-01	-1.616373546e-04	1.288679491e-11
-2.150000000e-02	2.321609837e-01	-1.592810523e-04	1.491699012e-11
-2.160000000e-02	2.321609770e-01	-1.569247503e-04	1.100251636e-11
-2.170000000e-02	2.321609702e-01	-1.545684488e-04	5.930114787e-12
-2.180000000e-02	2.321609634e-01	-1.522121477e-04	1.414037161e-11
-2.190000000e-02	2.321609564e-01	-1.498558470e-04	6.374907667e-12
-2.200000000e-02	2.321609494e-01	-1.474995468e-04	1.866662376e-11
-2.210000000e-02	2.321609423e-01	-1.451432470e-04	5.163725694e-11
-2.220000000e-02	2.321609352e-01	-1.427869476e-04	8.253966654e-12
-2.230000000e-02	2.321609280e-01	-1.404306487e-04	7.925835967e-12
-2.240000000e-02	2.321609207e-01	-1.380743502e-04	4.136904175e-11
-2.250000000e-02	2.321609133e-01	-1.357180521e-04	5.347227667e-12
-2.260000000e-02	2.321609059e-01	-1.333617545e-04	7.640367209e-12
-2.270000000e-02	2.321608984e-01	-1.310054574e-04	7.032658541e-12
-2.280000000e-02	2.321608908e-01	-1.286491607e-04	1.637379006e-11
-2.290000000e-02	2.321608832e-01	-1.262928645e-04	3.888204718e-11
-2.300000000e-02	2.321608754e-01	-1.239365688e-04	2.627973008e-11
-2.310000000e-02	2.321608676e-01	-1.215802735e-04	1.469688007e-11
-2.320000000e-02	2.321608598e-01	-1.192239787e-04	3.394771000e-11
-2.330000000e-02	2.321608518e-01	-1.168676844e-04	1.278069240e-11
-2.340000000e-02	2.321608438e-01	-1.145113906e-04	1.599950406e-11
-2.350000000e-02	2.321608358e-01	-1.121550972e-04	1.544077133e-11
-2.360000000e-02	2.321608276e-01	-1.097988044e-04	8.495958225e-11
-2.370000000e-02	2.321608194e-01	-1.074425120e-04	8.384747941e-12
-2.380000000e-02	2.321608111e-01	-1.050862201e-04	2.540379621e-11
-2.390000000e-02	2.321608027e-01	-1.027299287e-04	1.090815723e-11
-2.400000000e-02	2.321607943e-01	-1.003736379e-04	1.148517103e-11
-2.410000000e-02	2.321607858e-01	-9.801734750e-05	6.302276409e-12
-2.420000000e-02	2.321607772e-01	-9.566105765e-05	8.092456368e-12
-2.430000000e-02	2.321607685e-01	-9.330476831e-05	9.066024058e-12
-2.440000000e-02	2.321607598e-01	-9.094847949e-05	9.576121687e-12
-2.450000000e-02	2.321607510e-01	-8.859219119e-05	1.775488024e-11
-2.460000000e-02	2.321607422e-01	-8.623590341e-05	1.180252998e-11
-2.470000000e-02	2.321607332e-01	-8.387961617e-05	1.261047422e-11
-2.480000000e-02	2.321607242e-01	-8.152332945e-05	1.465955418e-11
-2.490000000e-02	2.321607151e-01	-7.916704327e-05	3.040657919e-11
-2.500000000e-02	2.321607060e-01	-7.681075764e-05	1.525687572e-11
-2.510000000e-02	2.321606967e-01	-7.445447254e-05	5.645306155e-11
-2.520000000e-02	2.321606874e-01	-7.209818799e-05	1.981548219e-11
-2.530000000e-02	2.321606781e-01	-6.974190400e-05	1.480821552e-11
-2.540000000e-02	2.321606686e-01	-6.738562055e-05	8.409848077e-12
-2.550000000e-02	2.321606591e-01	-6.502933767e-05	1.153513100e-11
-2.560000000e-02	2.321606495e-01	-6.267305534e-05	4.781764947e-11
-2.570000000e-02	2.321606399e-01	-6.031677359e-05	3.560612885e-11
-2.580000000e-02	2.321606301e-01	-5.796049239e-05	1.709290439e-11
-2.590000000e-02	2.321606203e-01	-5.560421178e-05	1.018016170e-10
-2.600000000e-02	2.321606105e-01	-5.324793174e-05	2.576897987e-11
-2.610000000e-02	2.321606005e-01	-5.089165227e-05	3.093197809e-11
-2.620000000e-02	2.321605905e-01	-4.853537340e-05	5.036851604e-12
-2.630000000e-02	2.321605804e-01	-4.617909510e-05	7.232570278e-12
-2.640000000e-02	2.321605703e-01	-4.382281740e-05	1.100633211e-11
-2.650000000e-02	2.321605600e-01	-4.146654030e-05	1.158610371e-11
-2.660000000e-02	2.321605497e-01	-3.911026379e-05	1.033578809e-11
-2.670000000e-02	2.321605394e-01	-3.675398788e-05	1.707931416e-11
-2.680000000e-02	2.321605289e-01	-3.439771258e-05	3.411078362e-12
-2.690000000e-02	2.321605184e-01	-3.204143788e-05	5.872138070e-12
-2.700000000e-02	2.321605078e-01	-2.968516380e-05	1.223235807e-11
-2.710000000e-02	2.321604971e-01	-2.732889034e-05	6.352208316e-12
-2.720000000e-02	2.321604864e-01	-2.497261749e-05	5.946449623e-11
-2.730000000e-02	2.321604756e-01	-2.261634527e-05	1.000305631e-11
-2.740000000e-02	2.321604647e-01	-2.026007367e-05	2.405049264e-11
-2.750000000e-02	2.321604538e-01	-1.790380271e-05	1.616477046e-11
-2.760000000e-02	2.321604428e-01	-1.554753238e-05	1.464575955e-11
-2.770000000e-02	2.321604317e-01	-1.319126268e-05	1.930795649e-11
-2.780000000e-02	2.321604205e-01	-1.083499363e-05	1.839081783e-11
-2.790000000e-02	2.321604093e-01	-8.478725225e-06	9.979778397e-12
-2.800000000e-02	2.321603980e-01	-6.122457467e-06	1.298825413e-11
-2.810000000e-02	2.321603866e-01	-3.766190362e-06	1.564145255e-11
-2.820000000e-02	2.321603751e-01	-1.409923912e-06	3.492226825e-12
-2.830000000e-02	2.321603636e-01	9.463418775e-07	8.769710969e-12
-2.840000000e-02	2.321603520e-01	3.302607004e-06	8.270564650e-12
-2.850000000e-02	2.321603404e-01	5.658871467e-06	9.455214862e-11
-2.860000000e-02	2.321603286e-01	8.015135254e-06	1.459994271e-11
-2.870000000e-02	2.321603168e-01	1.037139837e-05	1.286401569e-11
-2.880000000e-02	2.321603049e-01	1.272766081e-05	4.120087967e-11
-2.890000000e-02	2.321602930e-01	1.508392256e-05	9.253521824e-12
-2.900000000e-02	2.321602810e-01	1.744018363e-05	4.959281865e-12
-2.910000000e-02	2.321602689e-01	1.979644402e-05	1.743086870e-10
-2.920000000e-02	2.321602567e-01	2.215270370e-05	1.185869132e-11
-2.930000000e-02	2.321602445e-01	2.450896270e-05	2.517836729e-11
-2.940000000e-02	2.321602322e-01	2.686522099e-05	8.446306414e-12
-2.950000000e-02	2.321602198e-01	2.922147858e-05	6.130166648e-12
-2.960000000e-02	2.321602073e-01	3.157773547e-05	2.038811918e-11
-2.970000000e-02	2.321601948e-01	3.393399164e-05	2.389734902e-11
-2.980000000e-02	2.321601822e-01	3.629024710e-05	9.521936527e-12
-2.990000000e-02	2.321601695e-01	3.864650184e-05	7.681416196e-12
-3.000000000e-02	2.321601568e-01	4.100275586e-05	9.838166470e-12
