# Im(epsi1)     Re(omega/c)      Im(omega/c)      Eq(det).Opt det CON kz, R=0.5 \mum, mu_c=0.3, Re(epsi1)=3.90solve_det_conkz_vs_kz.py
0.000000000e+00	2.321567152e-01	-6.658746137e-04	7.121469941e-12
-1.000000000e-04	2.321567239e-01	-6.635183351e-04	8.798032046e-12
-2.000000000e-04	2.321567325e-01	-6.611620561e-04	1.012172443e-11
-3.000000000e-04	2.321567410e-01	-6.588057768e-04	1.149291053e-11
-4.000000000e-04	2.321567495e-01	-6.564494971e-04	8.534642325e-12
-5.000000000e-04	2.321567579e-01	-6.540932171e-04	1.045795018e-11
-6.000000000e-04	2.321567663e-01	-6.517369367e-04	4.747867781e-12
-7.000000000e-04	2.321567746e-01	-6.493806560e-04	8.805454616e-12
-8.000000000e-04	2.321567828e-01	-6.470243750e-04	1.888549139e-11
-9.000000000e-04	2.321567909e-01	-6.446680936e-04	7.528834996e-12
-1.000000000e-03	2.321567989e-01	-6.423118119e-04	2.115285284e-11
-1.100000000e-03	2.321568069e-01	-6.399555298e-04	6.814501985e-12
-1.200000000e-03	2.321568148e-01	-6.375992475e-04	1.461280207e-11
-1.300000000e-03	2.321568227e-01	-6.352429648e-04	1.041162750e-11
-1.400000000e-03	2.321568304e-01	-6.328866818e-04	1.405970711e-11
-1.500000000e-03	2.321568381e-01	-6.305303984e-04	6.396321975e-12
-1.600000000e-03	2.321568458e-01	-6.281741148e-04	1.390276228e-11
-1.700000000e-03	2.321568533e-01	-6.258178308e-04	1.893924367e-11
-1.800000000e-03	2.321568608e-01	-6.234615466e-04	1.150879900e-11
-1.900000000e-03	2.321568682e-01	-6.211052620e-04	1.469169837e-11
-2.000000000e-03	2.321568755e-01	-6.187489772e-04	1.534036870e-11
-2.100000000e-03	2.321568828e-01	-6.163926921e-04	7.402492140e-12
-2.200000000e-03	2.321568900e-01	-6.140364066e-04	1.315450101e-11
-2.300000000e-03	2.321568971e-01	-6.116801209e-04	9.900698435e-12
-2.400000000e-03	2.321569042e-01	-6.093238349e-04	7.280832851e-12
-2.500000000e-03	2.321569112e-01	-6.069675486e-04	1.183879450e-11
-2.600000000e-03	2.321569181e-01	-6.046112621e-04	1.125037816e-11
-2.700000000e-03	2.321569249e-01	-6.022549753e-04	1.617251053e-11
-2.800000000e-03	2.321569317e-01	-5.998986882e-04	3.508641084e-11
-2.900000000e-03	2.321569384e-01	-5.975424008e-04	1.387126950e-11
-3.000000000e-03	2.321569450e-01	-5.951861132e-04	1.384932657e-10
-3.100000000e-03	2.321569515e-01	-5.928298254e-04	3.006923871e-11
-3.200000000e-03	2.321569580e-01	-5.904735372e-04	7.450931522e-12
-3.300000000e-03	2.321569644e-01	-5.881172489e-04	1.207945197e-11
-3.400000000e-03	2.321569707e-01	-5.857609603e-04	7.584280436e-12
-3.500000000e-03	2.321569770e-01	-5.834046714e-04	1.863685010e-11
-3.600000000e-03	2.321569832e-01	-5.810483823e-04	1.124758049e-11
-3.700000000e-03	2.321569893e-01	-5.786920930e-04	3.243083873e-11
-3.800000000e-03	2.321569954e-01	-5.763358034e-04	9.950320291e-11
-3.900000000e-03	2.321570013e-01	-5.739795136e-04	2.535721681e-11
-4.000000000e-03	2.321570072e-01	-5.716232236e-04	1.181265875e-11
-4.100000000e-03	2.321570131e-01	-5.692669334e-04	1.440696775e-10
-4.200000000e-03	2.321570188e-01	-5.669106429e-04	2.426655836e-11
-4.300000000e-03	2.321570245e-01	-5.645543523e-04	1.544224334e-11
-4.400000000e-03	2.321570301e-01	-5.621980614e-04	1.078376591e-11
-4.500000000e-03	2.321570357e-01	-5.598417703e-04	1.109356139e-11
-4.600000000e-03	2.321570412e-01	-5.574854790e-04	1.827972102e-11
-4.700000000e-03	2.321570466e-01	-5.551291876e-04	8.151399414e-12
-4.800000000e-03	2.321570519e-01	-5.527728959e-04	7.077407396e-12
-4.900000000e-03	2.321570572e-01	-5.504166040e-04	1.479852797e-11
-5.000000000e-03	2.321570623e-01	-5.480603120e-04	1.456566825e-11
-5.100000000e-03	2.321570675e-01	-5.457040197e-04	5.865897035e-12
-5.200000000e-03	2.321570725e-01	-5.433477273e-04	1.061201192e-11
-5.300000000e-03	2.321570775e-01	-5.409914347e-04	1.687146348e-11
-5.400000000e-03	2.321570824e-01	-5.386351420e-04	2.645693576e-11
-5.500000000e-03	2.321570872e-01	-5.362788490e-04	2.067730481e-11
-5.600000000e-03	2.321570920e-01	-5.339225559e-04	2.245223444e-11
-5.700000000e-03	2.321570966e-01	-5.315662627e-04	3.953237354e-11
-5.800000000e-03	2.321571013e-01	-5.292099693e-04	8.366592512e-12
-5.900000000e-03	2.321571058e-01	-5.268536757e-04	1.846919112e-11
-6.000000000e-03	2.321571103e-01	-5.244973820e-04	2.104752028e-11
-6.100000000e-03	2.321571147e-01	-5.221410881e-04	1.137618463e-11
-6.200000000e-03	2.321571190e-01	-5.197847941e-04	1.394991894e-11
-6.300000000e-03	2.321571232e-01	-5.174284999e-04	1.918377455e-11
-6.400000000e-03	2.321571274e-01	-5.150722056e-04	8.654925196e-12
-6.500000000e-03	2.321571315e-01	-5.127159112e-04	1.528544981e-11
-6.600000000e-03	2.321571356e-01	-5.103596167e-04	1.534641908e-11
-6.700000000e-03	2.321571396e-01	-5.080033220e-04	4.380181990e-11
-6.800000000e-03	2.321571434e-01	-5.056470272e-04	8.742440532e-12
-6.900000000e-03	2.321571473e-01	-5.032907323e-04	7.223876499e-11
-7.000000000e-03	2.321571510e-01	-5.009344372e-04	2.484343150e-11
-7.100000000e-03	2.321571547e-01	-4.985781421e-04	1.412211608e-11
-7.200000000e-03	2.321571583e-01	-4.962218468e-04	1.050770885e-11
-7.300000000e-03	2.321571619e-01	-4.938655515e-04	5.559414361e-12
-7.400000000e-03	2.321571653e-01	-4.915092560e-04	1.479692799e-11
-7.500000000e-03	2.321571687e-01	-4.891529605e-04	8.260975422e-12
-7.600000000e-03	2.321571720e-01	-4.867966648e-04	5.600702867e-12
-7.700000000e-03	2.321571753e-01	-4.844403691e-04	8.192976715e-12
-7.800000000e-03	2.321571785e-01	-4.820840733e-04	8.468668537e-12
-7.900000000e-03	2.321571816e-01	-4.797277773e-04	6.303024117e-12
-8.000000000e-03	2.321571846e-01	-4.773714814e-04	4.059660698e-11
-8.100000000e-03	2.321571876e-01	-4.750151853e-04	6.697264600e-12
-8.200000000e-03	2.321571905e-01	-4.726588892e-04	3.067015898e-11
-8.300000000e-03	2.321571933e-01	-4.703025930e-04	4.342563060e-12
-8.400000000e-03	2.321571960e-01	-4.679462967e-04	1.168812619e-11
-8.500000000e-03	2.321571987e-01	-4.655900004e-04	2.326031162e-11
-8.600000000e-03	2.321572013e-01	-4.632337040e-04	1.612819838e-11
-8.700000000e-03	2.321572038e-01	-4.608774076e-04	7.654729962e-12
-8.800000000e-03	2.321572063e-01	-4.585211111e-04	5.480822754e-11
-8.900000000e-03	2.321572087e-01	-4.561648146e-04	1.324990215e-11
-9.000000000e-03	2.321572110e-01	-4.538085180e-04	1.034899270e-11
-9.100000000e-03	2.321572133e-01	-4.514522214e-04	1.166757633e-11
-9.200000000e-03	2.321572154e-01	-4.490959248e-04	2.747865619e-11
-9.300000000e-03	2.321572175e-01	-4.467396281e-04	2.028899770e-11
-9.400000000e-03	2.321572196e-01	-4.443833314e-04	4.484909953e-12
-9.500000000e-03	2.321572215e-01	-4.420270347e-04	3.793753308e-11
-9.600000000e-03	2.321572234e-01	-4.396707380e-04	8.023305427e-11
-9.700000000e-03	2.321572252e-01	-4.373144412e-04	2.084660536e-11
-9.800000000e-03	2.321572270e-01	-4.349581444e-04	2.475120980e-11
-9.900000000e-03	2.321572287e-01	-4.326018477e-04	1.164694589e-11
-1.000000000e-02	2.321572303e-01	-4.302455509e-04	8.065322938e-12
-1.010000000e-02	2.321572318e-01	-4.278892541e-04	3.041413032e-11
-1.020000000e-02	2.321572332e-01	-4.255329573e-04	7.676536356e-12
-1.030000000e-02	2.321572346e-01	-4.231766605e-04	3.770546745e-11
-1.040000000e-02	2.321572359e-01	-4.208203637e-04	3.963097435e-11
-1.050000000e-02	2.321572372e-01	-4.184640670e-04	2.702675760e-11
-1.060000000e-02	2.321572384e-01	-4.161077702e-04	1.872741137e-11
-1.070000000e-02	2.321572395e-01	-4.137514735e-04	7.938842150e-12
-1.080000000e-02	2.321572405e-01	-4.113951768e-04	1.475219440e-11
-1.090000000e-02	2.321572414e-01	-4.090388802e-04	5.057041033e-12
-1.100000000e-02	2.321572423e-01	-4.066825835e-04	1.474032772e-11
-1.110000000e-02	2.321572431e-01	-4.043262869e-04	2.461024130e-11
-1.120000000e-02	2.321572439e-01	-4.019699903e-04	2.225484462e-11
-1.130000000e-02	2.321572446e-01	-3.996136938e-04	1.297541350e-11
-1.140000000e-02	2.321572451e-01	-3.972573973e-04	1.391493649e-11
-1.150000000e-02	2.321572457e-01	-3.949011009e-04	1.503469088e-11
-1.160000000e-02	2.321572461e-01	-3.925448045e-04	1.067070979e-10
-1.170000000e-02	2.321572465e-01	-3.901885082e-04	1.584834742e-11
-1.180000000e-02	2.321572468e-01	-3.878322119e-04	2.934065361e-11
-1.190000000e-02	2.321572471e-01	-3.854759157e-04	1.262667314e-11
-1.200000000e-02	2.321572472e-01	-3.831196196e-04	1.249005176e-11
-1.210000000e-02	2.321572473e-01	-3.807633235e-04	1.946196958e-11
-1.220000000e-02	2.321572473e-01	-3.784070275e-04	8.641144028e-12
-1.230000000e-02	2.321572473e-01	-3.760507316e-04	2.315833651e-11
-1.240000000e-02	2.321572472e-01	-3.736944358e-04	1.497194757e-11
-1.250000000e-02	2.321572470e-01	-3.713381400e-04	1.801062969e-11
-1.260000000e-02	2.321572467e-01	-3.689818444e-04	1.254772994e-11
-1.270000000e-02	2.321572464e-01	-3.666255488e-04	2.131326055e-11
-1.280000000e-02	2.321572460e-01	-3.642692534e-04	1.513861329e-11
-1.290000000e-02	2.321572455e-01	-3.619129580e-04	2.284175577e-11
-1.300000000e-02	2.321572450e-01	-3.595566627e-04	1.021070178e-10
-1.310000000e-02	2.321572443e-01	-3.572003676e-04	8.232899033e-12
-1.320000000e-02	2.321572436e-01	-3.548440725e-04	1.341852864e-11
-1.330000000e-02	2.321572429e-01	-3.524877776e-04	1.723897489e-11
-1.340000000e-02	2.321572420e-01	-3.501314828e-04	1.493080200e-11
-1.350000000e-02	2.321572411e-01	-3.477751881e-04	1.206928307e-11
-1.360000000e-02	2.321572402e-01	-3.454188935e-04	3.800788636e-11
-1.370000000e-02	2.321572391e-01	-3.430625991e-04	1.325901536e-11
-1.380000000e-02	2.321572380e-01	-3.407063048e-04	1.530228959e-11
-1.390000000e-02	2.321572368e-01	-3.383500106e-04	1.530397989e-11
-1.400000000e-02	2.321572355e-01	-3.359937166e-04	7.575110800e-12
-1.410000000e-02	2.321572342e-01	-3.336374227e-04	4.905403402e-11
-1.420000000e-02	2.321572328e-01	-3.312811290e-04	1.278277558e-11
-1.430000000e-02	2.321572313e-01	-3.289248354e-04	1.351101420e-11
-1.440000000e-02	2.321572297e-01	-3.265685419e-04	9.185539150e-12
-1.450000000e-02	2.321572281e-01	-3.242122487e-04	2.732706888e-11
-1.460000000e-02	2.321572264e-01	-3.218559555e-04	2.529694495e-11
-1.470000000e-02	2.321572246e-01	-3.194996626e-04	2.212740165e-11
-1.480000000e-02	2.321572228e-01	-3.171433698e-04	2.185824368e-11
-1.490000000e-02	2.321572209e-01	-3.147870772e-04	7.846622697e-12
-1.500000000e-02	2.321572189e-01	-3.124307848e-04	1.264851535e-11
-1.510000000e-02	2.321572168e-01	-3.100744925e-04	1.039999802e-11
-1.520000000e-02	2.321572147e-01	-3.077182004e-04	8.254537579e-12
-1.530000000e-02	2.321572125e-01	-3.053619086e-04	1.501053433e-11
-1.540000000e-02	2.321572102e-01	-3.030056169e-04	1.176405978e-11
-1.550000000e-02	2.321572079e-01	-3.006493254e-04	1.839603827e-11
-1.560000000e-02	2.321572055e-01	-2.982930341e-04	1.579121624e-11
-1.570000000e-02	2.321572030e-01	-2.959367430e-04	1.332179947e-11
-1.580000000e-02	2.321572004e-01	-2.935804521e-04	1.572251631e-11
-1.590000000e-02	2.321571978e-01	-2.912241614e-04	2.854285000e-11
-1.600000000e-02	2.321571951e-01	-2.888678709e-04	5.226225463e-11
-1.610000000e-02	2.321571923e-01	-2.865115807e-04	8.777902268e-12
-1.620000000e-02	2.321571895e-01	-2.841552906e-04	1.987253948e-11
-1.630000000e-02	2.321571866e-01	-2.817990008e-04	2.143621143e-11
-1.640000000e-02	2.321571836e-01	-2.794427113e-04	9.162791505e-12
-1.650000000e-02	2.321571805e-01	-2.770864219e-04	4.282864414e-11
-1.660000000e-02	2.321571774e-01	-2.747301328e-04	4.048556708e-11
-1.670000000e-02	2.321571742e-01	-2.723738439e-04	1.172109881e-11
-1.680000000e-02	2.321571709e-01	-2.700175553e-04	1.233084505e-11
-1.690000000e-02	2.321571676e-01	-2.676612669e-04	1.921236778e-11
-1.700000000e-02	2.321571642e-01	-2.653049787e-04	1.141119362e-11
-1.710000000e-02	2.321571607e-01	-2.629486908e-04	6.287863423e-12
-1.720000000e-02	2.321571571e-01	-2.605924032e-04	1.533684101e-11
-1.730000000e-02	2.321571535e-01	-2.582361158e-04	8.731673944e-12
-1.740000000e-02	2.321571498e-01	-2.558798287e-04	7.184286377e-12
-1.750000000e-02	2.321571460e-01	-2.535235419e-04	2.306313766e-11
-1.760000000e-02	2.321571421e-01	-2.511672553e-04	2.317523354e-11
-1.770000000e-02	2.321571382e-01	-2.488109690e-04	9.176699411e-12
-1.780000000e-02	2.321571342e-01	-2.464546830e-04	2.118809287e-11
-1.790000000e-02	2.321571302e-01	-2.440983972e-04	8.413495855e-12
-1.800000000e-02	2.321571260e-01	-2.417421118e-04	4.768375704e-11
-1.810000000e-02	2.321571218e-01	-2.393858266e-04	1.864646390e-11
-1.820000000e-02	2.321571175e-01	-2.370295417e-04	5.735267126e-11
-1.830000000e-02	2.321571132e-01	-2.346732571e-04	1.232345592e-11
-1.840000000e-02	2.321571088e-01	-2.323169728e-04	1.595195476e-11
-1.850000000e-02	2.321571043e-01	-2.299606889e-04	3.478068838e-11
-1.860000000e-02	2.321570997e-01	-2.276044052e-04	1.405413943e-11
-1.870000000e-02	2.321570951e-01	-2.252481218e-04	2.070437211e-11
-1.880000000e-02	2.321570904e-01	-2.228918388e-04	2.022792273e-11
-1.890000000e-02	2.321570856e-01	-2.205355561e-04	6.055592024e-12
-1.900000000e-02	2.321570807e-01	-2.181792737e-04	4.138203537e-11
-1.910000000e-02	2.321570758e-01	-2.158229916e-04	1.653278040e-11
-1.920000000e-02	2.321570708e-01	-2.134667098e-04	8.933795114e-12
-1.930000000e-02	2.321570657e-01	-2.111104284e-04	2.643981789e-11
-1.940000000e-02	2.321570606e-01	-2.087541473e-04	2.698187781e-11
-1.950000000e-02	2.321570554e-01	-2.063978666e-04	1.106870714e-11
-1.960000000e-02	2.321570501e-01	-2.040415862e-04	7.100905318e-12
-1.970000000e-02	2.321570448e-01	-2.016853061e-04	8.828436766e-12
-1.980000000e-02	2.321570393e-01	-1.993290264e-04	1.366359552e-11
-1.990000000e-02	2.321570338e-01	-1.969727471e-04	1.413661537e-11
-2.000000000e-02	2.321570283e-01	-1.946164681e-04	1.387688725e-11
-2.010000000e-02	2.321570226e-01	-1.922601895e-04	8.112791506e-12
-2.020000000e-02	2.321570169e-01	-1.899039112e-04	1.566397538e-11
-2.030000000e-02	2.321570111e-01	-1.875476333e-04	1.226231648e-11
-2.040000000e-02	2.321570053e-01	-1.851913558e-04	1.389217327e-11
-2.050000000e-02	2.321569993e-01	-1.828350787e-04	2.093324451e-11
-2.060000000e-02	2.321569933e-01	-1.804788019e-04	2.001383494e-11
-2.070000000e-02	2.321569873e-01	-1.781225255e-04	1.216504195e-11
-2.080000000e-02	2.321569811e-01	-1.757662495e-04	3.172203762e-11
-2.090000000e-02	2.321569749e-01	-1.734099739e-04	7.337694916e-12
-2.100000000e-02	2.321569686e-01	-1.710536987e-04	2.564778319e-11
-2.110000000e-02	2.321569623e-01	-1.686974239e-04	1.065295609e-11
-2.120000000e-02	2.321569558e-01	-1.663411495e-04	2.747526334e-11
-2.130000000e-02	2.321569493e-01	-1.639848755e-04	1.391569854e-11
-2.140000000e-02	2.321569428e-01	-1.616286019e-04	1.526023710e-11
-2.150000000e-02	2.321569361e-01	-1.592723287e-04	1.450396712e-11
-2.160000000e-02	2.321569294e-01	-1.569160559e-04	1.733887511e-11
-2.170000000e-02	2.321569226e-01	-1.545597836e-04	6.806091228e-12
-2.180000000e-02	2.321569157e-01	-1.522035116e-04	2.210573347e-11
-2.190000000e-02	2.321569088e-01	-1.498472401e-04	8.436262209e-12
-2.200000000e-02	2.321569018e-01	-1.474909691e-04	1.021860105e-11
-2.210000000e-02	2.321568947e-01	-1.451346984e-04	2.762218938e-11
-2.220000000e-02	2.321568876e-01	-1.427784282e-04	9.281630745e-12
-2.230000000e-02	2.321568804e-01	-1.404221585e-04	8.311569032e-12
-2.240000000e-02	2.321568731e-01	-1.380658892e-04	1.943255634e-11
-2.250000000e-02	2.321568657e-01	-1.357096203e-04	2.080557160e-11
-2.260000000e-02	2.321568583e-01	-1.333533519e-04	3.817950993e-11
-2.270000000e-02	2.321568508e-01	-1.309970840e-04	1.097115592e-11
-2.280000000e-02	2.321568432e-01	-1.286408165e-04	1.598613274e-11
-2.290000000e-02	2.321568356e-01	-1.262845494e-04	3.028884327e-11
-2.300000000e-02	2.321568278e-01	-1.239282829e-04	7.583438617e-12
-2.310000000e-02	2.321568200e-01	-1.215720168e-04	1.597750465e-11
-2.320000000e-02	2.321568122e-01	-1.192157512e-04	1.154391327e-11
-2.330000000e-02	2.321568042e-01	-1.168594860e-04	2.173179321e-11
-2.340000000e-02	2.321567962e-01	-1.145032214e-04	1.937040256e-11
-2.350000000e-02	2.321567882e-01	-1.121469572e-04	1.975294198e-11
-2.360000000e-02	2.321567800e-01	-1.097906935e-04	1.433061710e-11
-2.370000000e-02	2.321567718e-01	-1.074344303e-04	5.912454499e-11
-2.380000000e-02	2.321567635e-01	-1.050781676e-04	4.132808071e-12
-2.390000000e-02	2.321567551e-01	-1.027219054e-04	1.004247281e-11
-2.400000000e-02	2.321567467e-01	-1.003656437e-04	3.823281972e-11
-2.410000000e-02	2.321567382e-01	-9.800938255e-05	1.034157471e-11
-2.420000000e-02	2.321567296e-01	-9.565312188e-05	4.223458075e-12
-2.430000000e-02	2.321567209e-01	-9.329686172e-05	2.313576174e-11
-2.440000000e-02	2.321567122e-01	-9.094060207e-05	3.865569468e-11
-2.450000000e-02	2.321567034e-01	-8.858434295e-05	1.120765083e-11
-2.460000000e-02	2.321566945e-01	-8.622808436e-05	9.894653031e-12
-2.470000000e-02	2.321566856e-01	-8.387182629e-05	1.148589653e-11
-2.480000000e-02	2.321566766e-01	-8.151556876e-05	1.459477423e-11
-2.490000000e-02	2.321566675e-01	-7.915931176e-05	3.413731113e-11
-2.500000000e-02	2.321566584e-01	-7.680305530e-05	7.421352516e-12
-2.510000000e-02	2.321566491e-01	-7.444679938e-05	8.438924042e-12
-2.520000000e-02	2.321566398e-01	-7.209054401e-05	6.973368967e-12
-2.530000000e-02	2.321566305e-01	-6.973428920e-05	6.394612300e-12
-2.540000000e-02	2.321566210e-01	-6.737803493e-05	9.251426395e-12
-2.550000000e-02	2.321566115e-01	-6.502178122e-05	1.164175840e-11
-2.560000000e-02	2.321566019e-01	-6.266552808e-05	1.563421185e-11
-2.570000000e-02	2.321565923e-01	-6.030927550e-05	9.281168550e-12
-2.580000000e-02	2.321565825e-01	-5.795302349e-05	2.712756763e-11
-2.590000000e-02	2.321565727e-01	-5.559677205e-05	1.833626685e-11
-2.600000000e-02	2.321565629e-01	-5.324052119e-05	1.367018174e-11
-2.610000000e-02	2.321565529e-01	-5.088427091e-05	1.561916283e-11
-2.620000000e-02	2.321565429e-01	-4.852802121e-05	7.675881571e-12
-2.630000000e-02	2.321565328e-01	-4.617177209e-05	1.142005993e-11
-2.640000000e-02	2.321565227e-01	-4.381552357e-05	7.033163699e-12
-2.650000000e-02	2.321565124e-01	-4.145927564e-05	1.448148098e-11
-2.660000000e-02	2.321565021e-01	-3.910302831e-05	1.150345084e-11
-2.670000000e-02	2.321564918e-01	-3.674678159e-05	9.027175351e-12
-2.680000000e-02	2.321564813e-01	-3.439053546e-05	9.059331629e-12
-2.690000000e-02	2.321564708e-01	-3.203428995e-05	1.505256960e-11
-2.700000000e-02	2.321564602e-01	-2.967804505e-05	3.088881613e-11
-2.710000000e-02	2.321564495e-01	-2.732180076e-05	1.533843041e-11
-2.720000000e-02	2.321564388e-01	-2.496555709e-05	8.917263998e-12
-2.730000000e-02	2.321564280e-01	-2.260931405e-05	6.897346694e-12
-2.740000000e-02	2.321564171e-01	-2.025307163e-05	1.029927337e-11
-2.750000000e-02	2.321564062e-01	-1.789682985e-05	5.745482572e-12
-2.760000000e-02	2.321563952e-01	-1.554058870e-05	9.908492438e-12
-2.770000000e-02	2.321563841e-01	-1.318434818e-05	1.530535262e-11
-2.780000000e-02	2.321563729e-01	-1.082810831e-05	1.784493664e-11
-2.790000000e-02	2.321563617e-01	-8.471869083e-06	8.659514540e-12
-2.800000000e-02	2.321563504e-01	-6.115630503e-06	1.703558652e-11
-2.810000000e-02	2.321563390e-01	-3.759392577e-06	8.400904159e-12
-2.820000000e-02	2.321563275e-01	-1.403155307e-06	9.720241089e-12
-2.830000000e-02	2.321563160e-01	9.530813036e-07	1.509157220e-11
-2.840000000e-02	2.321563044e-01	3.309317250e-06	3.163423589e-12
-2.850000000e-02	2.321562928e-01	5.665552531e-06	1.643981340e-11
-2.860000000e-02	2.321562810e-01	8.021787140e-06	9.136318057e-12
-2.870000000e-02	2.321562692e-01	1.037802108e-05	1.025621043e-11
-2.880000000e-02	2.321562573e-01	1.273425433e-05	1.510022241e-11
-2.890000000e-02	2.321562454e-01	1.509048691e-05	2.477750108e-11
-2.900000000e-02	2.321562334e-01	1.744671880e-05	1.601591908e-11
-2.910000000e-02	2.321562213e-01	1.980295000e-05	1.367632059e-11
-2.920000000e-02	2.321562091e-01	2.215918052e-05	9.142883932e-12
-2.930000000e-02	2.321561969e-01	2.451541033e-05	5.093643516e-12
-2.940000000e-02	2.321561846e-01	2.687163944e-05	8.357912915e-12
-2.950000000e-02	2.321561722e-01	2.922786786e-05	2.557245329e-11
-2.960000000e-02	2.321561597e-01	3.158409556e-05	2.004631419e-11
-2.970000000e-02	2.321561472e-01	3.394032255e-05	3.140341225e-11
-2.980000000e-02	2.321561346e-01	3.629654883e-05	2.813675214e-11
-2.990000000e-02	2.321561219e-01	3.865277440e-05	1.215846474e-11
-3.000000000e-02	2.321561092e-01	4.100899924e-05	9.954958260e-12
