# Im(epsi1)     Re(omega/c)      Im(omega/c)      Eq(det).Opt det CON kz, R=0.5 \mum, mu_c=0.3, Re(epsi1)=3.90solve_det_conkz_vs_kz.py
0.000000000e+00	2.321574965e-01	-6.658775087e-04	1.810950308e-11
-1.000000000e-04	2.321575052e-01	-6.635212245e-04	1.532170438e-11
-2.000000000e-04	2.321575138e-01	-6.611649399e-04	2.364625359e-11
-3.000000000e-04	2.321575224e-01	-6.588086550e-04	1.402256567e-11
-4.000000000e-04	2.321575309e-01	-6.564523697e-04	9.631137036e-12
-5.000000000e-04	2.321575393e-01	-6.540960840e-04	4.824963711e-11
-6.000000000e-04	2.321575476e-01	-6.517397980e-04	1.382227799e-11
-7.000000000e-04	2.321575559e-01	-6.493835117e-04	6.731072164e-12
-8.000000000e-04	2.321575641e-01	-6.470272250e-04	1.060442473e-11
-9.000000000e-04	2.321575722e-01	-6.446709380e-04	1.027289665e-11
-1.000000000e-03	2.321575803e-01	-6.423146507e-04	1.786465394e-11
-1.100000000e-03	2.321575883e-01	-6.399583630e-04	9.822845626e-12
-1.200000000e-03	2.321575962e-01	-6.376020750e-04	1.817825587e-11
-1.300000000e-03	2.321576040e-01	-6.352457866e-04	1.507347642e-11
-1.400000000e-03	2.321576118e-01	-6.328894980e-04	8.789861052e-12
-1.500000000e-03	2.321576195e-01	-6.305332090e-04	1.257500760e-11
-1.600000000e-03	2.321576271e-01	-6.281769198e-04	1.791707760e-11
-1.700000000e-03	2.321576347e-01	-6.258206302e-04	1.101294271e-11
-1.800000000e-03	2.321576422e-01	-6.234643403e-04	1.439570292e-11
-1.900000000e-03	2.321576496e-01	-6.211080501e-04	1.282588470e-11
-2.000000000e-03	2.321576569e-01	-6.187517596e-04	1.284231090e-11
-2.100000000e-03	2.321576642e-01	-6.163954689e-04	2.584380759e-11
-2.200000000e-03	2.321576714e-01	-6.140391778e-04	1.300728984e-11
-2.300000000e-03	2.321576785e-01	-6.116828865e-04	8.070715087e-12
-2.400000000e-03	2.321576855e-01	-6.093265948e-04	2.039099526e-11
-2.500000000e-03	2.321576925e-01	-6.069703029e-04	8.009977475e-12
-2.600000000e-03	2.321576994e-01	-6.046140107e-04	4.531438509e-11
-2.700000000e-03	2.321577063e-01	-6.022577183e-04	5.181378229e-12
-2.800000000e-03	2.321577130e-01	-5.999014256e-04	2.184370227e-11
-2.900000000e-03	2.321577197e-01	-5.975451326e-04	1.339294060e-11
-3.000000000e-03	2.321577263e-01	-5.951888394e-04	2.354117828e-11
-3.100000000e-03	2.321577329e-01	-5.928325458e-04	1.070441443e-11
-3.200000000e-03	2.321577394e-01	-5.904762521e-04	9.122793020e-12
-3.300000000e-03	2.321577458e-01	-5.881199581e-04	6.333144997e-12
-3.400000000e-03	2.321577521e-01	-5.857636638e-04	1.003038950e-11
-3.500000000e-03	2.321577584e-01	-5.834073694e-04	1.376577985e-11
-3.600000000e-03	2.321577646e-01	-5.810510746e-04	1.641268119e-11
-3.700000000e-03	2.321577707e-01	-5.786947797e-04	2.203892620e-11
-3.800000000e-03	2.321577767e-01	-5.763384845e-04	1.585627043e-11
-3.900000000e-03	2.321577827e-01	-5.739821891e-04	7.509467459e-12
-4.000000000e-03	2.321577886e-01	-5.716258934e-04	4.240066844e-12
-4.100000000e-03	2.321577944e-01	-5.692695975e-04	1.999738507e-11
-4.200000000e-03	2.321578002e-01	-5.669133015e-04	1.047133269e-11
-4.300000000e-03	2.321578059e-01	-5.645570052e-04	1.452617815e-11
-4.400000000e-03	2.321578115e-01	-5.622007087e-04	1.767490957e-11
-4.500000000e-03	2.321578171e-01	-5.598444120e-04	7.423114270e-12
-4.600000000e-03	2.321578225e-01	-5.574881150e-04	1.562775274e-11
-4.700000000e-03	2.321578279e-01	-5.551318179e-04	1.127539237e-11
-4.800000000e-03	2.321578333e-01	-5.527755206e-04	5.821890101e-12
-4.900000000e-03	2.321578385e-01	-5.504192231e-04	7.440271293e-12
-5.000000000e-03	2.321578437e-01	-5.480629255e-04	8.878878064e-12
-5.100000000e-03	2.321578488e-01	-5.457066276e-04	2.879229223e-11
-5.200000000e-03	2.321578539e-01	-5.433503295e-04	1.530989427e-11
-5.300000000e-03	2.321578588e-01	-5.409940313e-04	1.032063780e-11
-5.400000000e-03	2.321578637e-01	-5.386377329e-04	9.195486660e-12
-5.500000000e-03	2.321578686e-01	-5.362814344e-04	1.058607848e-11
-5.600000000e-03	2.321578733e-01	-5.339251356e-04	2.186408925e-11
-5.700000000e-03	2.321578780e-01	-5.315688367e-04	8.495140013e-12
-5.800000000e-03	2.321578826e-01	-5.292125377e-04	6.148712546e-11
-5.900000000e-03	2.321578872e-01	-5.268562385e-04	2.238426308e-11
-6.000000000e-03	2.321578916e-01	-5.244999391e-04	1.399632765e-11
-6.100000000e-03	2.321578960e-01	-5.221436396e-04	1.302116283e-11
-6.200000000e-03	2.321579004e-01	-5.197873400e-04	2.949095961e-11
-6.300000000e-03	2.321579046e-01	-5.174310402e-04	1.361076045e-11
-6.400000000e-03	2.321579088e-01	-5.150747403e-04	1.007161667e-11
-6.500000000e-03	2.321579129e-01	-5.127184402e-04	8.316503031e-12
-6.600000000e-03	2.321579169e-01	-5.103621400e-04	8.726794724e-12
-6.700000000e-03	2.321579209e-01	-5.080058397e-04	2.897882529e-11
-6.800000000e-03	2.321579248e-01	-5.056495393e-04	2.966354152e-11
-6.900000000e-03	2.321579286e-01	-5.032932387e-04	6.311379385e-11
-7.000000000e-03	2.321579324e-01	-5.009369380e-04	8.767411191e-12
-7.100000000e-03	2.321579361e-01	-4.985806373e-04	8.586758499e-11
-7.200000000e-03	2.321579397e-01	-4.962243364e-04	8.986431909e-12
-7.300000000e-03	2.321579432e-01	-4.938680354e-04	1.152333814e-11
-7.400000000e-03	2.321579467e-01	-4.915117343e-04	1.646243532e-11
-7.500000000e-03	2.321579501e-01	-4.891554331e-04	1.396834356e-11
-7.600000000e-03	2.321579534e-01	-4.867991318e-04	3.097562985e-11
-7.700000000e-03	2.321579567e-01	-4.844428305e-04	1.773776727e-11
-7.800000000e-03	2.321579598e-01	-4.820865290e-04	1.302469476e-11
-7.900000000e-03	2.321579629e-01	-4.797302275e-04	9.967381189e-12
-8.000000000e-03	2.321579660e-01	-4.773739259e-04	5.973420670e-12
-8.100000000e-03	2.321579689e-01	-4.750176242e-04	1.406066307e-11
-8.200000000e-03	2.321579718e-01	-4.726613224e-04	1.577108201e-11
-8.300000000e-03	2.321579746e-01	-4.703050206e-04	2.406560303e-10
-8.400000000e-03	2.321579774e-01	-4.679487187e-04	1.261710104e-11
-8.500000000e-03	2.321579801e-01	-4.655924167e-04	7.806101759e-12
-8.600000000e-03	2.321579827e-01	-4.632361147e-04	3.789122879e-12
-8.700000000e-03	2.321579852e-01	-4.608798127e-04	1.057935423e-11
-8.800000000e-03	2.321579877e-01	-4.585235106e-04	3.570363812e-11
-8.900000000e-03	2.321579901e-01	-4.561672084e-04	1.575041590e-11
-9.000000000e-03	2.321579924e-01	-4.538109062e-04	1.281603185e-11
-9.100000000e-03	2.321579946e-01	-4.514546040e-04	1.916290901e-11
-9.200000000e-03	2.321579968e-01	-4.490983017e-04	8.572308617e-12
-9.300000000e-03	2.321579989e-01	-4.467419994e-04	1.169701582e-11
-9.400000000e-03	2.321580009e-01	-4.443856971e-04	9.635418830e-12
-9.500000000e-03	2.321580029e-01	-4.420293947e-04	1.293710476e-11
-9.600000000e-03	2.321580048e-01	-4.396730923e-04	1.451225147e-11
-9.700000000e-03	2.321580066e-01	-4.373167900e-04	1.461428075e-11
-9.800000000e-03	2.321580084e-01	-4.349604876e-04	2.076864207e-11
-9.900000000e-03	2.321580100e-01	-4.326041851e-04	2.463576121e-11
-1.000000000e-02	2.321580116e-01	-4.302478827e-04	1.177496547e-10
-1.010000000e-02	2.321580132e-01	-4.278915803e-04	1.099768615e-11
-1.020000000e-02	2.321580146e-01	-4.255352779e-04	1.145241151e-11
-1.030000000e-02	2.321580160e-01	-4.231789755e-04	1.577912973e-11
-1.040000000e-02	2.321580173e-01	-4.208226731e-04	1.097631441e-11
-1.050000000e-02	2.321580186e-01	-4.184663707e-04	2.035246155e-11
-1.060000000e-02	2.321580197e-01	-4.161100683e-04	1.223165930e-11
-1.070000000e-02	2.321580208e-01	-4.137537660e-04	1.412939342e-11
-1.080000000e-02	2.321580219e-01	-4.113974636e-04	3.889499733e-11
-1.090000000e-02	2.321580228e-01	-4.090411613e-04	1.118388297e-11
-1.100000000e-02	2.321580237e-01	-4.066848590e-04	1.188114868e-10
-1.110000000e-02	2.321580245e-01	-4.043285568e-04	2.825575309e-11
-1.120000000e-02	2.321580253e-01	-4.019722546e-04	1.715380995e-11
-1.130000000e-02	2.321580259e-01	-3.996159524e-04	2.674955791e-11
-1.140000000e-02	2.321580265e-01	-3.972596503e-04	1.076788809e-11
-1.150000000e-02	2.321580270e-01	-3.949033483e-04	1.394676222e-11
-1.160000000e-02	2.321580275e-01	-3.925470462e-04	8.606189865e-12
-1.170000000e-02	2.321580279e-01	-3.901907443e-04	1.315392103e-11
-1.180000000e-02	2.321580282e-01	-3.878344424e-04	8.267878541e-12
-1.190000000e-02	2.321580284e-01	-3.854781406e-04	1.788333877e-11
-1.200000000e-02	2.321580286e-01	-3.831218388e-04	1.497859105e-11
-1.210000000e-02	2.321580287e-01	-3.807655371e-04	1.358785864e-11
-1.220000000e-02	2.321580287e-01	-3.784092355e-04	2.428735520e-11
-1.230000000e-02	2.321580287e-01	-3.760529339e-04	2.052584887e-11
-1.240000000e-02	2.321580285e-01	-3.736966325e-04	4.797547291e-11
-1.250000000e-02	2.321580284e-01	-3.713403311e-04	3.995881298e-11
-1.260000000e-02	2.321580281e-01	-3.689840298e-04	2.911142972e-11
-1.270000000e-02	2.321580278e-01	-3.666277286e-04	1.268119696e-11
-1.280000000e-02	2.321580274e-01	-3.642714275e-04	2.246887739e-11
-1.290000000e-02	2.321580269e-01	-3.619151265e-04	1.778549900e-10
-1.300000000e-02	2.321580263e-01	-3.595588256e-04	1.149077207e-11
-1.310000000e-02	2.321580257e-01	-3.572025248e-04	9.867683724e-12
-1.320000000e-02	2.321580250e-01	-3.548462241e-04	1.715576053e-11
-1.330000000e-02	2.321580242e-01	-3.524899236e-04	1.789882357e-11
-1.340000000e-02	2.321580234e-01	-3.501336231e-04	1.108434635e-11
-1.350000000e-02	2.321580225e-01	-3.477773228e-04	7.617153221e-12
-1.360000000e-02	2.321580215e-01	-3.454210226e-04	1.151772279e-11
-1.370000000e-02	2.321580205e-01	-3.430647225e-04	7.947091579e-12
-1.380000000e-02	2.321580193e-01	-3.407084226e-04	7.555682515e-12
-1.390000000e-02	2.321580181e-01	-3.383521228e-04	1.555519329e-11
-1.400000000e-02	2.321580169e-01	-3.359958231e-04	1.341551153e-11
-1.410000000e-02	2.321580155e-01	-3.336395236e-04	1.041216855e-11
-1.420000000e-02	2.321580141e-01	-3.312832242e-04	3.781385832e-12
-1.430000000e-02	2.321580127e-01	-3.289269250e-04	2.271843192e-11
-1.440000000e-02	2.321580111e-01	-3.265706260e-04	2.072924913e-11
-1.450000000e-02	2.321580095e-01	-3.242143270e-04	8.282044363e-12
-1.460000000e-02	2.321580078e-01	-3.218580283e-04	1.069623065e-11
-1.470000000e-02	2.321580060e-01	-3.195017297e-04	7.864701639e-11
-1.480000000e-02	2.321580042e-01	-3.171454313e-04	6.501846315e-12
-1.490000000e-02	2.321580023e-01	-3.147891331e-04	8.298256510e-12
-1.500000000e-02	2.321580003e-01	-3.124328350e-04	1.381878915e-10
-1.510000000e-02	2.321579982e-01	-3.100765371e-04	7.688844090e-12
-1.520000000e-02	2.321579961e-01	-3.077202394e-04	3.675921866e-11
-1.530000000e-02	2.321579939e-01	-3.053639419e-04	2.240041437e-11
-1.540000000e-02	2.321579916e-01	-3.030076446e-04	5.201704527e-11
-1.550000000e-02	2.321579893e-01	-3.006513474e-04	1.976670891e-11
-1.560000000e-02	2.321579869e-01	-2.982950505e-04	5.038652746e-11
-1.570000000e-02	2.321579844e-01	-2.959387538e-04	8.612402433e-12
-1.580000000e-02	2.321579818e-01	-2.935824573e-04	3.763848895e-12
-1.590000000e-02	2.321579792e-01	-2.912261609e-04	2.536829664e-11
-1.600000000e-02	2.321579765e-01	-2.888698648e-04	1.432751793e-11
-1.610000000e-02	2.321579737e-01	-2.865135690e-04	1.583543848e-11
-1.620000000e-02	2.321579709e-01	-2.841572733e-04	4.844809359e-12
-1.630000000e-02	2.321579679e-01	-2.818009778e-04	1.719395207e-11
-1.640000000e-02	2.321579650e-01	-2.794446826e-04	8.178878771e-12
-1.650000000e-02	2.321579619e-01	-2.770883876e-04	1.044427462e-11
-1.660000000e-02	2.321579588e-01	-2.747320929e-04	1.131398154e-11
-1.670000000e-02	2.321579556e-01	-2.723757984e-04	1.968558822e-11
-1.680000000e-02	2.321579523e-01	-2.700195041e-04	9.830664122e-12
-1.690000000e-02	2.321579489e-01	-2.676632101e-04	9.202307085e-12
-1.700000000e-02	2.321579455e-01	-2.653069163e-04	1.611328228e-11
-1.710000000e-02	2.321579420e-01	-2.629506228e-04	3.062509341e-11
-1.720000000e-02	2.321579385e-01	-2.605943295e-04	1.167486741e-11
-1.730000000e-02	2.321579348e-01	-2.582380365e-04	9.251823297e-12
-1.740000000e-02	2.321579311e-01	-2.558817438e-04	1.482058207e-11
-1.750000000e-02	2.321579274e-01	-2.535254513e-04	7.511082966e-12
-1.760000000e-02	2.321579235e-01	-2.511691591e-04	2.136301613e-11
-1.770000000e-02	2.321579196e-01	-2.488128671e-04	1.225363582e-11
-1.780000000e-02	2.321579156e-01	-2.464565755e-04	8.513178336e-12
-1.790000000e-02	2.321579115e-01	-2.441002841e-04	5.963443898e-11
-1.800000000e-02	2.321579074e-01	-2.417439930e-04	1.866368541e-11
-1.810000000e-02	2.321579032e-01	-2.393877022e-04	5.881319378e-11
-1.820000000e-02	2.321578989e-01	-2.370314117e-04	6.355322816e-12
-1.830000000e-02	2.321578946e-01	-2.346751215e-04	2.953154545e-11
-1.840000000e-02	2.321578901e-01	-2.323188316e-04	1.133448446e-11
-1.850000000e-02	2.321578856e-01	-2.299625420e-04	2.650495393e-11
-1.860000000e-02	2.321578811e-01	-2.276062527e-04	9.998775568e-12
-1.870000000e-02	2.321578764e-01	-2.252499637e-04	1.355930412e-11
-1.880000000e-02	2.321578717e-01	-2.228936750e-04	7.339248493e-12
-1.890000000e-02	2.321578670e-01	-2.205373866e-04	7.524466993e-12
-1.900000000e-02	2.321578621e-01	-2.181810986e-04	9.174307685e-12
-1.910000000e-02	2.321578572e-01	-2.158248109e-04	2.527028972e-11
-1.920000000e-02	2.321578522e-01	-2.134685235e-04	9.070953481e-12
-1.930000000e-02	2.321578471e-01	-2.111122365e-04	8.764969813e-12
-1.940000000e-02	2.321578420e-01	-2.087559497e-04	2.963139919e-11
-1.950000000e-02	2.321578368e-01	-2.063996634e-04	1.162658935e-11
-1.960000000e-02	2.321578315e-01	-2.040433773e-04	3.976993014e-11
-1.970000000e-02	2.321578261e-01	-2.016870916e-04	9.498398426e-11
-1.980000000e-02	2.321578207e-01	-1.993308063e-04	5.235049773e-11
-1.990000000e-02	2.321578152e-01	-1.969745213e-04	9.326276920e-12
-2.000000000e-02	2.321578096e-01	-1.946182367e-04	2.142783100e-11
-2.010000000e-02	2.321578040e-01	-1.922619524e-04	1.708112347e-11
-2.020000000e-02	2.321577983e-01	-1.899056686e-04	2.596674247e-12
-2.030000000e-02	2.321577925e-01	-1.875493850e-04	1.247135837e-11
-2.040000000e-02	2.321577866e-01	-1.851931019e-04	1.869833700e-11
-2.050000000e-02	2.321577807e-01	-1.828368191e-04	1.219715785e-11
-2.060000000e-02	2.321577747e-01	-1.804805367e-04	1.186228325e-11
-2.070000000e-02	2.321577686e-01	-1.781242547e-04	1.840124276e-11
-2.080000000e-02	2.321577625e-01	-1.757679731e-04	6.959167833e-12
-2.090000000e-02	2.321577563e-01	-1.734116918e-04	1.074132472e-11
-2.100000000e-02	2.321577500e-01	-1.710554110e-04	3.463609764e-11
-2.110000000e-02	2.321577436e-01	-1.686991305e-04	2.144588720e-11
-2.120000000e-02	2.321577372e-01	-1.663428505e-04	2.318715449e-11
-2.130000000e-02	2.321577307e-01	-1.639865708e-04	1.402885634e-11
-2.140000000e-02	2.321577241e-01	-1.616302916e-04	2.994105476e-10
-2.150000000e-02	2.321577175e-01	-1.592740128e-04	6.534592955e-12
-2.160000000e-02	2.321577108e-01	-1.569177344e-04	9.720687445e-12
-2.170000000e-02	2.321577040e-01	-1.545614564e-04	5.652931020e-12
-2.180000000e-02	2.321576971e-01	-1.522051789e-04	4.996326136e-12
-2.190000000e-02	2.321576902e-01	-1.498489017e-04	8.562741470e-12
-2.200000000e-02	2.321576832e-01	-1.474926250e-04	2.079073736e-11
-2.210000000e-02	2.321576761e-01	-1.451363488e-04	7.727989939e-11
-2.220000000e-02	2.321576690e-01	-1.427800729e-04	2.235235858e-11
-2.230000000e-02	2.321576617e-01	-1.404237975e-04	8.722780147e-12
-2.240000000e-02	2.321576545e-01	-1.380675226e-04	2.085419072e-11
-2.250000000e-02	2.321576471e-01	-1.357112481e-04	2.997294785e-11
-2.260000000e-02	2.321576397e-01	-1.333549741e-04	1.099020257e-11
-2.270000000e-02	2.321576322e-01	-1.309987005e-04	1.069124812e-11
-2.280000000e-02	2.321576246e-01	-1.286424274e-04	1.903250172e-11
-2.290000000e-02	2.321576169e-01	-1.262861547e-04	1.042300070e-11
-2.300000000e-02	2.321576092e-01	-1.239298825e-04	6.290797932e-12
-2.310000000e-02	2.321576014e-01	-1.215736108e-04	1.665940372e-11
-2.320000000e-02	2.321575935e-01	-1.192173395e-04	1.002224554e-11
-2.330000000e-02	2.321575856e-01	-1.168610688e-04	5.406388304e-12
-2.340000000e-02	2.321575776e-01	-1.145047985e-04	4.178055775e-11
-2.350000000e-02	2.321575695e-01	-1.121485287e-04	3.101180370e-11
-2.360000000e-02	2.321575614e-01	-1.097922593e-04	1.477128443e-11
-2.370000000e-02	2.321575532e-01	-1.074359905e-04	9.155561205e-12
-2.380000000e-02	2.321575449e-01	-1.050797222e-04	8.119814982e-12
-2.390000000e-02	2.321575365e-01	-1.027234544e-04	6.764096976e-12
-2.400000000e-02	2.321575281e-01	-1.003671870e-04	8.537218352e-12
-2.410000000e-02	2.321575195e-01	-9.801092022e-05	1.595248488e-11
-2.420000000e-02	2.321575110e-01	-9.565465392e-05	2.089068488e-11
-2.430000000e-02	2.321575023e-01	-9.329838812e-05	1.190366810e-11
-2.440000000e-02	2.321574936e-01	-9.094212285e-05	9.072386718e-12
-2.450000000e-02	2.321574848e-01	-8.858585809e-05	6.497386777e-12
-2.460000000e-02	2.321574759e-01	-8.622959386e-05	1.753760068e-11
-2.470000000e-02	2.321574670e-01	-8.387333016e-05	1.646384544e-11
-2.480000000e-02	2.321574580e-01	-8.151706700e-05	6.933849129e-12
-2.490000000e-02	2.321574489e-01	-7.916080437e-05	3.710703886e-11
-2.500000000e-02	2.321574397e-01	-7.680454227e-05	8.822236399e-12
-2.510000000e-02	2.321574305e-01	-7.444828073e-05	1.589273236e-11
-2.520000000e-02	2.321574212e-01	-7.209201972e-05	1.028933346e-11
-2.530000000e-02	2.321574118e-01	-6.973575927e-05	2.242740561e-11
-2.540000000e-02	2.321574024e-01	-6.737949938e-05	2.470257526e-11
-2.550000000e-02	2.321573929e-01	-6.502324004e-05	7.095117753e-12
-2.560000000e-02	2.321573833e-01	-6.266698126e-05	1.103593317e-11
-2.570000000e-02	2.321573736e-01	-6.031072305e-05	1.541307633e-11
-2.580000000e-02	2.321573639e-01	-5.795446540e-05	3.008126967e-11
-2.590000000e-02	2.321573541e-01	-5.559820833e-05	1.181345572e-11
-2.600000000e-02	2.321573442e-01	-5.324195184e-05	4.206994112e-12
-2.610000000e-02	2.321573343e-01	-5.088569592e-05	5.042153182e-12
-2.620000000e-02	2.321573243e-01	-4.852944059e-05	7.807964201e-12
-2.630000000e-02	2.321573142e-01	-4.617318585e-05	1.681054832e-11
-2.640000000e-02	2.321573040e-01	-4.381693169e-05	5.885329902e-12
-2.650000000e-02	2.321572938e-01	-4.146067813e-05	9.724683639e-12
-2.660000000e-02	2.321572835e-01	-3.910442517e-05	3.045362940e-11
-2.670000000e-02	2.321572731e-01	-3.674817281e-05	7.115110399e-12
-2.680000000e-02	2.321572627e-01	-3.439192105e-05	7.463395977e-12
-2.690000000e-02	2.321572522e-01	-3.203566990e-05	2.353774612e-11
-2.700000000e-02	2.321572416e-01	-2.967941937e-05	8.538622539e-12
-2.710000000e-02	2.321572309e-01	-2.732316945e-05	7.487848669e-12
-2.720000000e-02	2.321572202e-01	-2.496692015e-05	9.058065170e-12
-2.730000000e-02	2.321572094e-01	-2.261067147e-05	9.984311160e-12
-2.740000000e-02	2.321571985e-01	-2.025442343e-05	1.771966210e-11
-2.750000000e-02	2.321571876e-01	-1.789817601e-05	1.420798778e-11
-2.760000000e-02	2.321571765e-01	-1.554192922e-05	2.862889019e-11
-2.770000000e-02	2.321571654e-01	-1.318568308e-05	5.070142959e-12
-2.780000000e-02	2.321571543e-01	-1.082943757e-05	2.492831464e-11
-2.790000000e-02	2.321571430e-01	-8.473192711e-06	9.083157323e-12
-2.800000000e-02	2.321571317e-01	-6.116948500e-06	1.460923021e-11
-2.810000000e-02	2.321571204e-01	-3.760704941e-06	1.311682149e-11
-2.820000000e-02	2.321571089e-01	-1.404462038e-06	7.882475785e-12
-2.830000000e-02	2.321570974e-01	9.517802052e-07	6.602240140e-12
-2.840000000e-02	2.321570858e-01	3.308021785e-06	1.230099196e-11
-2.850000000e-02	2.321570741e-01	5.664262698e-06	4.437860078e-12
-2.860000000e-02	2.321570624e-01	8.020502940e-06	4.166687434e-11
-2.870000000e-02	2.321570506e-01	1.037674251e-05	1.343368240e-11
-2.880000000e-02	2.321570387e-01	1.273298140e-05	6.648674906e-12
-2.890000000e-02	2.321570268e-01	1.508921961e-05	7.963200601e-12
-2.900000000e-02	2.321570147e-01	1.744545713e-05	2.267793207e-11
-2.910000000e-02	2.321570026e-01	1.980169397e-05	2.545341521e-11
-2.920000000e-02	2.321569905e-01	2.215793011e-05	1.717543088e-11
-2.930000000e-02	2.321569782e-01	2.451416556e-05	5.040076636e-11
-2.940000000e-02	2.321569659e-01	2.687040031e-05	1.614717358e-11
-2.950000000e-02	2.321569535e-01	2.922663435e-05	9.196874249e-12
-2.960000000e-02	2.321569411e-01	3.158286769e-05	1.124445460e-11
-2.970000000e-02	2.321569286e-01	3.393910031e-05	8.063125670e-12
-2.980000000e-02	2.321569160e-01	3.629533223e-05	1.235533602e-11
-2.990000000e-02	2.321569033e-01	3.865156342e-05	2.489506898e-11
-3.000000000e-02	2.321568906e-01	4.100779389e-05	6.964279039e-12
