# Im(epsi1)     Re(omega/c)      Im(omega/c)      Eq(det).Opt det CON kz, R=0.5 \mum, mu_c=0.3, Re(epsi1)=3.90solve_det_conkz_vs_kz.py
0.000000000e+00	2.321428559e-01	-6.658232595e-04	9.447639321e-11
-1.000000000e-04	2.321428646e-01	-6.634670808e-04	1.941480351e-11
-2.000000000e-04	2.321428732e-01	-6.611109017e-04	1.236771246e-10
-3.000000000e-04	2.321428817e-01	-6.587547223e-04	1.169053405e-11
-4.000000000e-04	2.321428902e-01	-6.563985425e-04	1.526265482e-11
-5.000000000e-04	2.321428986e-01	-6.540423623e-04	1.772508619e-11
-6.000000000e-04	2.321429070e-01	-6.516861819e-04	1.202411629e-11
-7.000000000e-04	2.321429152e-01	-6.493300010e-04	1.427992898e-11
-8.000000000e-04	2.321429234e-01	-6.469738199e-04	1.686821367e-11
-9.000000000e-04	2.321429316e-01	-6.446176384e-04	3.141506988e-11
-1.000000000e-03	2.321429396e-01	-6.422614565e-04	8.122258135e-12
-1.100000000e-03	2.321429476e-01	-6.399052744e-04	9.926342394e-12
-1.200000000e-03	2.321429555e-01	-6.375490919e-04	1.582642450e-11
-1.300000000e-03	2.321429634e-01	-6.351929091e-04	1.749335098e-11
-1.400000000e-03	2.321429711e-01	-6.328367259e-04	5.757323971e-12
-1.500000000e-03	2.321429788e-01	-6.304805425e-04	1.857979582e-11
-1.600000000e-03	2.321429864e-01	-6.281243587e-04	6.929341143e-12
-1.700000000e-03	2.321429940e-01	-6.257681747e-04	1.491680814e-11
-1.800000000e-03	2.321430015e-01	-6.234119903e-04	9.150123316e-12
-1.900000000e-03	2.321430089e-01	-6.210558056e-04	1.119681806e-11
-2.000000000e-03	2.321430162e-01	-6.186996207e-04	2.376662948e-11
-2.100000000e-03	2.321430235e-01	-6.163434354e-04	9.323616034e-12
-2.200000000e-03	2.321430307e-01	-6.139872499e-04	1.413077265e-11
-2.300000000e-03	2.321430378e-01	-6.116310640e-04	1.336284593e-11
-2.400000000e-03	2.321430449e-01	-6.092748779e-04	1.359599277e-11
-2.500000000e-03	2.321430518e-01	-6.069186915e-04	2.386365331e-11
-2.600000000e-03	2.321430587e-01	-6.045625049e-04	2.317332346e-11
-2.700000000e-03	2.321430656e-01	-6.022063179e-04	1.349984768e-11
-2.800000000e-03	2.321430723e-01	-5.998501307e-04	2.195674521e-11
-2.900000000e-03	2.321430790e-01	-5.974939432e-04	2.436897808e-11
-3.000000000e-03	2.321430856e-01	-5.951377555e-04	1.678395938e-11
-3.100000000e-03	2.321430922e-01	-5.927815675e-04	2.299577959e-11
-3.200000000e-03	2.321430987e-01	-5.904253793e-04	9.390101974e-12
-3.300000000e-03	2.321431051e-01	-5.880691908e-04	2.419306394e-11
-3.400000000e-03	2.321431114e-01	-5.857130021e-04	2.153155261e-11
-3.500000000e-03	2.321431177e-01	-5.833568131e-04	8.326188090e-12
-3.600000000e-03	2.321431239e-01	-5.810006239e-04	1.051608626e-11
-3.700000000e-03	2.321431300e-01	-5.786444344e-04	1.059477703e-11
-3.800000000e-03	2.321431360e-01	-5.762882448e-04	2.982679413e-11
-3.900000000e-03	2.321431420e-01	-5.739320548e-04	6.906911058e-12
-4.000000000e-03	2.321431479e-01	-5.715758647e-04	1.596286471e-11
-4.100000000e-03	2.321431537e-01	-5.692196744e-04	3.008980845e-10
-4.200000000e-03	2.321431595e-01	-5.668634838e-04	5.765951340e-12
-4.300000000e-03	2.321431652e-01	-5.645072930e-04	2.389567289e-11
-4.400000000e-03	2.321431708e-01	-5.621511020e-04	2.750759439e-10
-4.500000000e-03	2.321431763e-01	-5.597949108e-04	8.149781878e-12
-4.600000000e-03	2.321431818e-01	-5.574387194e-04	2.052029164e-11
-4.700000000e-03	2.321431872e-01	-5.550825278e-04	1.093662505e-11
-4.800000000e-03	2.321431926e-01	-5.527263361e-04	6.435240690e-12
-4.900000000e-03	2.321431978e-01	-5.503701441e-04	7.039597923e-12
-5.000000000e-03	2.321432030e-01	-5.480139519e-04	1.037578706e-10
-5.100000000e-03	2.321432081e-01	-5.456577596e-04	6.428525740e-12
-5.200000000e-03	2.321432132e-01	-5.433015670e-04	1.397874179e-11
-5.300000000e-03	2.321432181e-01	-5.409453743e-04	3.660922062e-11
-5.400000000e-03	2.321432230e-01	-5.385891814e-04	6.389158590e-11
-5.500000000e-03	2.321432278e-01	-5.362329884e-04	8.260398148e-12
-5.600000000e-03	2.321432326e-01	-5.338767952e-04	2.087212353e-11
-5.700000000e-03	2.321432373e-01	-5.315206018e-04	3.209810287e-11
-5.800000000e-03	2.321432419e-01	-5.291644083e-04	1.145448365e-11
-5.900000000e-03	2.321432464e-01	-5.268082146e-04	7.295876624e-12
-6.000000000e-03	2.321432509e-01	-5.244520207e-04	1.860822477e-11
-6.100000000e-03	2.321432553e-01	-5.220958267e-04	1.406517570e-11
-6.200000000e-03	2.321432596e-01	-5.197396326e-04	7.045359094e-12
-6.300000000e-03	2.321432639e-01	-5.173834383e-04	5.925557456e-12
-6.400000000e-03	2.321432681e-01	-5.150272439e-04	4.625011977e-11
-6.500000000e-03	2.321432722e-01	-5.126710494e-04	1.679612731e-11
-6.600000000e-03	2.321432762e-01	-5.103148547e-04	9.956313514e-12
-6.700000000e-03	2.321432802e-01	-5.079586599e-04	7.559358047e-12
-6.800000000e-03	2.321432841e-01	-5.056024650e-04	1.125180676e-11
-6.900000000e-03	2.321432879e-01	-5.032462700e-04	8.756072954e-12
-7.000000000e-03	2.321432917e-01	-5.008900748e-04	1.534483558e-11
-7.100000000e-03	2.321432953e-01	-4.985338796e-04	1.617153233e-11
-7.200000000e-03	2.321432989e-01	-4.961776842e-04	1.306480540e-11
-7.300000000e-03	2.321433025e-01	-4.938214887e-04	9.292156879e-12
-7.400000000e-03	2.321433059e-01	-4.914652931e-04	1.087401581e-11
-7.500000000e-03	2.321433093e-01	-4.891090975e-04	1.143957679e-11
-7.600000000e-03	2.321433127e-01	-4.867529017e-04	1.301705978e-11
-7.700000000e-03	2.321433159e-01	-4.843967059e-04	9.376015104e-12
-7.800000000e-03	2.321433191e-01	-4.820405099e-04	1.633458895e-11
-7.900000000e-03	2.321433222e-01	-4.796843139e-04	2.050349800e-11
-8.000000000e-03	2.321433252e-01	-4.773281178e-04	5.343643868e-12
-8.100000000e-03	2.321433282e-01	-4.749719216e-04	8.624221219e-12
-8.200000000e-03	2.321433311e-01	-4.726157254e-04	1.668431408e-11
-8.300000000e-03	2.321433339e-01	-4.702595291e-04	1.034801756e-11
-8.400000000e-03	2.321433367e-01	-4.679033327e-04	1.570822729e-11
-8.500000000e-03	2.321433393e-01	-4.655471363e-04	3.074546231e-11
-8.600000000e-03	2.321433419e-01	-4.631909398e-04	1.749366178e-10
-8.700000000e-03	2.321433445e-01	-4.608347432e-04	1.573049866e-11
-8.800000000e-03	2.321433469e-01	-4.584785466e-04	7.251392128e-12
-8.900000000e-03	2.321433493e-01	-4.561223500e-04	1.271519648e-11
-9.000000000e-03	2.321433516e-01	-4.537661533e-04	8.677273942e-12
-9.100000000e-03	2.321433539e-01	-4.514099566e-04	1.352743889e-11
-9.200000000e-03	2.321433561e-01	-4.490537598e-04	1.672619018e-11
-9.300000000e-03	2.321433582e-01	-4.466975630e-04	9.749699786e-12
-9.400000000e-03	2.321433602e-01	-4.443413662e-04	1.386280928e-11
-9.500000000e-03	2.321433621e-01	-4.419851694e-04	1.021108417e-11
-9.600000000e-03	2.321433640e-01	-4.396289725e-04	8.327721167e-12
-9.700000000e-03	2.321433659e-01	-4.372727757e-04	1.400128703e-11
-9.800000000e-03	2.321433676e-01	-4.349165788e-04	2.216573515e-11
-9.900000000e-03	2.321433693e-01	-4.325603819e-04	2.672425063e-11
-1.000000000e-02	2.321433709e-01	-4.302041850e-04	1.182427836e-11
-1.010000000e-02	2.321433724e-01	-4.278479881e-04	9.283439362e-12
-1.020000000e-02	2.321433739e-01	-4.254917912e-04	1.440180245e-11
-1.030000000e-02	2.321433752e-01	-4.231355943e-04	1.575297469e-11
-1.040000000e-02	2.321433766e-01	-4.207793974e-04	1.066390274e-11
-1.050000000e-02	2.321433778e-01	-4.184232005e-04	1.207238370e-11
-1.060000000e-02	2.321433790e-01	-4.160670037e-04	1.002912980e-11
-1.070000000e-02	2.321433801e-01	-4.137108068e-04	1.563055951e-11
-1.080000000e-02	2.321433811e-01	-4.113546100e-04	1.157673516e-11
-1.090000000e-02	2.321433820e-01	-4.089984132e-04	1.536377123e-11
-1.100000000e-02	2.321433829e-01	-4.066422165e-04	1.179331432e-11
-1.110000000e-02	2.321433837e-01	-4.042860197e-04	1.111245477e-11
-1.120000000e-02	2.321433845e-01	-4.019298231e-04	9.708690508e-12
-1.130000000e-02	2.321433851e-01	-3.995736264e-04	9.487946992e-12
-1.140000000e-02	2.321433857e-01	-3.972174298e-04	2.784654693e-11
-1.150000000e-02	2.321433863e-01	-3.948612333e-04	1.112434501e-11
-1.160000000e-02	2.321433867e-01	-3.925050368e-04	7.830412505e-12
-1.170000000e-02	2.321433871e-01	-3.901488403e-04	1.487754870e-11
-1.180000000e-02	2.321433874e-01	-3.877926440e-04	1.469605580e-11
-1.190000000e-02	2.321433877e-01	-3.854364476e-04	7.757647735e-12
-1.200000000e-02	2.321433878e-01	-3.830802514e-04	1.251161733e-11
-1.210000000e-02	2.321433879e-01	-3.807240552e-04	9.290471124e-12
-1.220000000e-02	2.321433879e-01	-3.783678591e-04	4.401132041e-11
-1.230000000e-02	2.321433879e-01	-3.760116631e-04	1.383580864e-11
-1.240000000e-02	2.321433878e-01	-3.736554671e-04	9.242028067e-12
-1.250000000e-02	2.321433876e-01	-3.712992713e-04	1.686340662e-11
-1.260000000e-02	2.321433873e-01	-3.689430755e-04	7.449348471e-11
-1.270000000e-02	2.321433870e-01	-3.665868798e-04	2.519232588e-11
-1.280000000e-02	2.321433866e-01	-3.642306843e-04	2.498661963e-11
-1.290000000e-02	2.321433861e-01	-3.618744888e-04	9.399354235e-12
-1.300000000e-02	2.321433855e-01	-3.595182934e-04	1.129625796e-11
-1.310000000e-02	2.321433849e-01	-3.571620981e-04	8.967273551e-12
-1.320000000e-02	2.321433842e-01	-3.548059030e-04	2.633498757e-11
-1.330000000e-02	2.321433835e-01	-3.524497079e-04	8.300692900e-12
-1.340000000e-02	2.321433826e-01	-3.500935130e-04	1.254517397e-11
-1.350000000e-02	2.321433817e-01	-3.477373182e-04	1.286865463e-11
-1.360000000e-02	2.321433807e-01	-3.453811235e-04	1.934475259e-11
-1.370000000e-02	2.321433797e-01	-3.430249289e-04	1.116381129e-11
-1.380000000e-02	2.321433786e-01	-3.406687345e-04	1.503817999e-11
-1.390000000e-02	2.321433774e-01	-3.383125402e-04	1.272316687e-11
-1.400000000e-02	2.321433761e-01	-3.359563461e-04	1.602584557e-11
-1.410000000e-02	2.321433748e-01	-3.336001521e-04	2.493901117e-11
-1.420000000e-02	2.321433733e-01	-3.312439582e-04	2.683929378e-11
-1.430000000e-02	2.321433719e-01	-3.288877645e-04	4.251577507e-12
-1.440000000e-02	2.321433703e-01	-3.265315710e-04	1.534276648e-11
-1.450000000e-02	2.321433687e-01	-3.241753776e-04	9.518606767e-12
-1.460000000e-02	2.321433670e-01	-3.218191844e-04	1.349956201e-11
-1.470000000e-02	2.321433652e-01	-3.194629913e-04	5.239814885e-11
-1.480000000e-02	2.321433634e-01	-3.171067984e-04	1.053186515e-11
-1.490000000e-02	2.321433615e-01	-3.147506057e-04	1.164137575e-11
-1.500000000e-02	2.321433595e-01	-3.123944131e-04	7.974520388e-12
-1.510000000e-02	2.321433574e-01	-3.100382208e-04	1.793661958e-11
-1.520000000e-02	2.321433553e-01	-3.076820286e-04	3.693993616e-11
-1.530000000e-02	2.321433531e-01	-3.053258366e-04	1.931510992e-11
-1.540000000e-02	2.321433508e-01	-3.029696448e-04	3.926971879e-11
-1.550000000e-02	2.321433485e-01	-3.006134532e-04	1.101815448e-11
-1.560000000e-02	2.321433461e-01	-2.982572618e-04	1.173037281e-11
-1.570000000e-02	2.321433436e-01	-2.959010706e-04	1.529818427e-11
-1.580000000e-02	2.321433410e-01	-2.935448796e-04	1.608630263e-11
-1.590000000e-02	2.321433384e-01	-2.911886888e-04	4.530114751e-11
-1.600000000e-02	2.321433357e-01	-2.888324982e-04	1.023365836e-11
-1.610000000e-02	2.321433329e-01	-2.864763078e-04	1.039120339e-11
-1.620000000e-02	2.321433301e-01	-2.841201177e-04	1.103717466e-11
-1.630000000e-02	2.321433271e-01	-2.817639277e-04	9.117803866e-12
-1.640000000e-02	2.321433242e-01	-2.794077380e-04	1.379887699e-11
-1.650000000e-02	2.321433211e-01	-2.770515486e-04	2.085846832e-11
-1.660000000e-02	2.321433180e-01	-2.746953593e-04	1.037833050e-11
-1.670000000e-02	2.321433148e-01	-2.723391703e-04	1.283888297e-11
-1.680000000e-02	2.321433115e-01	-2.699829816e-04	2.438955787e-11
-1.690000000e-02	2.321433081e-01	-2.676267931e-04	2.342404424e-11
-1.700000000e-02	2.321433047e-01	-2.652706048e-04	1.693653878e-11
-1.710000000e-02	2.321433012e-01	-2.629144168e-04	6.186078890e-12
-1.720000000e-02	2.321432977e-01	-2.605582291e-04	7.640400792e-11
-1.730000000e-02	2.321432940e-01	-2.582020416e-04	1.210430009e-11
-1.740000000e-02	2.321432903e-01	-2.558458543e-04	1.358040855e-11
-1.750000000e-02	2.321432865e-01	-2.534896674e-04	2.069747386e-11
-1.760000000e-02	2.321432827e-01	-2.511334807e-04	4.205943211e-11
-1.770000000e-02	2.321432788e-01	-2.487772943e-04	4.994824350e-11
-1.780000000e-02	2.321432748e-01	-2.464211081e-04	6.015627370e-12
-1.790000000e-02	2.321432707e-01	-2.440649223e-04	1.519961645e-11
-1.800000000e-02	2.321432666e-01	-2.417087367e-04	3.179754581e-11
-1.810000000e-02	2.321432624e-01	-2.393525514e-04	1.516053440e-11
-1.820000000e-02	2.321432581e-01	-2.369963664e-04	6.517367508e-12
-1.830000000e-02	2.321432537e-01	-2.346401818e-04	1.612991222e-11
-1.840000000e-02	2.321432493e-01	-2.322839974e-04	1.379819217e-11
-1.850000000e-02	2.321432448e-01	-2.299278133e-04	2.176779373e-11
-1.860000000e-02	2.321432403e-01	-2.275716295e-04	1.030672761e-11
-1.870000000e-02	2.321432356e-01	-2.252154460e-04	1.449590852e-11
-1.880000000e-02	2.321432309e-01	-2.228592629e-04	1.134743946e-11
-1.890000000e-02	2.321432261e-01	-2.205030800e-04	3.009233729e-11
-1.900000000e-02	2.321432213e-01	-2.181468975e-04	2.670034164e-11
-1.910000000e-02	2.321432164e-01	-2.157907153e-04	9.938080114e-12
-1.920000000e-02	2.321432114e-01	-2.134345334e-04	1.541859153e-11
-1.930000000e-02	2.321432063e-01	-2.110783519e-04	2.816611208e-11
-1.940000000e-02	2.321432011e-01	-2.087221707e-04	1.093163887e-11
-1.950000000e-02	2.321431959e-01	-2.063659899e-04	1.970520649e-11
-1.960000000e-02	2.321431907e-01	-2.040098094e-04	8.522524548e-12
-1.970000000e-02	2.321431853e-01	-2.016536292e-04	1.210522366e-11
-1.980000000e-02	2.321431799e-01	-1.992974494e-04	1.351944655e-11
-1.990000000e-02	2.321431744e-01	-1.969412699e-04	2.494899848e-11
-2.000000000e-02	2.321431688e-01	-1.945850908e-04	4.046157796e-11
-2.010000000e-02	2.321431632e-01	-1.922289121e-04	1.766720800e-11
-2.020000000e-02	2.321431574e-01	-1.898727337e-04	1.549267188e-11
-2.030000000e-02	2.321431517e-01	-1.875165557e-04	9.675228218e-12
-2.040000000e-02	2.321431458e-01	-1.851603781e-04	4.859877081e-11
-2.050000000e-02	2.321431399e-01	-1.828042008e-04	9.613881511e-12
-2.060000000e-02	2.321431339e-01	-1.804480239e-04	7.293760513e-12
-2.070000000e-02	2.321431278e-01	-1.780918474e-04	5.038255057e-11
-2.080000000e-02	2.321431217e-01	-1.757356713e-04	3.831753003e-11
-2.090000000e-02	2.321431154e-01	-1.733794956e-04	9.850620333e-12
-2.100000000e-02	2.321431092e-01	-1.710233203e-04	2.450550800e-11
-2.110000000e-02	2.321431028e-01	-1.686671453e-04	7.476731862e-11
-2.120000000e-02	2.321430964e-01	-1.663109708e-04	1.386181549e-11
-2.130000000e-02	2.321430899e-01	-1.639547967e-04	1.150864415e-11
-2.140000000e-02	2.321430833e-01	-1.615986230e-04	7.857893306e-11
-2.150000000e-02	2.321430766e-01	-1.592424497e-04	2.188272890e-11
-2.160000000e-02	2.321430699e-01	-1.568862768e-04	1.192217622e-11
-2.170000000e-02	2.321430631e-01	-1.545301044e-04	1.274459453e-11
-2.180000000e-02	2.321430563e-01	-1.521739323e-04	3.931894521e-12
-2.190000000e-02	2.321430493e-01	-1.498177607e-04	7.462163557e-12
-2.200000000e-02	2.321430423e-01	-1.474615895e-04	1.838494146e-11
-2.210000000e-02	2.321430353e-01	-1.451054188e-04	8.430592300e-12
-2.220000000e-02	2.321430281e-01	-1.427492485e-04	6.538606709e-11
-2.230000000e-02	2.321430209e-01	-1.403930786e-04	1.076043535e-11
-2.240000000e-02	2.321430136e-01	-1.380369092e-04	1.943447965e-11
-2.250000000e-02	2.321430062e-01	-1.356807402e-04	1.781365068e-11
-2.260000000e-02	2.321429988e-01	-1.333245717e-04	1.015032282e-11
-2.270000000e-02	2.321429913e-01	-1.309684036e-04	1.498477836e-11
-2.280000000e-02	2.321429837e-01	-1.286122360e-04	1.377460363e-11
-2.290000000e-02	2.321429761e-01	-1.262560689e-04	9.180335711e-12
-2.300000000e-02	2.321429684e-01	-1.238999022e-04	3.535500062e-11
-2.310000000e-02	2.321429606e-01	-1.215437360e-04	2.006207665e-11
-2.320000000e-02	2.321429527e-01	-1.191875703e-04	4.582659561e-11
-2.330000000e-02	2.321429448e-01	-1.168314050e-04	2.016294008e-11
-2.340000000e-02	2.321429368e-01	-1.144752403e-04	1.061596499e-11
-2.350000000e-02	2.321429287e-01	-1.121190760e-04	1.043999155e-11
-2.360000000e-02	2.321429205e-01	-1.097629122e-04	1.208000283e-11
-2.370000000e-02	2.321429123e-01	-1.074067489e-04	2.068465609e-11
-2.380000000e-02	2.321429040e-01	-1.050505861e-04	4.696711355e-11
-2.390000000e-02	2.321428956e-01	-1.026944238e-04	1.029881203e-11
-2.400000000e-02	2.321428872e-01	-1.003382620e-04	1.214259180e-11
-2.410000000e-02	2.321428787e-01	-9.798210067e-05	5.543287933e-11
-2.420000000e-02	2.321428701e-01	-9.562593989e-05	2.021773051e-11
-2.430000000e-02	2.321428615e-01	-9.326977961e-05	1.101000077e-11
-2.440000000e-02	2.321428527e-01	-9.091361986e-05	1.540454854e-11
-2.450000000e-02	2.321428439e-01	-8.855746063e-05	2.534855472e-11
-2.460000000e-02	2.321428351e-01	-8.620130193e-05	1.114703687e-10
-2.470000000e-02	2.321428261e-01	-8.384514374e-05	1.711529841e-11
-2.480000000e-02	2.321428171e-01	-8.148898610e-05	1.311021248e-11
-2.490000000e-02	2.321428080e-01	-7.913282899e-05	1.226870005e-11
-2.500000000e-02	2.321427989e-01	-7.677667242e-05	1.134019783e-11
-2.510000000e-02	2.321427896e-01	-7.442051639e-05	4.707235016e-12
-2.520000000e-02	2.321427803e-01	-7.206436091e-05	2.785549205e-11
-2.530000000e-02	2.321427710e-01	-6.970820598e-05	9.608018715e-11
-2.540000000e-02	2.321427615e-01	-6.735205160e-05	9.221402061e-12
-2.550000000e-02	2.321427520e-01	-6.499589779e-05	1.747111981e-11
-2.560000000e-02	2.321427424e-01	-6.263974453e-05	9.822760290e-12
-2.570000000e-02	2.321427328e-01	-6.028359184e-05	6.306924028e-11
-2.580000000e-02	2.321427230e-01	-5.792743972e-05	6.697878059e-12
-2.590000000e-02	2.321427132e-01	-5.557128817e-05	3.099079558e-11
-2.600000000e-02	2.321427034e-01	-5.321513719e-05	2.751819672e-11
-2.610000000e-02	2.321426934e-01	-5.085898680e-05	3.391205411e-11
-2.620000000e-02	2.321426834e-01	-4.850283699e-05	5.189624848e-12
-2.630000000e-02	2.321426733e-01	-4.614668777e-05	1.318597075e-11
-2.640000000e-02	2.321426632e-01	-4.379053913e-05	3.250951351e-11
-2.650000000e-02	2.321426529e-01	-4.143439110e-05	1.820288627e-11
-2.660000000e-02	2.321426426e-01	-3.907824366e-05	2.405757387e-11
-2.670000000e-02	2.321426323e-01	-3.672209682e-05	1.210332390e-11
-2.680000000e-02	2.321426218e-01	-3.436595058e-05	8.228099887e-12
-2.690000000e-02	2.321426113e-01	-3.200980496e-05	2.215690914e-11
-2.700000000e-02	2.321426007e-01	-2.965365994e-05	1.208863239e-11
-2.710000000e-02	2.321425900e-01	-2.729751555e-05	1.010402264e-11
-2.720000000e-02	2.321425793e-01	-2.494137177e-05	8.249620860e-12
-2.730000000e-02	2.321425685e-01	-2.258522862e-05	2.151411495e-11
-2.740000000e-02	2.321425576e-01	-2.022908609e-05	3.839170529e-11
-2.750000000e-02	2.321425467e-01	-1.787294419e-05	5.593883102e-12
-2.760000000e-02	2.321425357e-01	-1.551680293e-05	1.432568234e-11
-2.770000000e-02	2.321425246e-01	-1.316066231e-05	1.038661438e-11
-2.780000000e-02	2.321425134e-01	-1.080452233e-05	1.436048854e-11
-2.790000000e-02	2.321425022e-01	-8.448382987e-06	1.497001010e-11
-2.800000000e-02	2.321424909e-01	-6.092244298e-06	5.858417769e-12
-2.810000000e-02	2.321424795e-01	-3.736106260e-06	2.303184121e-11
-2.820000000e-02	2.321424680e-01	-1.379968879e-06	2.575403433e-11
-2.830000000e-02	2.321424565e-01	9.761678393e-07	6.901858289e-12
-2.840000000e-02	2.321424449e-01	3.332303897e-06	1.150016138e-11
-2.850000000e-02	2.321424333e-01	5.688439288e-06	3.248687741e-12
-2.860000000e-02	2.321424215e-01	8.044574009e-06	8.738435904e-12
-2.870000000e-02	2.321424097e-01	1.040070806e-05	3.809412995e-11
-2.880000000e-02	2.321423978e-01	1.275684142e-05	2.707536159e-11
-2.890000000e-02	2.321423859e-01	1.511297411e-05	1.216193661e-11
-2.900000000e-02	2.321423739e-01	1.746910611e-05	1.153803035e-11
-2.910000000e-02	2.321423618e-01	1.982523742e-05	9.908436563e-11
-2.920000000e-02	2.321423496e-01	2.218136804e-05	1.728217148e-11
-2.930000000e-02	2.321423374e-01	2.453749797e-05	7.435451781e-12
-2.940000000e-02	2.321423250e-01	2.689362719e-05	1.308450428e-11
-2.950000000e-02	2.321423127e-01	2.924975571e-05	1.751024421e-11
-2.960000000e-02	2.321423002e-01	3.160588353e-05	7.142304488e-12
-2.970000000e-02	2.321422877e-01	3.396201063e-05	1.019641558e-11
-2.980000000e-02	2.321422751e-01	3.631813702e-05	2.682430579e-11
-2.990000000e-02	2.321422624e-01	3.867426270e-05	1.564498117e-11
-3.000000000e-02	2.321422497e-01	4.103038765e-05	1.981017875e-11
