# Im(epsi1)     Re(omega/c)      Im(omega/c)      Eq(det).Opt det CON kz, R=0.5 \mum, mu_c=0.3, Re(epsi1)=3.90solve_det_conkz_vs_kz.py
0.000000000e+00	2.321421853e-01	-6.658207746e-04	1.683638534e-11
-1.000000000e-04	2.321421940e-01	-6.634646007e-04	2.164890741e-11
-2.000000000e-04	2.321422026e-01	-6.611084265e-04	9.047256960e-12
-3.000000000e-04	2.321422112e-01	-6.587522519e-04	1.863534409e-11
-4.000000000e-04	2.321422197e-01	-6.563960769e-04	1.490669901e-11
-5.000000000e-04	2.321422281e-01	-6.540399016e-04	5.554041175e-12
-6.000000000e-04	2.321422364e-01	-6.516837259e-04	2.494140053e-11
-7.000000000e-04	2.321422447e-01	-6.493275500e-04	9.308184880e-12
-8.000000000e-04	2.321422529e-01	-6.469713736e-04	1.357890396e-11
-9.000000000e-04	2.321422610e-01	-6.446151969e-04	3.452994813e-11
-1.000000000e-03	2.321422691e-01	-6.422590199e-04	1.691897066e-11
-1.100000000e-03	2.321422770e-01	-6.399028426e-04	1.594454059e-11
-1.200000000e-03	2.321422850e-01	-6.375466649e-04	1.618231815e-11
-1.300000000e-03	2.321422928e-01	-6.351904870e-04	9.701064740e-12
-1.400000000e-03	2.321423006e-01	-6.328343087e-04	2.179156711e-11
-1.500000000e-03	2.321423083e-01	-6.304781300e-04	6.998594104e-12
-1.600000000e-03	2.321423159e-01	-6.281219511e-04	1.718445942e-11
-1.700000000e-03	2.321423234e-01	-6.257657719e-04	1.697659167e-11
-1.800000000e-03	2.321423309e-01	-6.234095924e-04	9.366075908e-12
-1.900000000e-03	2.321423383e-01	-6.210534125e-04	1.207017498e-11
-2.000000000e-03	2.321423457e-01	-6.186972324e-04	1.125161909e-11
-2.100000000e-03	2.321423529e-01	-6.163410520e-04	1.045932525e-11
-2.200000000e-03	2.321423601e-01	-6.139848712e-04	2.784113307e-10
-2.300000000e-03	2.321423672e-01	-6.116286902e-04	1.509695233e-11
-2.400000000e-03	2.321423743e-01	-6.092725090e-04	1.141359371e-11
-2.500000000e-03	2.321423813e-01	-6.069163274e-04	6.389797246e-12
-2.600000000e-03	2.321423882e-01	-6.045601456e-04	2.497165598e-11
-2.700000000e-03	2.321423950e-01	-6.022039635e-04	1.841613806e-11
-2.800000000e-03	2.321424018e-01	-5.998477811e-04	1.075023089e-11
-2.900000000e-03	2.321424085e-01	-5.974915984e-04	1.249326624e-11
-3.000000000e-03	2.321424151e-01	-5.951354156e-04	4.856084918e-11
-3.100000000e-03	2.321424216e-01	-5.927792324e-04	1.351971372e-11
-3.200000000e-03	2.321424281e-01	-5.904230490e-04	1.213868618e-11
-3.300000000e-03	2.321424345e-01	-5.880668653e-04	3.478277841e-11
-3.400000000e-03	2.321424409e-01	-5.857106814e-04	2.524762043e-11
-3.500000000e-03	2.321424471e-01	-5.833544973e-04	1.964663340e-11
-3.600000000e-03	2.321424533e-01	-5.809983129e-04	1.666890648e-11
-3.700000000e-03	2.321424594e-01	-5.786421283e-04	1.636764985e-11
-3.800000000e-03	2.321424655e-01	-5.762859434e-04	1.442561031e-11
-3.900000000e-03	2.321424714e-01	-5.739297584e-04	2.586592098e-11
-4.000000000e-03	2.321424773e-01	-5.715735731e-04	1.218503791e-11
-4.100000000e-03	2.321424832e-01	-5.692173876e-04	2.080901295e-11
-4.200000000e-03	2.321424889e-01	-5.668612018e-04	3.016400337e-11
-4.300000000e-03	2.321424946e-01	-5.645050159e-04	1.520116283e-11
-4.400000000e-03	2.321425002e-01	-5.621488297e-04	1.817404722e-10
-4.500000000e-03	2.321425058e-01	-5.597926434e-04	3.598993191e-11
-4.600000000e-03	2.321425113e-01	-5.574364568e-04	1.432632440e-11
-4.700000000e-03	2.321425167e-01	-5.550802700e-04	1.486056979e-11
-4.800000000e-03	2.321425220e-01	-5.527240831e-04	1.316514781e-11
-4.900000000e-03	2.321425272e-01	-5.503678959e-04	1.181875053e-11
-5.000000000e-03	2.321425324e-01	-5.480117086e-04	1.096020811e-11
-5.100000000e-03	2.321425375e-01	-5.456555211e-04	5.763430431e-11
-5.200000000e-03	2.321425426e-01	-5.432993334e-04	3.098713152e-11
-5.300000000e-03	2.321425476e-01	-5.409431454e-04	1.135503913e-09
-5.400000000e-03	2.321425525e-01	-5.385869574e-04	1.306612166e-11
-5.500000000e-03	2.321425573e-01	-5.362307692e-04	6.943326332e-12
-5.600000000e-03	2.321425620e-01	-5.338745808e-04	8.555730156e-12
-5.700000000e-03	2.321425667e-01	-5.315183923e-04	4.418894512e-12
-5.800000000e-03	2.321425713e-01	-5.291622036e-04	9.548735993e-12
-5.900000000e-03	2.321425759e-01	-5.268060147e-04	8.307892487e-12
-6.000000000e-03	2.321425803e-01	-5.244498257e-04	8.465187581e-12
-6.100000000e-03	2.321425847e-01	-5.220936366e-04	1.441841621e-11
-6.200000000e-03	2.321425891e-01	-5.197374473e-04	8.608170303e-11
-6.300000000e-03	2.321425933e-01	-5.173812578e-04	5.253693003e-12
-6.400000000e-03	2.321425975e-01	-5.150250683e-04	9.503578132e-12
-6.500000000e-03	2.321426016e-01	-5.126688785e-04	1.739069827e-11
-6.600000000e-03	2.321426057e-01	-5.103126887e-04	4.168535638e-12
-6.700000000e-03	2.321426096e-01	-5.079564987e-04	1.090105108e-11
-6.800000000e-03	2.321426135e-01	-5.056003087e-04	9.475367256e-12
-6.900000000e-03	2.321426173e-01	-5.032441184e-04	1.607266218e-11
-7.000000000e-03	2.321426211e-01	-5.008879281e-04	6.717882327e-11
-7.100000000e-03	2.321426248e-01	-4.985317377e-04	1.770258547e-11
-7.200000000e-03	2.321426284e-01	-4.961755472e-04	8.835184334e-12
-7.300000000e-03	2.321426319e-01	-4.938193565e-04	1.846918289e-11
-7.400000000e-03	2.321426354e-01	-4.914631658e-04	1.174732333e-11
-7.500000000e-03	2.321426388e-01	-4.891069749e-04	1.453582581e-11
-7.600000000e-03	2.321426421e-01	-4.867507840e-04	1.886189209e-11
-7.700000000e-03	2.321426453e-01	-4.843945930e-04	8.907197181e-12
-7.800000000e-03	2.321426485e-01	-4.820384019e-04	1.242534216e-11
-7.900000000e-03	2.321426516e-01	-4.796822107e-04	3.983492220e-11
-8.000000000e-03	2.321426547e-01	-4.773260194e-04	1.025136453e-11
-8.100000000e-03	2.321426576e-01	-4.749698281e-04	1.765403879e-11
-8.200000000e-03	2.321426605e-01	-4.726136367e-04	1.233220049e-11
-8.300000000e-03	2.321426633e-01	-4.702574452e-04	1.128717716e-11
-8.400000000e-03	2.321426661e-01	-4.679012536e-04	8.433512747e-12
-8.500000000e-03	2.321426688e-01	-4.655450620e-04	1.133288470e-11
-8.600000000e-03	2.321426714e-01	-4.631888704e-04	1.191241756e-11
-8.700000000e-03	2.321426739e-01	-4.608326787e-04	2.515615248e-11
-8.800000000e-03	2.321426764e-01	-4.584764869e-04	1.994689883e-11
-8.900000000e-03	2.321426788e-01	-4.561202951e-04	8.618809283e-12
-9.000000000e-03	2.321426811e-01	-4.537641033e-04	9.998611788e-12
-9.100000000e-03	2.321426833e-01	-4.514079114e-04	1.759382836e-11
-9.200000000e-03	2.321426855e-01	-4.490517194e-04	8.552353380e-12
-9.300000000e-03	2.321426876e-01	-4.466955275e-04	1.012399453e-11
-9.400000000e-03	2.321426896e-01	-4.443393355e-04	5.996251850e-12
-9.500000000e-03	2.321426916e-01	-4.419831435e-04	1.354983084e-11
-9.600000000e-03	2.321426935e-01	-4.396269515e-04	4.868720135e-11
-9.700000000e-03	2.321426953e-01	-4.372707594e-04	1.647819370e-11
-9.800000000e-03	2.321426970e-01	-4.349145674e-04	7.883237051e-12
-9.900000000e-03	2.321426987e-01	-4.325583753e-04	2.595077616e-11
-1.000000000e-02	2.321427003e-01	-4.302021833e-04	7.148748275e-11
-1.010000000e-02	2.321427018e-01	-4.278459912e-04	8.949191167e-12
-1.020000000e-02	2.321427033e-01	-4.254897991e-04	2.998782374e-11
-1.030000000e-02	2.321427047e-01	-4.231336070e-04	1.271780389e-11
-1.040000000e-02	2.321427060e-01	-4.207774150e-04	1.503717919e-11
-1.050000000e-02	2.321427072e-01	-4.184212229e-04	1.225862489e-11
-1.060000000e-02	2.321427084e-01	-4.160650309e-04	1.904577745e-11
-1.070000000e-02	2.321427095e-01	-4.137088389e-04	6.255481740e-12
-1.080000000e-02	2.321427105e-01	-4.113526469e-04	1.218857368e-11
-1.090000000e-02	2.321427115e-01	-4.089964550e-04	1.223430570e-11
-1.100000000e-02	2.321427124e-01	-4.066402630e-04	3.542584283e-11
-1.110000000e-02	2.321427132e-01	-4.042840712e-04	2.190808224e-11
-1.120000000e-02	2.321427139e-01	-4.019278793e-04	1.435960937e-11
-1.130000000e-02	2.321427146e-01	-3.995716875e-04	7.171552737e-12
-1.140000000e-02	2.321427152e-01	-3.972154957e-04	2.654520796e-11
-1.150000000e-02	2.321427157e-01	-3.948593040e-04	1.194883027e-11
-1.160000000e-02	2.321427162e-01	-3.925031124e-04	3.851054918e-11
-1.170000000e-02	2.321427165e-01	-3.901469207e-04	5.680128184e-12
-1.180000000e-02	2.321427169e-01	-3.877907292e-04	1.091656814e-11
-1.190000000e-02	2.321427171e-01	-3.854345377e-04	1.324257281e-11
-1.200000000e-02	2.321427173e-01	-3.830783463e-04	1.559122245e-11
-1.210000000e-02	2.321427174e-01	-3.807221549e-04	1.390332262e-11
-1.220000000e-02	2.321427174e-01	-3.783659637e-04	2.216382728e-11
-1.230000000e-02	2.321427173e-01	-3.760097725e-04	3.838579463e-11
-1.240000000e-02	2.321427172e-01	-3.736535814e-04	1.411864912e-11
-1.250000000e-02	2.321427170e-01	-3.712973903e-04	1.160392909e-11
-1.260000000e-02	2.321427167e-01	-3.689411994e-04	1.258477881e-11
-1.270000000e-02	2.321427164e-01	-3.665850086e-04	1.179236877e-11
-1.280000000e-02	2.321427160e-01	-3.642288178e-04	1.134889467e-11
-1.290000000e-02	2.321427155e-01	-3.618726272e-04	2.453849980e-11
-1.300000000e-02	2.321427150e-01	-3.595164366e-04	1.678580860e-11
-1.310000000e-02	2.321427144e-01	-3.571602462e-04	1.883421933e-11
-1.320000000e-02	2.321427137e-01	-3.548040558e-04	2.269753507e-11
-1.330000000e-02	2.321427129e-01	-3.524478656e-04	9.500505499e-12
-1.340000000e-02	2.321427121e-01	-3.500916755e-04	1.469367935e-11
-1.350000000e-02	2.321427111e-01	-3.477354856e-04	1.353545377e-11
-1.360000000e-02	2.321427102e-01	-3.453792957e-04	1.306989432e-11
-1.370000000e-02	2.321427091e-01	-3.430231060e-04	1.446066138e-11
-1.380000000e-02	2.321427080e-01	-3.406669164e-04	1.154835396e-11
-1.390000000e-02	2.321427068e-01	-3.383107269e-04	8.299815792e-12
-1.400000000e-02	2.321427055e-01	-3.359545376e-04	1.472727873e-11
-1.410000000e-02	2.321427042e-01	-3.335983485e-04	9.190487773e-12
-1.420000000e-02	2.321427028e-01	-3.312421594e-04	8.999433066e-12
-1.430000000e-02	2.321427013e-01	-3.288859706e-04	1.555108379e-11
-1.440000000e-02	2.321426997e-01	-3.265297819e-04	5.651853252e-12
-1.450000000e-02	2.321426981e-01	-3.241735933e-04	2.156641919e-11
-1.460000000e-02	2.321426964e-01	-3.218174049e-04	1.354881379e-11
-1.470000000e-02	2.321426946e-01	-3.194612167e-04	8.143025037e-12
-1.480000000e-02	2.321426928e-01	-3.171050286e-04	7.752866679e-12
-1.490000000e-02	2.321426909e-01	-3.147488407e-04	1.166278391e-11
-1.500000000e-02	2.321426889e-01	-3.123926530e-04	1.477638996e-11
-1.510000000e-02	2.321426868e-01	-3.100364655e-04	3.663196796e-11
-1.520000000e-02	2.321426847e-01	-3.076802781e-04	1.207511929e-11
-1.530000000e-02	2.321426825e-01	-3.053240910e-04	3.177458482e-11
-1.540000000e-02	2.321426802e-01	-3.029679040e-04	1.053155496e-11
-1.550000000e-02	2.321426779e-01	-3.006117172e-04	8.720409241e-12
-1.560000000e-02	2.321426755e-01	-2.982555306e-04	2.408110949e-11
-1.570000000e-02	2.321426730e-01	-2.958993442e-04	3.347468292e-11
-1.580000000e-02	2.321426704e-01	-2.935431581e-04	4.913426596e-12
-1.590000000e-02	2.321426678e-01	-2.911869721e-04	7.065233214e-12
-1.600000000e-02	2.321426651e-01	-2.888307863e-04	5.112235619e-12
-1.610000000e-02	2.321426623e-01	-2.864746008e-04	1.540638681e-11
-1.620000000e-02	2.321426595e-01	-2.841184155e-04	1.274852629e-11
-1.630000000e-02	2.321426566e-01	-2.817622304e-04	1.604116512e-11
-1.640000000e-02	2.321426536e-01	-2.794060455e-04	1.376291061e-11
-1.650000000e-02	2.321426505e-01	-2.770498609e-04	2.657819771e-11
-1.660000000e-02	2.321426474e-01	-2.746936765e-04	1.126054624e-11
-1.670000000e-02	2.321426442e-01	-2.723374923e-04	3.315694253e-11
-1.680000000e-02	2.321426409e-01	-2.699813084e-04	1.035736908e-11
-1.690000000e-02	2.321426376e-01	-2.676251247e-04	2.512920911e-11
-1.700000000e-02	2.321426341e-01	-2.652689413e-04	2.350256007e-11
-1.710000000e-02	2.321426307e-01	-2.629127581e-04	6.915884513e-12
-1.720000000e-02	2.321426271e-01	-2.605565752e-04	6.545536643e-12
-1.730000000e-02	2.321426235e-01	-2.582003926e-04	2.091048799e-10
-1.740000000e-02	2.321426198e-01	-2.558442102e-04	9.264857974e-12
-1.750000000e-02	2.321426160e-01	-2.534880280e-04	1.352203417e-11
-1.760000000e-02	2.321426121e-01	-2.511318462e-04	1.040247222e-11
-1.770000000e-02	2.321426082e-01	-2.487756646e-04	9.072200236e-12
-1.780000000e-02	2.321426042e-01	-2.464194833e-04	1.552648833e-11
-1.790000000e-02	2.321426002e-01	-2.440633023e-04	2.146779116e-11
-1.800000000e-02	2.321425960e-01	-2.417071215e-04	7.980690198e-12
-1.810000000e-02	2.321425918e-01	-2.393509411e-04	2.109971523e-11
-1.820000000e-02	2.321425875e-01	-2.369947609e-04	1.410650908e-11
-1.830000000e-02	2.321425832e-01	-2.346385811e-04	1.235605147e-11
-1.840000000e-02	2.321425788e-01	-2.322824015e-04	9.883323420e-12
-1.850000000e-02	2.321425743e-01	-2.299262222e-04	1.428389698e-11
-1.860000000e-02	2.321425697e-01	-2.275700433e-04	7.452472029e-11
-1.870000000e-02	2.321425651e-01	-2.252138647e-04	8.739295738e-12
-1.880000000e-02	2.321425603e-01	-2.228576863e-04	1.500347035e-11
-1.890000000e-02	2.321425556e-01	-2.205015083e-04	1.418393970e-11
-1.900000000e-02	2.321425507e-01	-2.181453306e-04	2.584755704e-11
-1.910000000e-02	2.321425458e-01	-2.157891533e-04	3.915080545e-11
-1.920000000e-02	2.321425408e-01	-2.134329762e-04	7.659138908e-12
-1.930000000e-02	2.321425357e-01	-2.110767995e-04	1.829158155e-11
-1.940000000e-02	2.321425306e-01	-2.087206232e-04	2.753540036e-11
-1.950000000e-02	2.321425254e-01	-2.063644472e-04	2.694280592e-11
-1.960000000e-02	2.321425201e-01	-2.040082715e-04	1.325489447e-11
-1.970000000e-02	2.321425147e-01	-2.016520961e-04	4.446734185e-11
-1.980000000e-02	2.321425093e-01	-1.992959212e-04	1.075125892e-11
-1.990000000e-02	2.321425038e-01	-1.969397465e-04	3.770879286e-12
-2.000000000e-02	2.321424982e-01	-1.945835723e-04	1.341884424e-11
-2.010000000e-02	2.321424926e-01	-1.922273984e-04	1.888384231e-11
-2.020000000e-02	2.321424869e-01	-1.898712248e-04	1.780770563e-11
-2.030000000e-02	2.321424811e-01	-1.875150516e-04	1.148560684e-10
-2.040000000e-02	2.321424752e-01	-1.851588788e-04	1.924857344e-11
-2.050000000e-02	2.321424693e-01	-1.828027064e-04	8.747936990e-12
-2.060000000e-02	2.321424633e-01	-1.804465344e-04	2.136632481e-11
-2.070000000e-02	2.321424572e-01	-1.780903627e-04	1.702356708e-11
-2.080000000e-02	2.321424511e-01	-1.757341914e-04	1.225690465e-11
-2.090000000e-02	2.321424449e-01	-1.733780205e-04	9.258029749e-12
-2.100000000e-02	2.321424386e-01	-1.710218500e-04	8.111134557e-12
-2.110000000e-02	2.321424322e-01	-1.686656800e-04	9.490266683e-12
-2.120000000e-02	2.321424258e-01	-1.663095103e-04	3.655725930e-12
-2.130000000e-02	2.321424193e-01	-1.639533410e-04	1.651987326e-10
-2.140000000e-02	2.321424127e-01	-1.615971721e-04	9.037585144e-12
-2.150000000e-02	2.321424061e-01	-1.592410036e-04	9.076858036e-12
-2.160000000e-02	2.321423994e-01	-1.568848356e-04	6.826898788e-11
-2.170000000e-02	2.321423926e-01	-1.545286680e-04	1.006364700e-11
-2.180000000e-02	2.321423857e-01	-1.521725008e-04	1.403831785e-11
-2.190000000e-02	2.321423788e-01	-1.498163340e-04	1.357590526e-11
-2.200000000e-02	2.321423718e-01	-1.474601676e-04	7.217122710e-12
-2.210000000e-02	2.321423647e-01	-1.451040017e-04	2.188738657e-11
-2.220000000e-02	2.321423576e-01	-1.427478362e-04	1.153172395e-11
-2.230000000e-02	2.321423503e-01	-1.403916712e-04	9.180961654e-12
-2.240000000e-02	2.321423430e-01	-1.380355066e-04	1.920890324e-11
-2.250000000e-02	2.321423357e-01	-1.356793425e-04	3.408475001e-11
-2.260000000e-02	2.321423282e-01	-1.333231788e-04	1.834014769e-10
-2.270000000e-02	2.321423207e-01	-1.309670156e-04	1.388731025e-11
-2.280000000e-02	2.321423132e-01	-1.286108528e-04	7.299760501e-12
-2.290000000e-02	2.321423055e-01	-1.262546905e-04	1.035441353e-11
-2.300000000e-02	2.321422978e-01	-1.238985286e-04	1.421376088e-11
-2.310000000e-02	2.321422900e-01	-1.215423673e-04	9.833729275e-12
-2.320000000e-02	2.321422821e-01	-1.191862064e-04	2.006125701e-11
-2.330000000e-02	2.321422742e-01	-1.168300459e-04	1.239691919e-11
-2.340000000e-02	2.321422662e-01	-1.144738860e-04	1.607764625e-11
-2.350000000e-02	2.321422581e-01	-1.121177266e-04	1.434479522e-11
-2.360000000e-02	2.321422500e-01	-1.097615676e-04	2.883320897e-11
-2.370000000e-02	2.321422417e-01	-1.074054091e-04	8.374141710e-12
-2.380000000e-02	2.321422334e-01	-1.050492511e-04	8.298462549e-12
-2.390000000e-02	2.321422251e-01	-1.026930937e-04	7.673077150e-12
-2.400000000e-02	2.321422166e-01	-1.003369367e-04	9.249056459e-12
-2.410000000e-02	2.321422081e-01	-9.798078023e-05	1.338577276e-11
-2.420000000e-02	2.321421995e-01	-9.562462428e-05	1.066086871e-11
-2.430000000e-02	2.321421909e-01	-9.326846884e-05	7.503119065e-11
-2.440000000e-02	2.321421822e-01	-9.091231392e-05	1.649872618e-11
-2.450000000e-02	2.321421734e-01	-8.855615952e-05	1.674527347e-11
-2.460000000e-02	2.321421645e-01	-8.620000564e-05	9.654104961e-11
-2.470000000e-02	2.321421556e-01	-8.384385230e-05	2.711422399e-11
-2.480000000e-02	2.321421465e-01	-8.148769948e-05	1.113646814e-11
-2.490000000e-02	2.321421375e-01	-7.913154720e-05	1.034615410e-10
-2.500000000e-02	2.321421283e-01	-7.677539547e-05	3.948306331e-12
-2.510000000e-02	2.321421191e-01	-7.441924427e-05	7.536434018e-12
-2.520000000e-02	2.321421098e-01	-7.206309362e-05	1.560515178e-11
-2.530000000e-02	2.321421004e-01	-6.970694353e-05	1.346427749e-11
-2.540000000e-02	2.321420910e-01	-6.735079398e-05	9.821234842e-12
-2.550000000e-02	2.321420814e-01	-6.499464500e-05	7.817447445e-12
-2.560000000e-02	2.321420719e-01	-6.263849657e-05	7.864065927e-12
-2.570000000e-02	2.321420622e-01	-6.028234871e-05	1.320724245e-11
-2.580000000e-02	2.321420525e-01	-5.792620142e-05	9.831033616e-12
-2.590000000e-02	2.321420427e-01	-5.557005471e-05	7.651339275e-12
-2.600000000e-02	2.321420328e-01	-5.321390857e-05	1.339768971e-11
-2.610000000e-02	2.321420229e-01	-5.085776300e-05	9.273318121e-12
-2.620000000e-02	2.321420128e-01	-4.850161803e-05	1.152320412e-11
-2.630000000e-02	2.321420028e-01	-4.614547363e-05	1.243380585e-11
-2.640000000e-02	2.321419926e-01	-4.378932984e-05	1.628360844e-11
-2.650000000e-02	2.321419824e-01	-4.143318663e-05	8.439105766e-12
-2.660000000e-02	2.321419721e-01	-3.907704402e-05	1.953925576e-11
-2.670000000e-02	2.321419617e-01	-3.672090201e-05	1.834138071e-11
-2.680000000e-02	2.321419512e-01	-3.436476061e-05	1.228039137e-11
-2.690000000e-02	2.321419407e-01	-3.200861981e-05	3.201960073e-11
-2.700000000e-02	2.321419301e-01	-2.965247963e-05	1.006969167e-11
-2.710000000e-02	2.321419195e-01	-2.729634007e-05	1.945162210e-11
-2.720000000e-02	2.321419087e-01	-2.494020112e-05	1.540864211e-11
-2.730000000e-02	2.321418979e-01	-2.258406280e-05	2.591970523e-11
-2.740000000e-02	2.321418871e-01	-2.022792511e-05	1.369393568e-11
-2.750000000e-02	2.321418761e-01	-1.787178805e-05	1.079809187e-11
-2.760000000e-02	2.321418651e-01	-1.551565162e-05	1.391610919e-11
-2.770000000e-02	2.321418540e-01	-1.315951582e-05	3.178278372e-11
-2.780000000e-02	2.321418428e-01	-1.080338067e-05	3.970701358e-12
-2.790000000e-02	2.321418316e-01	-8.447246165e-06	1.364464057e-11
-2.800000000e-02	2.321418203e-01	-6.091112309e-06	9.678899011e-12
-2.810000000e-02	2.321418089e-01	-3.734979103e-06	1.776969448e-11
-2.820000000e-02	2.321417975e-01	-1.378846553e-06	6.705154056e-11
-2.830000000e-02	2.321417859e-01	9.772853333e-07	9.833970661e-12
-2.840000000e-02	2.321417744e-01	3.333416558e-06	1.423698136e-11
-2.850000000e-02	2.321417627e-01	5.689547118e-06	1.872599156e-11
-2.860000000e-02	2.321417510e-01	8.045677006e-06	1.932304566e-11
-2.870000000e-02	2.321417391e-01	1.040180622e-05	1.365164249e-11
-2.880000000e-02	2.321417273e-01	1.275793476e-05	1.667581113e-11
-2.890000000e-02	2.321417153e-01	1.511406261e-05	2.021896345e-11
-2.900000000e-02	2.321417033e-01	1.747018977e-05	6.426709153e-11
-2.910000000e-02	2.321416912e-01	1.982631626e-05	1.431002262e-11
-2.920000000e-02	2.321416790e-01	2.218244205e-05	1.013919207e-11
-2.930000000e-02	2.321416668e-01	2.453856714e-05	1.088472613e-11
-2.940000000e-02	2.321416545e-01	2.689469154e-05	3.466814359e-11
-2.950000000e-02	2.321416421e-01	2.925081522e-05	1.825221194e-11
-2.960000000e-02	2.321416296e-01	3.160693820e-05	1.734359388e-11
-2.970000000e-02	2.321416171e-01	3.396306048e-05	2.648324757e-11
-2.980000000e-02	2.321416045e-01	3.631918203e-05	1.798344156e-11
-2.990000000e-02	2.321415918e-01	3.867530287e-05	5.116474814e-12
-3.000000000e-02	2.321415791e-01	4.103142299e-05	1.026118805e-11
