# Im(epsi1)     Re(omega/c)      Im(omega/c)      Eq(det).Opt det CON kz, R=0.5 \mum, mu_c=0.3, Re(epsi1)=3.90solve_det_conkz_vs_kz.py
0.000000000e+00	2.321464040e-01	-6.658364074e-04	8.905402299e-12
-1.000000000e-04	2.321464127e-01	-6.634802031e-04	2.360233767e-10
-2.000000000e-04	2.321464213e-01	-6.611239985e-04	7.183942694e-12
-3.000000000e-04	2.321464298e-01	-6.587677935e-04	1.632234258e-11
-4.000000000e-04	2.321464383e-01	-6.564115881e-04	1.056723634e-11
-5.000000000e-04	2.321464467e-01	-6.540553824e-04	1.426951738e-11
-6.000000000e-04	2.321464551e-01	-6.516991764e-04	9.669598395e-12
-7.000000000e-04	2.321464633e-01	-6.493429700e-04	7.744372520e-12
-8.000000000e-04	2.321464715e-01	-6.469867632e-04	1.090629462e-11
-9.000000000e-04	2.321464797e-01	-6.446305561e-04	2.352207842e-11
-1.000000000e-03	2.321464877e-01	-6.422743487e-04	6.892047070e-12
-1.100000000e-03	2.321464957e-01	-6.399181410e-04	1.794434397e-11
-1.200000000e-03	2.321465036e-01	-6.375619330e-04	2.654355381e-11
-1.300000000e-03	2.321465115e-01	-6.352057246e-04	9.698268272e-12
-1.400000000e-03	2.321465192e-01	-6.328495159e-04	1.400560039e-11
-1.500000000e-03	2.321465269e-01	-6.304933069e-04	1.026804408e-11
-1.600000000e-03	2.321465346e-01	-6.281370975e-04	3.662816768e-11
-1.700000000e-03	2.321465421e-01	-6.257808879e-04	4.329295487e-11
-1.800000000e-03	2.321465496e-01	-6.234246780e-04	1.410000214e-11
-1.900000000e-03	2.321465570e-01	-6.210684677e-04	1.753709316e-11
-2.000000000e-03	2.321465643e-01	-6.187122572e-04	6.717581897e-12
-2.100000000e-03	2.321465716e-01	-6.163560464e-04	1.307360188e-11
-2.200000000e-03	2.321465788e-01	-6.139998353e-04	2.001966731e-11
-2.300000000e-03	2.321465859e-01	-6.116436239e-04	2.635334640e-11
-2.400000000e-03	2.321465930e-01	-6.092874122e-04	1.180740503e-11
-2.500000000e-03	2.321465999e-01	-6.069312002e-04	3.973673146e-11
-2.600000000e-03	2.321466068e-01	-6.045749880e-04	1.557960648e-11
-2.700000000e-03	2.321466137e-01	-6.022187755e-04	1.616790601e-11
-2.800000000e-03	2.321466204e-01	-5.998625627e-04	9.547269203e-12
-2.900000000e-03	2.321466271e-01	-5.975063497e-04	1.298131602e-11
-3.000000000e-03	2.321466338e-01	-5.951501364e-04	9.844976624e-12
-3.100000000e-03	2.321466403e-01	-5.927939228e-04	8.956874679e-12
-3.200000000e-03	2.321466468e-01	-5.904377090e-04	4.210617450e-12
-3.300000000e-03	2.321466532e-01	-5.880814950e-04	4.553913569e-11
-3.400000000e-03	2.321466595e-01	-5.857252807e-04	8.445065876e-12
-3.500000000e-03	2.321466658e-01	-5.833690661e-04	6.341914608e-12
-3.600000000e-03	2.321466720e-01	-5.810128513e-04	9.084162069e-12
-3.700000000e-03	2.321466781e-01	-5.786566363e-04	5.178905797e-12
-3.800000000e-03	2.321466841e-01	-5.763004211e-04	1.458234070e-11
-3.900000000e-03	2.321466901e-01	-5.739442056e-04	9.735945837e-12
-4.000000000e-03	2.321466960e-01	-5.715879899e-04	1.378299957e-11
-4.100000000e-03	2.321467019e-01	-5.692317740e-04	1.372626363e-11
-4.200000000e-03	2.321467076e-01	-5.668755579e-04	7.732561707e-11
-4.300000000e-03	2.321467133e-01	-5.645193415e-04	1.648059149e-11
-4.400000000e-03	2.321467189e-01	-5.621631250e-04	4.537319343e-12
-4.500000000e-03	2.321467245e-01	-5.598069082e-04	9.823882338e-12
-4.600000000e-03	2.321467299e-01	-5.574506912e-04	1.698975455e-11
-4.700000000e-03	2.321467353e-01	-5.550944741e-04	2.509237994e-11
-4.800000000e-03	2.321467407e-01	-5.527382567e-04	1.322679678e-11
-4.900000000e-03	2.321467459e-01	-5.503820392e-04	1.588624966e-11
-5.000000000e-03	2.321467511e-01	-5.480258214e-04	7.344009166e-12
-5.100000000e-03	2.321467562e-01	-5.456696035e-04	2.442128903e-11
-5.200000000e-03	2.321467613e-01	-5.433133854e-04	1.995985678e-11
-5.300000000e-03	2.321467662e-01	-5.409571671e-04	1.115933738e-11
-5.400000000e-03	2.321467711e-01	-5.386009487e-04	1.116912895e-11
-5.500000000e-03	2.321467760e-01	-5.362447301e-04	8.472731782e-12
-5.600000000e-03	2.321467807e-01	-5.338885113e-04	1.504615777e-11
-5.700000000e-03	2.321467854e-01	-5.315322924e-04	1.352033680e-11
-5.800000000e-03	2.321467900e-01	-5.291760733e-04	2.396213233e-11
-5.900000000e-03	2.321467946e-01	-5.268198540e-04	2.385189011e-11
-6.000000000e-03	2.321467990e-01	-5.244636346e-04	1.454072259e-11
-6.100000000e-03	2.321468034e-01	-5.221074150e-04	1.883032199e-11
-6.200000000e-03	2.321468078e-01	-5.197511953e-04	1.175697060e-11
-6.300000000e-03	2.321468120e-01	-5.173949755e-04	1.220502401e-11
-6.400000000e-03	2.321468162e-01	-5.150387555e-04	8.310612845e-12
-6.500000000e-03	2.321468203e-01	-5.126825354e-04	8.477050902e-12
-6.600000000e-03	2.321468243e-01	-5.103263152e-04	7.299193234e-12
-6.700000000e-03	2.321468283e-01	-5.079700948e-04	2.005324479e-11
-6.800000000e-03	2.321468322e-01	-5.056138743e-04	1.401502939e-11
-6.900000000e-03	2.321468360e-01	-5.032576537e-04	1.066489745e-11
-7.000000000e-03	2.321468398e-01	-5.009014330e-04	9.247984516e-12
-7.100000000e-03	2.321468435e-01	-4.985452122e-04	1.042520931e-11
-7.200000000e-03	2.321468471e-01	-4.961889912e-04	8.954660600e-12
-7.300000000e-03	2.321468506e-01	-4.938327702e-04	4.673404078e-11
-7.400000000e-03	2.321468541e-01	-4.914765490e-04	1.017048832e-11
-7.500000000e-03	2.321468575e-01	-4.891203278e-04	1.181478888e-11
-7.600000000e-03	2.321468608e-01	-4.867641065e-04	1.020867754e-11
-7.700000000e-03	2.321468640e-01	-4.844078851e-04	3.544349732e-11
-7.800000000e-03	2.321468672e-01	-4.820516636e-04	1.260709293e-11
-7.900000000e-03	2.321468703e-01	-4.796954420e-04	1.138976501e-11
-8.000000000e-03	2.321468734e-01	-4.773392203e-04	1.398063026e-11
-8.100000000e-03	2.321468763e-01	-4.749829986e-04	9.881053630e-11
-8.200000000e-03	2.321468792e-01	-4.726267767e-04	8.932350489e-12
-8.300000000e-03	2.321468820e-01	-4.702705549e-04	6.259072559e-12
-8.400000000e-03	2.321468848e-01	-4.679143329e-04	2.160320506e-11
-8.500000000e-03	2.321468875e-01	-4.655581109e-04	9.577748188e-12
-8.600000000e-03	2.321468901e-01	-4.632018889e-04	2.636089199e-11
-8.700000000e-03	2.321468926e-01	-4.608456667e-04	7.322649647e-11
-8.800000000e-03	2.321468951e-01	-4.584894446e-04	2.439371401e-11
-8.900000000e-03	2.321468974e-01	-4.561332224e-04	1.686616415e-11
-9.000000000e-03	2.321468998e-01	-4.537770001e-04	1.462968150e-11
-9.100000000e-03	2.321469020e-01	-4.514207778e-04	3.641041994e-11
-9.200000000e-03	2.321469042e-01	-4.490645555e-04	1.737577976e-11
-9.300000000e-03	2.321469063e-01	-4.467083332e-04	1.034133426e-11
-9.400000000e-03	2.321469083e-01	-4.443521108e-04	1.071507420e-11
-9.500000000e-03	2.321469103e-01	-4.419958884e-04	1.793353134e-11
-9.600000000e-03	2.321469122e-01	-4.396396660e-04	9.039378457e-12
-9.700000000e-03	2.321469140e-01	-4.372834435e-04	1.498107627e-11
-9.800000000e-03	2.321469157e-01	-4.349272211e-04	1.252739547e-11
-9.900000000e-03	2.321469174e-01	-4.325709986e-04	2.596372049e-11
-1.000000000e-02	2.321469190e-01	-4.302147761e-04	6.397599566e-12
-1.010000000e-02	2.321469205e-01	-4.278585537e-04	1.038712311e-11
-1.020000000e-02	2.321469220e-01	-4.255023312e-04	9.201590028e-12
-1.030000000e-02	2.321469234e-01	-4.231461087e-04	1.925472301e-11
-1.040000000e-02	2.321469247e-01	-4.207898863e-04	6.289776999e-11
-1.050000000e-02	2.321469259e-01	-4.184336638e-04	4.240392442e-12
-1.060000000e-02	2.321469271e-01	-4.160774414e-04	1.371384319e-11
-1.070000000e-02	2.321469282e-01	-4.137212190e-04	1.909705712e-11
-1.080000000e-02	2.321469292e-01	-4.113649966e-04	1.741918242e-11
-1.090000000e-02	2.321469302e-01	-4.090087743e-04	1.026891011e-11
-1.100000000e-02	2.321469311e-01	-4.066525519e-04	9.610732601e-12
-1.110000000e-02	2.321469319e-01	-4.042963296e-04	2.387043931e-11
-1.120000000e-02	2.321469326e-01	-4.019401074e-04	1.639781243e-11
-1.130000000e-02	2.321469333e-01	-3.995838852e-04	8.988649975e-12
-1.140000000e-02	2.321469339e-01	-3.972276630e-04	2.165463963e-11
-1.150000000e-02	2.321469344e-01	-3.948714409e-04	8.532451365e-12
-1.160000000e-02	2.321469349e-01	-3.925152188e-04	1.004847155e-11
-1.170000000e-02	2.321469352e-01	-3.901589968e-04	1.374970191e-11
-1.180000000e-02	2.321469355e-01	-3.878027749e-04	5.368946505e-11
-1.190000000e-02	2.321469358e-01	-3.854465530e-04	1.168556289e-11
-1.200000000e-02	2.321469360e-01	-3.830903312e-04	2.273922136e-11
-1.210000000e-02	2.321469360e-01	-3.807341094e-04	9.144587518e-12
-1.220000000e-02	2.321469361e-01	-3.783778878e-04	1.200856248e-11
-1.230000000e-02	2.321469360e-01	-3.760216662e-04	2.079939112e-11
-1.240000000e-02	2.321469359e-01	-3.736654447e-04	1.990966552e-10
-1.250000000e-02	2.321469357e-01	-3.713092232e-04	9.921544579e-12
-1.260000000e-02	2.321469354e-01	-3.689530019e-04	3.146589001e-11
-1.270000000e-02	2.321469351e-01	-3.665967806e-04	1.105036688e-11
-1.280000000e-02	2.321469347e-01	-3.642405595e-04	1.307507762e-11
-1.290000000e-02	2.321469342e-01	-3.618843384e-04	1.845048035e-11
-1.300000000e-02	2.321469337e-01	-3.595281175e-04	3.364221295e-12
-1.310000000e-02	2.321469331e-01	-3.571718967e-04	5.560483968e-12
-1.320000000e-02	2.321469324e-01	-3.548156759e-04	1.278576730e-11
-1.330000000e-02	2.321469316e-01	-3.524594553e-04	1.246936296e-11
-1.340000000e-02	2.321469308e-01	-3.501032348e-04	1.167260875e-11
-1.350000000e-02	2.321469298e-01	-3.477470144e-04	2.458300319e-11
-1.360000000e-02	2.321469289e-01	-3.453907942e-04	8.427104870e-11
-1.370000000e-02	2.321469278e-01	-3.430345741e-04	1.208999440e-11
-1.380000000e-02	2.321469267e-01	-3.406783541e-04	1.339610269e-11
-1.390000000e-02	2.321469255e-01	-3.383221342e-04	3.257178462e-11
-1.400000000e-02	2.321469242e-01	-3.359659145e-04	1.454396412e-11
-1.410000000e-02	2.321469229e-01	-3.336096950e-04	1.203334045e-11
-1.420000000e-02	2.321469215e-01	-3.312534755e-04	1.745318597e-11
-1.430000000e-02	2.321469200e-01	-3.288972563e-04	1.667221281e-11
-1.440000000e-02	2.321469184e-01	-3.265410371e-04	2.203856921e-11
-1.450000000e-02	2.321469168e-01	-3.241848182e-04	6.276727365e-12
-1.460000000e-02	2.321469151e-01	-3.218285994e-04	7.064701009e-12
-1.470000000e-02	2.321469133e-01	-3.194723808e-04	2.936659810e-11
-1.480000000e-02	2.321469115e-01	-3.171161623e-04	3.817192121e-11
-1.490000000e-02	2.321469096e-01	-3.147599440e-04	1.238262104e-11
-1.500000000e-02	2.321469076e-01	-3.124037259e-04	1.642660070e-11
-1.510000000e-02	2.321469056e-01	-3.100475080e-04	5.579247159e-11
-1.520000000e-02	2.321469034e-01	-3.076912902e-04	1.171774938e-11
-1.530000000e-02	2.321469012e-01	-3.053350726e-04	1.884704294e-11
-1.540000000e-02	2.321468990e-01	-3.029788553e-04	2.140388477e-11
-1.550000000e-02	2.321468966e-01	-3.006226381e-04	1.814163841e-11
-1.560000000e-02	2.321468942e-01	-2.982664211e-04	8.678747803e-12
-1.570000000e-02	2.321468917e-01	-2.959102043e-04	1.308602932e-11
-1.580000000e-02	2.321468891e-01	-2.935539878e-04	1.055616726e-11
-1.590000000e-02	2.321468865e-01	-2.911977714e-04	1.929268598e-11
-1.600000000e-02	2.321468838e-01	-2.888415552e-04	3.126394062e-11
-1.610000000e-02	2.321468810e-01	-2.864853393e-04	1.395286779e-11
-1.620000000e-02	2.321468782e-01	-2.841291236e-04	8.360016540e-12
-1.630000000e-02	2.321468753e-01	-2.817729081e-04	9.602463635e-12
-1.640000000e-02	2.321468723e-01	-2.794166928e-04	5.139311553e-12
-1.650000000e-02	2.321468692e-01	-2.770604778e-04	1.043837685e-11
-1.660000000e-02	2.321468661e-01	-2.747042630e-04	1.724065525e-11
-1.670000000e-02	2.321468629e-01	-2.723480484e-04	6.669416760e-12
-1.680000000e-02	2.321468596e-01	-2.699918341e-04	1.761122817e-11
-1.690000000e-02	2.321468563e-01	-2.676356200e-04	8.841434419e-12
-1.700000000e-02	2.321468529e-01	-2.652794062e-04	9.416220117e-12
-1.710000000e-02	2.321468494e-01	-2.629231926e-04	7.585047268e-12
-1.720000000e-02	2.321468458e-01	-2.605669793e-04	9.470765371e-12
-1.730000000e-02	2.321468422e-01	-2.582107663e-04	9.308699730e-12
-1.740000000e-02	2.321468385e-01	-2.558545535e-04	2.465562972e-11
-1.750000000e-02	2.321468347e-01	-2.534983409e-04	1.882498514e-11
-1.760000000e-02	2.321468308e-01	-2.511421287e-04	1.361654730e-11
-1.770000000e-02	2.321468269e-01	-2.487859167e-04	4.385286497e-12
-1.780000000e-02	2.321468229e-01	-2.464297050e-04	9.594919671e-12
-1.790000000e-02	2.321468189e-01	-2.440734936e-04	1.079977362e-11
-1.800000000e-02	2.321468147e-01	-2.417172824e-04	1.457603725e-11
-1.810000000e-02	2.321468105e-01	-2.393610716e-04	1.564392513e-11
-1.820000000e-02	2.321468062e-01	-2.370048610e-04	8.409507891e-12
-1.830000000e-02	2.321468019e-01	-2.346486507e-04	1.180081341e-11
-1.840000000e-02	2.321467975e-01	-2.322924408e-04	2.456170241e-11
-1.850000000e-02	2.321467930e-01	-2.299362311e-04	1.232673625e-11
-1.860000000e-02	2.321467884e-01	-2.275800218e-04	1.579505827e-11
-1.870000000e-02	2.321467838e-01	-2.252238127e-04	1.096897761e-11
-1.880000000e-02	2.321467791e-01	-2.228676040e-04	1.205713313e-11
-1.890000000e-02	2.321467743e-01	-2.205113956e-04	1.185139548e-11
-1.900000000e-02	2.321467694e-01	-2.181551875e-04	9.286025420e-12
-1.910000000e-02	2.321467645e-01	-2.157989798e-04	5.055470456e-12
-1.920000000e-02	2.321467595e-01	-2.134427723e-04	3.567765669e-12
-1.930000000e-02	2.321467544e-01	-2.110865652e-04	1.585660021e-11
-1.940000000e-02	2.321467493e-01	-2.087303585e-04	1.060263456e-11
-1.950000000e-02	2.321467441e-01	-2.063741520e-04	1.560414862e-11
-1.960000000e-02	2.321467388e-01	-2.040179460e-04	1.362721433e-11
-1.970000000e-02	2.321467334e-01	-2.016617402e-04	2.834588015e-10
-1.980000000e-02	2.321467280e-01	-1.993055348e-04	9.619763776e-12
-1.990000000e-02	2.321467225e-01	-1.969493298e-04	1.175358303e-11
-2.000000000e-02	2.321467169e-01	-1.945931251e-04	1.933473893e-11
-2.010000000e-02	2.321467113e-01	-1.922369208e-04	7.116876752e-12
-2.020000000e-02	2.321467056e-01	-1.898807169e-04	1.086087951e-11
-2.030000000e-02	2.321466998e-01	-1.875245133e-04	3.706902880e-11
-2.040000000e-02	2.321466940e-01	-1.851683101e-04	1.065506429e-11
-2.050000000e-02	2.321466880e-01	-1.828121073e-04	6.729991881e-12
-2.060000000e-02	2.321466820e-01	-1.804559048e-04	9.128716145e-11
-2.070000000e-02	2.321466760e-01	-1.780997028e-04	7.036216748e-12
-2.080000000e-02	2.321466698e-01	-1.757435011e-04	6.390228168e-11
-2.090000000e-02	2.321466636e-01	-1.733872998e-04	1.388599606e-11
-2.100000000e-02	2.321466573e-01	-1.710310989e-04	5.763380535e-12
-2.110000000e-02	2.321466509e-01	-1.686748984e-04	1.295208192e-11
-2.120000000e-02	2.321466445e-01	-1.663186983e-04	1.611144216e-11
-2.130000000e-02	2.321466380e-01	-1.639624986e-04	1.279202027e-11
-2.140000000e-02	2.321466314e-01	-1.616062994e-04	5.454467695e-12
-2.150000000e-02	2.321466248e-01	-1.592501005e-04	7.229246569e-12
-2.160000000e-02	2.321466181e-01	-1.568939021e-04	1.045231768e-11
-2.170000000e-02	2.321466113e-01	-1.545377040e-04	7.799424372e-12
-2.180000000e-02	2.321466044e-01	-1.521815064e-04	3.514926651e-11
-2.190000000e-02	2.321465975e-01	-1.498253092e-04	3.642440311e-11
-2.200000000e-02	2.321465905e-01	-1.474691125e-04	9.709406096e-12
-2.210000000e-02	2.321465834e-01	-1.451129162e-04	4.354694461e-12
-2.220000000e-02	2.321465763e-01	-1.427567203e-04	1.855693466e-11
-2.230000000e-02	2.321465690e-01	-1.404005249e-04	1.245792628e-11
-2.240000000e-02	2.321465618e-01	-1.380443299e-04	1.470234119e-11
-2.250000000e-02	2.321465544e-01	-1.356881353e-04	2.473041994e-11
-2.260000000e-02	2.321465470e-01	-1.333319412e-04	1.490685077e-11
-2.270000000e-02	2.321465395e-01	-1.309757476e-04	1.220070981e-11
-2.280000000e-02	2.321465319e-01	-1.286195544e-04	3.428531151e-11
-2.290000000e-02	2.321465242e-01	-1.262633617e-04	3.110721581e-10
-2.300000000e-02	2.321465165e-01	-1.239071695e-04	1.086924538e-11
-2.310000000e-02	2.321465087e-01	-1.215509777e-04	9.696573472e-12
-2.320000000e-02	2.321465008e-01	-1.191947864e-04	1.297495159e-11
-2.330000000e-02	2.321464929e-01	-1.168385956e-04	1.389999127e-11
-2.340000000e-02	2.321464849e-01	-1.144824053e-04	1.441116374e-11
-2.350000000e-02	2.321464768e-01	-1.121262154e-04	6.564688236e-12
-2.360000000e-02	2.321464687e-01	-1.097700260e-04	2.347340381e-11
-2.370000000e-02	2.321464604e-01	-1.074138372e-04	1.496473324e-11
-2.380000000e-02	2.321464522e-01	-1.050576488e-04	1.767726410e-11
-2.390000000e-02	2.321464438e-01	-1.027014609e-04	1.444781367e-11
-2.400000000e-02	2.321464353e-01	-1.003452735e-04	1.161251884e-11
-2.410000000e-02	2.321464268e-01	-9.798908668e-05	6.039768551e-12
-2.420000000e-02	2.321464183e-01	-9.563290033e-05	2.873463959e-11
-2.430000000e-02	2.321464096e-01	-9.327671449e-05	9.126871880e-12
-2.440000000e-02	2.321464009e-01	-9.092052916e-05	1.375314734e-11
-2.450000000e-02	2.321463921e-01	-8.856434436e-05	1.053239692e-11
-2.460000000e-02	2.321463832e-01	-8.620816009e-05	4.452996346e-11
-2.470000000e-02	2.321463743e-01	-8.385197635e-05	1.920804713e-10
-2.480000000e-02	2.321463653e-01	-8.149579312e-05	1.431929767e-11
-2.490000000e-02	2.321463562e-01	-7.913961044e-05	1.317008041e-11
-2.500000000e-02	2.321463470e-01	-7.678342830e-05	1.340653296e-11
-2.510000000e-02	2.321463378e-01	-7.442724671e-05	1.016925000e-11
-2.520000000e-02	2.321463285e-01	-7.207106566e-05	1.465414025e-11
-2.530000000e-02	2.321463191e-01	-6.971488516e-05	9.804884247e-12
-2.540000000e-02	2.321463097e-01	-6.735870522e-05	1.170813551e-10
-2.550000000e-02	2.321463002e-01	-6.500252583e-05	4.679979304e-11
-2.560000000e-02	2.321462906e-01	-6.264634701e-05	2.018537466e-11
-2.570000000e-02	2.321462809e-01	-6.029016875e-05	1.130117615e-11
-2.580000000e-02	2.321462712e-01	-5.793399106e-05	1.565678050e-11
-2.590000000e-02	2.321462614e-01	-5.557781394e-05	1.294251338e-11
-2.600000000e-02	2.321462515e-01	-5.322163740e-05	1.273905846e-11
-2.610000000e-02	2.321462416e-01	-5.086546143e-05	1.514257203e-11
-2.620000000e-02	2.321462316e-01	-4.850928605e-05	8.820431500e-12
-2.630000000e-02	2.321462215e-01	-4.615311126e-05	1.618039113e-11
-2.640000000e-02	2.321462113e-01	-4.379693706e-05	1.142140011e-11
-2.650000000e-02	2.321462011e-01	-4.144076345e-05	9.186860321e-12
-2.660000000e-02	2.321461908e-01	-3.908459044e-05	1.684991746e-11
-2.670000000e-02	2.321461804e-01	-3.672841804e-05	2.156317126e-11
-2.680000000e-02	2.321461700e-01	-3.437224623e-05	1.752072405e-11
-2.690000000e-02	2.321461594e-01	-3.201607504e-05	8.209887520e-12
-2.700000000e-02	2.321461489e-01	-2.965990446e-05	9.024851660e-12
-2.710000000e-02	2.321461382e-01	-2.730373449e-05	2.973563428e-11
-2.720000000e-02	2.321461275e-01	-2.494756514e-05	1.415374883e-11
-2.730000000e-02	2.321461167e-01	-2.259139642e-05	9.437356092e-12
-2.740000000e-02	2.321461058e-01	-2.023522832e-05	2.629697513e-11
-2.750000000e-02	2.321460948e-01	-1.787906086e-05	1.769283999e-11
-2.760000000e-02	2.321460838e-01	-1.552289403e-05	1.210725174e-11
-2.770000000e-02	2.321460727e-01	-1.316672784e-05	2.450658888e-11
-2.780000000e-02	2.321460616e-01	-1.081056228e-05	1.050969602e-11
-2.790000000e-02	2.321460503e-01	-8.454397374e-06	1.872377485e-11
-2.800000000e-02	2.321460390e-01	-6.098233117e-06	1.802194072e-11
-2.810000000e-02	2.321460276e-01	-3.742069510e-06	3.050475152e-11
-2.820000000e-02	2.321460162e-01	-1.385906563e-06	1.538437516e-11
-2.830000000e-02	2.321460047e-01	9.702557273e-07	9.288183347e-12
-2.840000000e-02	2.321459931e-01	3.326417354e-06	1.371578119e-11
-2.850000000e-02	2.321459814e-01	5.682578314e-06	9.985024229e-12
-2.860000000e-02	2.321459697e-01	8.038738604e-06	1.820707085e-11
-2.870000000e-02	2.321459579e-01	1.039489822e-05	1.199206193e-11
-2.880000000e-02	2.321459460e-01	1.275105715e-05	1.808702877e-11
-2.890000000e-02	2.321459340e-01	1.510721541e-05	7.816112719e-12
-2.900000000e-02	2.321459220e-01	1.746337298e-05	2.065118920e-11
-2.910000000e-02	2.321459099e-01	1.981952986e-05	1.170518176e-11
-2.920000000e-02	2.321458978e-01	2.217568605e-05	1.179646601e-11
-2.930000000e-02	2.321458855e-01	2.453184155e-05	3.002547367e-11
-2.940000000e-02	2.321458732e-01	2.688799634e-05	2.718037084e-11
-2.950000000e-02	2.321458608e-01	2.924415043e-05	8.135065537e-12
-2.960000000e-02	2.321458484e-01	3.160030383e-05	2.063440364e-10
-2.970000000e-02	2.321458358e-01	3.395645649e-05	1.419688439e-11
-2.980000000e-02	2.321458232e-01	3.631260845e-05	1.483521360e-11
-2.990000000e-02	2.321458106e-01	3.866875969e-05	1.111511632e-11
-3.000000000e-02	2.321457978e-01	4.102491021e-05	9.157214706e-12
