# Im(epsi1)     Re(omega/c)      Im(omega/c)      Eq(det).Opt det CON kz, R=0.5 \mum, mu_c=0.3, Re(epsi1)=3.90solve_det_conkz_vs_kz.py
0.000000000e+00	2.321453198e-01	-6.658323901e-04	1.345265564e-11
-1.000000000e-04	2.321453285e-01	-6.634761936e-04	1.372700916e-11
-2.000000000e-04	2.321453371e-01	-6.611199968e-04	2.227311324e-11
-3.000000000e-04	2.321453457e-01	-6.587637996e-04	1.113298664e-11
-4.000000000e-04	2.321453542e-01	-6.564076020e-04	6.778492329e-12
-5.000000000e-04	2.321453626e-01	-6.540514042e-04	5.837313795e-12
-6.000000000e-04	2.321453709e-01	-6.516952059e-04	1.637525116e-11
-7.000000000e-04	2.321453792e-01	-6.493390073e-04	1.107364792e-11
-8.000000000e-04	2.321453874e-01	-6.469828084e-04	1.910407029e-11
-9.000000000e-04	2.321453955e-01	-6.446266092e-04	7.280363436e-12
-1.000000000e-03	2.321454036e-01	-6.422704096e-04	5.462677290e-11
-1.100000000e-03	2.321454116e-01	-6.399142096e-04	8.228344296e-12
-1.200000000e-03	2.321454195e-01	-6.375580094e-04	1.192567319e-11
-1.300000000e-03	2.321454273e-01	-6.352018088e-04	1.160553360e-11
-1.400000000e-03	2.321454351e-01	-6.328456079e-04	1.792588466e-11
-1.500000000e-03	2.321454428e-01	-6.304894067e-04	1.264629879e-11
-1.600000000e-03	2.321454504e-01	-6.281332052e-04	2.445028847e-11
-1.700000000e-03	2.321454580e-01	-6.257770034e-04	6.318813025e-12
-1.800000000e-03	2.321454654e-01	-6.234208013e-04	2.159411653e-11
-1.900000000e-03	2.321454729e-01	-6.210645989e-04	6.738677771e-12
-2.000000000e-03	2.321454802e-01	-6.187083961e-04	3.436143927e-11
-2.100000000e-03	2.321454875e-01	-6.163521931e-04	1.255008801e-11
-2.200000000e-03	2.321454947e-01	-6.139959898e-04	4.092561379e-11
-2.300000000e-03	2.321455018e-01	-6.116397862e-04	7.308858473e-12
-2.400000000e-03	2.321455088e-01	-6.092835824e-04	7.896569294e-12
-2.500000000e-03	2.321455158e-01	-6.069273782e-04	2.884107365e-11
-2.600000000e-03	2.321455227e-01	-6.045711738e-04	2.574298437e-11
-2.700000000e-03	2.321455295e-01	-6.022149691e-04	1.792605417e-11
-2.800000000e-03	2.321455363e-01	-5.998587642e-04	4.922488162e-11
-2.900000000e-03	2.321455430e-01	-5.975025589e-04	6.881749161e-12
-3.000000000e-03	2.321455496e-01	-5.951463535e-04	1.131755143e-11
-3.100000000e-03	2.321455562e-01	-5.927901477e-04	1.231620103e-11
-3.200000000e-03	2.321455627e-01	-5.904339417e-04	1.009649488e-11
-3.300000000e-03	2.321455691e-01	-5.880777355e-04	1.623004878e-11
-3.400000000e-03	2.321455754e-01	-5.857215290e-04	6.604557077e-12
-3.500000000e-03	2.321455817e-01	-5.833653223e-04	1.859556430e-11
-3.600000000e-03	2.321455878e-01	-5.810091153e-04	1.027458768e-10
-3.700000000e-03	2.321455940e-01	-5.786529081e-04	1.302728467e-11
-3.800000000e-03	2.321456000e-01	-5.762967007e-04	5.053680834e-11
-3.900000000e-03	2.321456060e-01	-5.739404930e-04	1.894439647e-11
-4.000000000e-03	2.321456119e-01	-5.715842851e-04	9.295276884e-12
-4.100000000e-03	2.321456177e-01	-5.692280770e-04	1.530473100e-11
-4.200000000e-03	2.321456235e-01	-5.668718687e-04	8.704292975e-12
-4.300000000e-03	2.321456292e-01	-5.645156601e-04	8.896357569e-12
-4.400000000e-03	2.321456348e-01	-5.621594514e-04	1.013731341e-11
-4.500000000e-03	2.321456403e-01	-5.598032425e-04	4.180671313e-11
-4.600000000e-03	2.321456458e-01	-5.574470333e-04	6.795978446e-12
-4.700000000e-03	2.321456512e-01	-5.550908240e-04	3.845411847e-11
-4.800000000e-03	2.321456565e-01	-5.527346144e-04	1.266971078e-11
-4.900000000e-03	2.321456618e-01	-5.503784047e-04	1.557936911e-11
-5.000000000e-03	2.321456670e-01	-5.480221948e-04	2.295041945e-11
-5.100000000e-03	2.321456721e-01	-5.456659846e-04	8.681738297e-12
-5.200000000e-03	2.321456771e-01	-5.433097744e-04	1.609980904e-11
-5.300000000e-03	2.321456821e-01	-5.409535639e-04	1.318787597e-11
-5.400000000e-03	2.321456870e-01	-5.385973533e-04	1.136865145e-11
-5.500000000e-03	2.321456918e-01	-5.362411425e-04	7.629790445e-12
-5.600000000e-03	2.321456966e-01	-5.338849315e-04	1.742408896e-11
-5.700000000e-03	2.321457013e-01	-5.315287204e-04	1.620285151e-11
-5.800000000e-03	2.321457059e-01	-5.291725091e-04	1.665690283e-11
-5.900000000e-03	2.321457104e-01	-5.268162976e-04	1.337212597e-11
-6.000000000e-03	2.321457149e-01	-5.244600860e-04	1.389756456e-11
-6.100000000e-03	2.321457193e-01	-5.221038743e-04	9.178567794e-12
-6.200000000e-03	2.321457236e-01	-5.197476624e-04	3.528927129e-11
-6.300000000e-03	2.321457279e-01	-5.173914504e-04	6.655821805e-12
-6.400000000e-03	2.321457320e-01	-5.150352382e-04	7.898591973e-12
-6.500000000e-03	2.321457362e-01	-5.126790259e-04	1.401891507e-11
-6.600000000e-03	2.321457402e-01	-5.103228135e-04	6.291464137e-12
-6.700000000e-03	2.321457442e-01	-5.079666009e-04	1.243855241e-11
-6.800000000e-03	2.321457481e-01	-5.056103883e-04	1.310773638e-11
-6.900000000e-03	2.321457519e-01	-5.032541755e-04	1.181318491e-11
-7.000000000e-03	2.321457556e-01	-5.008979626e-04	6.979464697e-12
-7.100000000e-03	2.321457593e-01	-4.985417495e-04	4.980517453e-11
-7.200000000e-03	2.321457629e-01	-4.961855364e-04	1.417607943e-11
-7.300000000e-03	2.321457665e-01	-4.938293232e-04	2.140136837e-11
-7.400000000e-03	2.321457699e-01	-4.914731099e-04	9.978419690e-12
-7.500000000e-03	2.321457733e-01	-4.891168964e-04	1.344450511e-11
-7.600000000e-03	2.321457766e-01	-4.867606829e-04	3.247236432e-11
-7.700000000e-03	2.321457799e-01	-4.844044693e-04	4.806436373e-12
-7.800000000e-03	2.321457831e-01	-4.820482556e-04	2.307417047e-11
-7.900000000e-03	2.321457862e-01	-4.796920418e-04	9.880956857e-12
-8.000000000e-03	2.321457892e-01	-4.773358280e-04	6.125744486e-12
-8.100000000e-03	2.321457922e-01	-4.749796141e-04	1.025695026e-10
-8.200000000e-03	2.321457951e-01	-4.726234001e-04	2.724085341e-11
-8.300000000e-03	2.321457979e-01	-4.702671860e-04	2.518586031e-11
-8.400000000e-03	2.321458006e-01	-4.679109719e-04	7.279446941e-12
-8.500000000e-03	2.321458033e-01	-4.655547577e-04	2.162229379e-11
-8.600000000e-03	2.321458059e-01	-4.631985434e-04	1.566440447e-11
-8.700000000e-03	2.321458085e-01	-4.608423291e-04	6.286864714e-12
-8.800000000e-03	2.321458109e-01	-4.584861148e-04	6.276080243e-12
-8.900000000e-03	2.321458133e-01	-4.561299004e-04	1.024138708e-11
-9.000000000e-03	2.321458156e-01	-4.537736859e-04	1.510575230e-11
-9.100000000e-03	2.321458179e-01	-4.514174715e-04	8.933033241e-11
-9.200000000e-03	2.321458200e-01	-4.490612570e-04	2.032577716e-11
-9.300000000e-03	2.321458221e-01	-4.467050424e-04	2.915902423e-12
-9.400000000e-03	2.321458242e-01	-4.443488279e-04	1.020976462e-11
-9.500000000e-03	2.321458261e-01	-4.419926133e-04	1.365224118e-11
-9.600000000e-03	2.321458280e-01	-4.396363987e-04	3.810085840e-10
-9.700000000e-03	2.321458298e-01	-4.372801840e-04	1.052165733e-11
-9.800000000e-03	2.321458316e-01	-4.349239694e-04	4.952966891e-12
-9.900000000e-03	2.321458333e-01	-4.325677547e-04	3.248133711e-11
-1.000000000e-02	2.321458349e-01	-4.302115401e-04	2.668964079e-11
-1.010000000e-02	2.321458364e-01	-4.278553254e-04	1.343904292e-11
-1.020000000e-02	2.321458378e-01	-4.254991108e-04	1.865897483e-11
-1.030000000e-02	2.321458392e-01	-4.231428961e-04	6.082957390e-11
-1.040000000e-02	2.321458405e-01	-4.207866815e-04	1.157062665e-11
-1.050000000e-02	2.321458418e-01	-4.184304668e-04	2.612075306e-11
-1.060000000e-02	2.321458430e-01	-4.160742522e-04	1.352045836e-11
-1.070000000e-02	2.321458441e-01	-4.137180376e-04	7.469598145e-12
-1.080000000e-02	2.321458451e-01	-4.113618231e-04	1.659811612e-11
-1.090000000e-02	2.321458460e-01	-4.090056085e-04	9.685792344e-12
-1.100000000e-02	2.321458469e-01	-4.066493940e-04	6.166234677e-11
-1.110000000e-02	2.321458477e-01	-4.042931795e-04	1.418004969e-11
-1.120000000e-02	2.321458485e-01	-4.019369651e-04	2.177811670e-11
-1.130000000e-02	2.321458491e-01	-3.995807507e-04	8.401483842e-11
-1.140000000e-02	2.321458497e-01	-3.972245363e-04	7.066466352e-12
-1.150000000e-02	2.321458503e-01	-3.948683220e-04	2.147913945e-11
-1.160000000e-02	2.321458507e-01	-3.925121078e-04	1.463320883e-11
-1.170000000e-02	2.321458511e-01	-3.901558936e-04	9.246998355e-12
-1.180000000e-02	2.321458514e-01	-3.877996795e-04	9.206876058e-12
-1.190000000e-02	2.321458516e-01	-3.854434654e-04	2.440490175e-11
-1.200000000e-02	2.321458518e-01	-3.830872514e-04	2.147030221e-11
-1.210000000e-02	2.321458519e-01	-3.807310374e-04	1.557420129e-11
-1.220000000e-02	2.321458519e-01	-3.783748236e-04	2.794191736e-11
-1.230000000e-02	2.321458519e-01	-3.760186098e-04	1.233761353e-11
-1.240000000e-02	2.321458518e-01	-3.736623961e-04	7.814887972e-12
-1.250000000e-02	2.321458516e-01	-3.713061825e-04	9.475048316e-12
-1.260000000e-02	2.321458513e-01	-3.689499690e-04	1.673911593e-11
-1.270000000e-02	2.321458510e-01	-3.665937555e-04	1.708447670e-11
-1.280000000e-02	2.321458506e-01	-3.642375422e-04	1.043206795e-11
-1.290000000e-02	2.321458501e-01	-3.618813289e-04	5.554611902e-12
-1.300000000e-02	2.321458495e-01	-3.595251158e-04	1.025787414e-11
-1.310000000e-02	2.321458489e-01	-3.571689028e-04	4.691149473e-11
-1.320000000e-02	2.321458482e-01	-3.548126899e-04	1.005595980e-11
-1.330000000e-02	2.321458474e-01	-3.524564771e-04	9.904467893e-12
-1.340000000e-02	2.321458466e-01	-3.501002644e-04	9.811653334e-12
-1.350000000e-02	2.321458457e-01	-3.477440518e-04	9.225249921e-12
-1.360000000e-02	2.321458447e-01	-3.453878394e-04	1.163348565e-11
-1.370000000e-02	2.321458437e-01	-3.430316271e-04	8.060757232e-12
-1.380000000e-02	2.321458425e-01	-3.406754149e-04	2.840223515e-11
-1.390000000e-02	2.321458414e-01	-3.383192029e-04	1.123180252e-11
-1.400000000e-02	2.321458401e-01	-3.359629910e-04	1.769156227e-11
-1.410000000e-02	2.321458387e-01	-3.336067792e-04	6.647682194e-12
-1.420000000e-02	2.321458373e-01	-3.312505676e-04	9.095717597e-12
-1.430000000e-02	2.321458358e-01	-3.288943561e-04	1.246592149e-11
-1.440000000e-02	2.321458343e-01	-3.265381448e-04	6.369184050e-12
-1.450000000e-02	2.321458327e-01	-3.241819337e-04	5.623098365e-12
-1.460000000e-02	2.321458310e-01	-3.218257227e-04	2.078899490e-11
-1.470000000e-02	2.321458292e-01	-3.194695119e-04	3.774148039e-11
-1.480000000e-02	2.321458274e-01	-3.171133012e-04	1.337304595e-11
-1.490000000e-02	2.321458254e-01	-3.147570908e-04	1.699440666e-11
-1.500000000e-02	2.321458235e-01	-3.124008805e-04	7.782505801e-12
-1.510000000e-02	2.321458214e-01	-3.100446703e-04	2.482412381e-11
-1.520000000e-02	2.321458193e-01	-3.076884604e-04	1.085669009e-11
-1.530000000e-02	2.321458171e-01	-3.053322507e-04	2.981800280e-11
-1.540000000e-02	2.321458148e-01	-3.029760411e-04	4.017497564e-11
-1.550000000e-02	2.321458125e-01	-3.006198317e-04	2.739422922e-11
-1.560000000e-02	2.321458100e-01	-2.982636226e-04	3.369802710e-11
-1.570000000e-02	2.321458076e-01	-2.959074136e-04	6.561642716e-12
-1.580000000e-02	2.321458050e-01	-2.935512048e-04	7.518269889e-12
-1.590000000e-02	2.321458024e-01	-2.911949963e-04	1.185537202e-11
-1.600000000e-02	2.321457997e-01	-2.888387879e-04	9.275061290e-12
-1.610000000e-02	2.321457969e-01	-2.864825798e-04	2.626297523e-11
-1.620000000e-02	2.321457941e-01	-2.841263719e-04	2.592702956e-11
-1.630000000e-02	2.321457911e-01	-2.817701642e-04	8.420975846e-12
-1.640000000e-02	2.321457881e-01	-2.794139568e-04	6.730465857e-12
-1.650000000e-02	2.321457851e-01	-2.770577496e-04	1.417909961e-11
-1.660000000e-02	2.321457820e-01	-2.747015426e-04	1.871995937e-11
-1.670000000e-02	2.321457788e-01	-2.723453358e-04	1.809849342e-11
-1.680000000e-02	2.321457755e-01	-2.699891293e-04	1.041620407e-11
-1.690000000e-02	2.321457721e-01	-2.676329230e-04	6.542972070e-12
-1.700000000e-02	2.321457687e-01	-2.652767170e-04	1.035295442e-11
-1.710000000e-02	2.321457652e-01	-2.629205113e-04	1.365162398e-11
-1.720000000e-02	2.321457617e-01	-2.605643058e-04	1.071853948e-10
-1.730000000e-02	2.321457580e-01	-2.582081005e-04	1.311002445e-11
-1.740000000e-02	2.321457543e-01	-2.558518955e-04	1.124063698e-11
-1.750000000e-02	2.321457505e-01	-2.534956908e-04	7.530937944e-12
-1.760000000e-02	2.321457467e-01	-2.511394864e-04	5.320258684e-11
-1.770000000e-02	2.321457428e-01	-2.487832822e-04	8.988756256e-12
-1.780000000e-02	2.321457388e-01	-2.464270783e-04	7.045042058e-12
-1.790000000e-02	2.321457347e-01	-2.440708747e-04	2.127572337e-11
-1.800000000e-02	2.321457306e-01	-2.417146714e-04	5.244723112e-11
-1.810000000e-02	2.321457264e-01	-2.393584683e-04	9.822633600e-12
-1.820000000e-02	2.321457221e-01	-2.370022656e-04	9.142628811e-12
-1.830000000e-02	2.321457177e-01	-2.346460631e-04	1.631358587e-11
-1.840000000e-02	2.321457133e-01	-2.322898610e-04	5.475701080e-11
-1.850000000e-02	2.321457088e-01	-2.299336591e-04	1.073398261e-11
-1.860000000e-02	2.321457043e-01	-2.275774576e-04	3.093082848e-11
-1.870000000e-02	2.321456996e-01	-2.252212564e-04	8.380710122e-12
-1.880000000e-02	2.321456949e-01	-2.228650555e-04	8.929688736e-12
-1.890000000e-02	2.321456901e-01	-2.205088549e-04	1.341889033e-11
-1.900000000e-02	2.321456853e-01	-2.181526546e-04	1.381333231e-11
-1.910000000e-02	2.321456804e-01	-2.157964547e-04	1.588884983e-11
-1.920000000e-02	2.321456754e-01	-2.134402550e-04	8.519241217e-12
-1.930000000e-02	2.321456703e-01	-2.110840557e-04	7.694537075e-12
-1.940000000e-02	2.321456651e-01	-2.087278568e-04	2.922211219e-11
-1.950000000e-02	2.321456599e-01	-2.063716582e-04	6.533158553e-12
-1.960000000e-02	2.321456547e-01	-2.040154599e-04	1.805616442e-11
-1.970000000e-02	2.321456493e-01	-2.016592620e-04	8.144116324e-12
-1.980000000e-02	2.321456439e-01	-1.993030644e-04	1.552505148e-11
-1.990000000e-02	2.321456384e-01	-1.969468672e-04	2.403915905e-11
-2.000000000e-02	2.321456328e-01	-1.945906703e-04	2.002598946e-11
-2.010000000e-02	2.321456272e-01	-1.922344739e-04	1.829790694e-11
-2.020000000e-02	2.321456214e-01	-1.898782777e-04	1.990118973e-11
-2.030000000e-02	2.321456157e-01	-1.875220820e-04	1.961877432e-11
-2.040000000e-02	2.321456098e-01	-1.851658866e-04	2.199341361e-11
-2.050000000e-02	2.321456039e-01	-1.828096916e-04	1.952655057e-11
-2.060000000e-02	2.321455979e-01	-1.804534969e-04	3.343066689e-11
-2.070000000e-02	2.321455918e-01	-1.780973027e-04	2.121608391e-11
-2.080000000e-02	2.321455857e-01	-1.757411088e-04	2.218698179e-11
-2.090000000e-02	2.321455794e-01	-1.733849153e-04	1.468658458e-11
-2.100000000e-02	2.321455732e-01	-1.710287223e-04	2.352913635e-11
-2.110000000e-02	2.321455668e-01	-1.686725296e-04	2.810090421e-11
-2.120000000e-02	2.321455604e-01	-1.663163373e-04	1.132045863e-11
-2.130000000e-02	2.321455539e-01	-1.639601454e-04	9.381269468e-12
-2.140000000e-02	2.321455473e-01	-1.616039540e-04	4.482430296e-12
-2.150000000e-02	2.321455406e-01	-1.592477629e-04	6.780699380e-12
-2.160000000e-02	2.321455339e-01	-1.568915723e-04	9.507863486e-12
-2.170000000e-02	2.321455271e-01	-1.545353821e-04	1.429121323e-11
-2.180000000e-02	2.321455203e-01	-1.521791923e-04	7.810702416e-11
-2.190000000e-02	2.321455133e-01	-1.498230029e-04	2.473421259e-11
-2.200000000e-02	2.321455063e-01	-1.474668140e-04	7.443099364e-12
-2.210000000e-02	2.321454993e-01	-1.451106255e-04	1.368814183e-11
-2.220000000e-02	2.321454921e-01	-1.427544374e-04	1.604484886e-11
-2.230000000e-02	2.321454849e-01	-1.403982498e-04	1.004930215e-11
-2.240000000e-02	2.321454776e-01	-1.380420626e-04	1.585861589e-11
-2.250000000e-02	2.321454702e-01	-1.356858759e-04	4.909745949e-12
-2.260000000e-02	2.321454628e-01	-1.333296896e-04	1.293695258e-11
-2.270000000e-02	2.321454553e-01	-1.309735038e-04	9.344351422e-12
-2.280000000e-02	2.321454477e-01	-1.286173184e-04	1.430935743e-11
-2.290000000e-02	2.321454401e-01	-1.262611335e-04	1.166597086e-11
-2.300000000e-02	2.321454324e-01	-1.239049491e-04	5.196044877e-11
-2.310000000e-02	2.321454246e-01	-1.215487651e-04	9.313395289e-12
-2.320000000e-02	2.321454167e-01	-1.191925816e-04	3.824962907e-11
-2.330000000e-02	2.321454088e-01	-1.168363986e-04	1.792013184e-11
-2.340000000e-02	2.321454008e-01	-1.144802161e-04	1.930533620e-11
-2.350000000e-02	2.321453927e-01	-1.121240341e-04	1.184979817e-11
-2.360000000e-02	2.321453845e-01	-1.097678525e-04	1.550347762e-11
-2.370000000e-02	2.321453763e-01	-1.074116715e-04	3.068480236e-11
-2.380000000e-02	2.321453680e-01	-1.050554909e-04	3.004623050e-11
-2.390000000e-02	2.321453596e-01	-1.026993108e-04	1.336557289e-11
-2.400000000e-02	2.321453512e-01	-1.003431313e-04	1.315027848e-11
-2.410000000e-02	2.321453427e-01	-9.798695222e-05	8.121762449e-12
-2.420000000e-02	2.321453341e-01	-9.563077368e-05	8.958648700e-12
-2.430000000e-02	2.321453255e-01	-9.327459565e-05	8.965418608e-12
-2.440000000e-02	2.321453167e-01	-9.091841814e-05	7.628283735e-12
-2.450000000e-02	2.321453079e-01	-8.856224115e-05	8.181346805e-12
-2.460000000e-02	2.321452991e-01	-8.620606469e-05	8.716469215e-12
-2.470000000e-02	2.321452901e-01	-8.384988875e-05	1.247776712e-11
-2.480000000e-02	2.321452811e-01	-8.149371335e-05	1.232298153e-11
-2.490000000e-02	2.321452720e-01	-7.913753849e-05	1.996206076e-11
-2.500000000e-02	2.321452629e-01	-7.678136416e-05	1.286353994e-11
-2.510000000e-02	2.321452536e-01	-7.442519038e-05	1.829176337e-11
-2.520000000e-02	2.321452443e-01	-7.206901714e-05	8.944775929e-12
-2.530000000e-02	2.321452350e-01	-6.971284446e-05	1.074214155e-11
-2.540000000e-02	2.321452255e-01	-6.735667232e-05	2.711809509e-11
-2.550000000e-02	2.321452160e-01	-6.500050075e-05	2.821540880e-11
-2.560000000e-02	2.321452064e-01	-6.264432974e-05	6.825246040e-11
-2.570000000e-02	2.321451968e-01	-6.028815929e-05	2.189568495e-11
-2.580000000e-02	2.321451870e-01	-5.793198941e-05	1.252781536e-11
-2.590000000e-02	2.321451772e-01	-5.557582011e-05	1.494497609e-11
-2.600000000e-02	2.321451674e-01	-5.321965138e-05	6.158902731e-12
-2.610000000e-02	2.321451574e-01	-5.086348323e-05	7.675665244e-12
-2.620000000e-02	2.321451474e-01	-4.850731566e-05	1.205213095e-11
-2.630000000e-02	2.321451373e-01	-4.615114869e-05	4.333920935e-11
-2.640000000e-02	2.321451272e-01	-4.379498230e-05	5.652410528e-12
-2.650000000e-02	2.321451169e-01	-4.143881650e-05	9.302608397e-12
-2.660000000e-02	2.321451066e-01	-3.908265131e-05	5.756098730e-11
-2.670000000e-02	2.321450963e-01	-3.672648671e-05	1.870438261e-11
-2.680000000e-02	2.321450858e-01	-3.437032272e-05	1.095056291e-11
-2.690000000e-02	2.321450753e-01	-3.201415934e-05	2.347730434e-11
-2.700000000e-02	2.321450647e-01	-2.965799657e-05	7.695939714e-12
-2.710000000e-02	2.321450540e-01	-2.730183442e-05	6.313986663e-12
-2.720000000e-02	2.321450433e-01	-2.494567288e-05	2.243491799e-11
-2.730000000e-02	2.321450325e-01	-2.258951197e-05	2.133634422e-11
-2.740000000e-02	2.321450216e-01	-2.023335169e-05	9.285708798e-12
-2.750000000e-02	2.321450107e-01	-1.787719203e-05	2.719969908e-11
-2.760000000e-02	2.321449997e-01	-1.552103302e-05	1.733670862e-11
-2.770000000e-02	2.321449886e-01	-1.316487464e-05	5.002782235e-11
-2.780000000e-02	2.321449774e-01	-1.080871690e-05	1.160770463e-11
-2.790000000e-02	2.321449662e-01	-8.452559806e-06	2.979029877e-11
-2.800000000e-02	2.321449549e-01	-6.096403360e-06	1.425434063e-11
-2.810000000e-02	2.321449435e-01	-3.740247567e-06	1.329154942e-11
-2.820000000e-02	2.321449320e-01	-1.384092429e-06	2.444853929e-11
-2.830000000e-02	2.321449205e-01	9.720620474e-07	9.183833183e-12
-2.840000000e-02	2.321449089e-01	3.328215860e-06	2.326362270e-11
-2.850000000e-02	2.321448973e-01	5.684369007e-06	6.495645926e-12
-2.860000000e-02	2.321448855e-01	8.040521486e-06	8.551114446e-11
-2.870000000e-02	2.321448737e-01	1.039667329e-05	6.121162150e-12
-2.880000000e-02	2.321448618e-01	1.275282441e-05	9.813822194e-12
-2.890000000e-02	2.321448499e-01	1.510897485e-05	1.063040506e-11
-2.900000000e-02	2.321448379e-01	1.746512461e-05	1.334630350e-11
-2.910000000e-02	2.321448258e-01	1.982127368e-05	1.455327444e-11
-2.920000000e-02	2.321448136e-01	2.217742205e-05	2.900503850e-11
-2.930000000e-02	2.321448014e-01	2.453356974e-05	1.054827396e-11
-2.940000000e-02	2.321447891e-01	2.688971672e-05	1.172818430e-11
-2.950000000e-02	2.321447767e-01	2.924586299e-05	2.160890176e-11
-2.960000000e-02	2.321447642e-01	3.160200857e-05	3.259050442e-11
-2.970000000e-02	2.321447517e-01	3.395815342e-05	2.558631179e-11
-2.980000000e-02	2.321447391e-01	3.631429757e-05	2.566403117e-11
-2.990000000e-02	2.321447264e-01	3.867044100e-05	5.353914020e-12
-3.000000000e-02	2.321447137e-01	4.102658371e-05	9.361698163e-12
