# Im(epsi1)     Re(omega/c)      Im(omega/c)      Eq(det).Opt det CON kz, R=0.5 \mum, mu_c=0.3, Re(epsi1)=3.90solve_det_conkz_vs_kz.py
0.000000000e+00	2.321354831e-01	-6.657959362e-04	1.330781660e-11
-1.000000000e-04	2.321354918e-01	-6.634398106e-04	1.291861011e-11
-2.000000000e-04	2.321355004e-01	-6.610836846e-04	9.189038061e-12
-3.000000000e-04	2.321355089e-01	-6.587275583e-04	1.968400994e-11
-4.000000000e-04	2.321355174e-01	-6.563714317e-04	1.005239736e-11
-5.000000000e-04	2.321355258e-01	-6.540153046e-04	3.395952821e-11
-6.000000000e-04	2.321355342e-01	-6.516591773e-04	3.933603413e-11
-7.000000000e-04	2.321355424e-01	-6.493030496e-04	5.934616153e-12
-8.000000000e-04	2.321355506e-01	-6.469469215e-04	1.375618101e-11
-9.000000000e-04	2.321355588e-01	-6.445907931e-04	3.917360383e-11
-1.000000000e-03	2.321355668e-01	-6.422346644e-04	1.279336476e-11
-1.100000000e-03	2.321355748e-01	-6.398785354e-04	1.569591011e-11
-1.200000000e-03	2.321355827e-01	-6.375224060e-04	2.852765975e-11
-1.300000000e-03	2.321355906e-01	-6.351662763e-04	3.940331598e-11
-1.400000000e-03	2.321355983e-01	-6.328101463e-04	4.889257810e-11
-1.500000000e-03	2.321356060e-01	-6.304540160e-04	1.842371672e-11
-1.600000000e-03	2.321356136e-01	-6.280978853e-04	1.070076782e-11
-1.700000000e-03	2.321356212e-01	-6.257417544e-04	9.757162809e-12
-1.800000000e-03	2.321356287e-01	-6.233856231e-04	1.619461282e-11
-1.900000000e-03	2.321356361e-01	-6.210294916e-04	2.725914888e-11
-2.000000000e-03	2.321356434e-01	-6.186733598e-04	1.074768341e-11
-2.100000000e-03	2.321356507e-01	-6.163172276e-04	3.554020251e-11
-2.200000000e-03	2.321356579e-01	-6.139610952e-04	6.834625130e-12
-2.300000000e-03	2.321356650e-01	-6.116049625e-04	3.691240312e-11
-2.400000000e-03	2.321356720e-01	-6.092488295e-04	9.630662379e-12
-2.500000000e-03	2.321356790e-01	-6.068926962e-04	1.273974996e-11
-2.600000000e-03	2.321356859e-01	-6.045365627e-04	5.314148284e-11
-2.700000000e-03	2.321356928e-01	-6.021804288e-04	1.586169565e-11
-2.800000000e-03	2.321356995e-01	-5.998242948e-04	3.687981651e-12
-2.900000000e-03	2.321357062e-01	-5.974681604e-04	3.633415593e-11
-3.000000000e-03	2.321357128e-01	-5.951120258e-04	8.538468402e-12
-3.100000000e-03	2.321357194e-01	-5.927558909e-04	3.887554453e-11
-3.200000000e-03	2.321357259e-01	-5.903997558e-04	2.413586799e-11
-3.300000000e-03	2.321357323e-01	-5.880436204e-04	8.048663055e-12
-3.400000000e-03	2.321357386e-01	-5.856874848e-04	1.024435964e-11
-3.500000000e-03	2.321357449e-01	-5.833313490e-04	1.157010339e-11
-3.600000000e-03	2.321357511e-01	-5.809752129e-04	1.129787587e-11
-3.700000000e-03	2.321357572e-01	-5.786190766e-04	1.599975978e-11
-3.800000000e-03	2.321357632e-01	-5.762629400e-04	7.529034536e-12
-3.900000000e-03	2.321357692e-01	-5.739068032e-04	1.589683027e-11
-4.000000000e-03	2.321357751e-01	-5.715506662e-04	6.782274061e-12
-4.100000000e-03	2.321357809e-01	-5.691945290e-04	4.889101914e-11
-4.200000000e-03	2.321357867e-01	-5.668383915e-04	1.423146308e-11
-4.300000000e-03	2.321357924e-01	-5.644822539e-04	3.557571328e-11
-4.400000000e-03	2.321357980e-01	-5.621261160e-04	2.207117584e-11
-4.500000000e-03	2.321358035e-01	-5.597699779e-04	1.209642736e-11
-4.600000000e-03	2.321358090e-01	-5.574138396e-04	1.393852580e-11
-4.700000000e-03	2.321358144e-01	-5.550577012e-04	1.231771714e-11
-4.800000000e-03	2.321358197e-01	-5.527015625e-04	2.493743764e-11
-4.900000000e-03	2.321358250e-01	-5.503454236e-04	1.427974920e-11
-5.000000000e-03	2.321358302e-01	-5.479892846e-04	1.606415331e-11
-5.100000000e-03	2.321358353e-01	-5.456331454e-04	3.653024064e-11
-5.200000000e-03	2.321358403e-01	-5.432770060e-04	5.690976989e-12
-5.300000000e-03	2.321358453e-01	-5.409208664e-04	3.341776513e-11
-5.400000000e-03	2.321358502e-01	-5.385647266e-04	1.353594338e-11
-5.500000000e-03	2.321358550e-01	-5.362085867e-04	2.420988579e-11
-5.600000000e-03	2.321358598e-01	-5.338524466e-04	7.790100437e-12
-5.700000000e-03	2.321358645e-01	-5.314963063e-04	1.056722951e-11
-5.800000000e-03	2.321358691e-01	-5.291401659e-04	3.604818388e-11
-5.900000000e-03	2.321358736e-01	-5.267840253e-04	1.537332526e-11
-6.000000000e-03	2.321358781e-01	-5.244278846e-04	2.611054584e-11
-6.100000000e-03	2.321358825e-01	-5.220717438e-04	1.284998927e-11
-6.200000000e-03	2.321358868e-01	-5.197156027e-04	6.151462161e-12
-6.300000000e-03	2.321358911e-01	-5.173594616e-04	1.463800549e-11
-6.400000000e-03	2.321358952e-01	-5.150033203e-04	6.118760222e-12
-6.500000000e-03	2.321358994e-01	-5.126471789e-04	8.038010082e-12
-6.600000000e-03	2.321359034e-01	-5.102910373e-04	1.792727994e-11
-6.700000000e-03	2.321359074e-01	-5.079348957e-04	1.060054443e-11
-6.800000000e-03	2.321359113e-01	-5.055787539e-04	3.183569300e-11
-6.900000000e-03	2.321359151e-01	-5.032226119e-04	1.520465538e-11
-7.000000000e-03	2.321359188e-01	-5.008664699e-04	4.559462285e-11
-7.100000000e-03	2.321359225e-01	-4.985103278e-04	2.291165645e-11
-7.200000000e-03	2.321359261e-01	-4.961541855e-04	1.490448864e-11
-7.300000000e-03	2.321359297e-01	-4.937980432e-04	7.790041633e-12
-7.400000000e-03	2.321359331e-01	-4.914419007e-04	3.223056640e-11
-7.500000000e-03	2.321359365e-01	-4.890857582e-04	1.404944267e-11
-7.600000000e-03	2.321359398e-01	-4.867296155e-04	7.426181926e-12
-7.700000000e-03	2.321359431e-01	-4.843734728e-04	3.969238742e-11
-7.800000000e-03	2.321359463e-01	-4.820173300e-04	1.208963748e-11
-7.900000000e-03	2.321359494e-01	-4.796611871e-04	1.669861559e-11
-8.000000000e-03	2.321359524e-01	-4.773050441e-04	1.173520180e-11
-8.100000000e-03	2.321359554e-01	-4.749489010e-04	1.071192974e-11
-8.200000000e-03	2.321359583e-01	-4.725927579e-04	7.178637765e-12
-8.300000000e-03	2.321359611e-01	-4.702366147e-04	1.163037668e-11
-8.400000000e-03	2.321359638e-01	-4.678804715e-04	1.890470351e-11
-8.500000000e-03	2.321359665e-01	-4.655243282e-04	2.085836644e-11
-8.600000000e-03	2.321359691e-01	-4.631681848e-04	1.204397493e-11
-8.700000000e-03	2.321359716e-01	-4.608120414e-04	8.986794843e-12
-8.800000000e-03	2.321359741e-01	-4.584558979e-04	1.508646533e-11
-8.900000000e-03	2.321359765e-01	-4.560997544e-04	9.513606946e-12
-9.000000000e-03	2.321359788e-01	-4.537436108e-04	1.622045507e-11
-9.100000000e-03	2.321359810e-01	-4.513874672e-04	1.179398870e-11
-9.200000000e-03	2.321359832e-01	-4.490313236e-04	1.269814520e-11
-9.300000000e-03	2.321359853e-01	-4.466751799e-04	1.052198625e-11
-9.400000000e-03	2.321359873e-01	-4.443190362e-04	1.832844043e-11
-9.500000000e-03	2.321359893e-01	-4.419628925e-04	1.955552417e-11
-9.600000000e-03	2.321359912e-01	-4.396067488e-04	1.434138731e-11
-9.700000000e-03	2.321359930e-01	-4.372506050e-04	2.071035423e-11
-9.800000000e-03	2.321359948e-01	-4.348944613e-04	1.030622266e-11
-9.900000000e-03	2.321359964e-01	-4.325383175e-04	1.540981268e-11
-1.000000000e-02	2.321359980e-01	-4.301821737e-04	1.414926577e-11
-1.010000000e-02	2.321359996e-01	-4.278260299e-04	1.284955019e-11
-1.020000000e-02	2.321360010e-01	-4.254698861e-04	8.743681613e-12
-1.030000000e-02	2.321360024e-01	-4.231137424e-04	5.900880992e-12
-1.040000000e-02	2.321360037e-01	-4.207575986e-04	3.636082735e-11
-1.050000000e-02	2.321360050e-01	-4.184014548e-04	7.953772512e-12
-1.060000000e-02	2.321360061e-01	-4.160453111e-04	7.746091072e-12
-1.070000000e-02	2.321360072e-01	-4.136891674e-04	1.258367806e-10
-1.080000000e-02	2.321360082e-01	-4.113330237e-04	9.494539560e-12
-1.090000000e-02	2.321360092e-01	-4.089768800e-04	9.114003557e-12
-1.100000000e-02	2.321360101e-01	-4.066207364e-04	2.556106441e-11
-1.110000000e-02	2.321360109e-01	-4.042645928e-04	1.414980167e-11
-1.120000000e-02	2.321360116e-01	-4.019084492e-04	4.256849238e-11
-1.130000000e-02	2.321360123e-01	-3.995523057e-04	8.758428693e-12
-1.140000000e-02	2.321360129e-01	-3.971961622e-04	8.331082210e-11
-1.150000000e-02	2.321360134e-01	-3.948400188e-04	1.184055329e-11
-1.160000000e-02	2.321360139e-01	-3.924838754e-04	2.025830235e-11
-1.170000000e-02	2.321360143e-01	-3.901277321e-04	4.692667854e-11
-1.180000000e-02	2.321360146e-01	-3.877715889e-04	8.393728763e-12
-1.190000000e-02	2.321360148e-01	-3.854154457e-04	1.629424020e-11
-1.200000000e-02	2.321360150e-01	-3.830593025e-04	1.674762297e-11
-1.210000000e-02	2.321360151e-01	-3.807031595e-04	1.251154969e-11
-1.220000000e-02	2.321360151e-01	-3.783470165e-04	1.195159982e-11
-1.230000000e-02	2.321360150e-01	-3.759908736e-04	1.728555674e-11
-1.240000000e-02	2.321360149e-01	-3.736347308e-04	1.349493429e-11
-1.250000000e-02	2.321360147e-01	-3.712785880e-04	2.125926482e-11
-1.260000000e-02	2.321360145e-01	-3.689224454e-04	1.824711328e-11
-1.270000000e-02	2.321360141e-01	-3.665663028e-04	8.264874035e-12
-1.280000000e-02	2.321360137e-01	-3.642101604e-04	9.807241914e-12
-1.290000000e-02	2.321360132e-01	-3.618540180e-04	9.504329771e-12
-1.300000000e-02	2.321360127e-01	-3.594978757e-04	1.581410165e-11
-1.310000000e-02	2.321360121e-01	-3.571417336e-04	1.107219068e-11
-1.320000000e-02	2.321360114e-01	-3.547855915e-04	1.869608477e-11
-1.330000000e-02	2.321360106e-01	-3.524294496e-04	1.035083133e-11
-1.340000000e-02	2.321360098e-01	-3.500733078e-04	4.015401160e-11
-1.350000000e-02	2.321360089e-01	-3.477171661e-04	1.000853304e-11
-1.360000000e-02	2.321360079e-01	-3.453610246e-04	1.288186153e-11
-1.370000000e-02	2.321360068e-01	-3.430048831e-04	6.492818940e-12
-1.380000000e-02	2.321360057e-01	-3.406487418e-04	5.099668960e-12
-1.390000000e-02	2.321360045e-01	-3.382926007e-04	2.853259445e-11
-1.400000000e-02	2.321360032e-01	-3.359364597e-04	5.463588758e-11
-1.410000000e-02	2.321360019e-01	-3.335803188e-04	1.864086998e-11
-1.420000000e-02	2.321360005e-01	-3.312241780e-04	4.571601211e-12
-1.430000000e-02	2.321359990e-01	-3.288680375e-04	8.860129796e-12
-1.440000000e-02	2.321359974e-01	-3.265118970e-04	5.300927301e-12
-1.450000000e-02	2.321359958e-01	-3.241557568e-04	1.252515348e-11
-1.460000000e-02	2.321359941e-01	-3.217996167e-04	2.637285392e-11
-1.470000000e-02	2.321359923e-01	-3.194434767e-04	4.213932837e-11
-1.480000000e-02	2.321359905e-01	-3.170873369e-04	1.417313590e-11
-1.490000000e-02	2.321359886e-01	-3.147311973e-04	2.212537630e-11
-1.500000000e-02	2.321359866e-01	-3.123750579e-04	2.818240262e-11
-1.510000000e-02	2.321359846e-01	-3.100189187e-04	5.987131181e-12
-1.520000000e-02	2.321359824e-01	-3.076627796e-04	1.800848025e-11
-1.530000000e-02	2.321359802e-01	-3.053066407e-04	1.469438893e-11
-1.540000000e-02	2.321359780e-01	-3.029505021e-04	9.227471826e-12
-1.550000000e-02	2.321359756e-01	-3.005943636e-04	1.953177711e-11
-1.560000000e-02	2.321359732e-01	-2.982382253e-04	1.260251360e-11
-1.570000000e-02	2.321359707e-01	-2.958820872e-04	4.973434928e-11
-1.580000000e-02	2.321359681e-01	-2.935259493e-04	6.977870781e-12
-1.590000000e-02	2.321359655e-01	-2.911698116e-04	1.298390290e-11
-1.600000000e-02	2.321359628e-01	-2.888136742e-04	8.367479353e-12
-1.610000000e-02	2.321359600e-01	-2.864575369e-04	9.788636363e-12
-1.620000000e-02	2.321359572e-01	-2.841013999e-04	1.210091960e-11
-1.630000000e-02	2.321359543e-01	-2.817452631e-04	1.717892932e-11
-1.640000000e-02	2.321359513e-01	-2.793891265e-04	7.369960660e-12
-1.650000000e-02	2.321359482e-01	-2.770329902e-04	7.943747877e-12
-1.660000000e-02	2.321359451e-01	-2.746768541e-04	1.288579117e-11
-1.670000000e-02	2.321359419e-01	-2.723207182e-04	2.375697329e-11
-1.680000000e-02	2.321359386e-01	-2.699645826e-04	7.798217756e-11
-1.690000000e-02	2.321359353e-01	-2.676084472e-04	8.162968870e-12
-1.700000000e-02	2.321359318e-01	-2.652523120e-04	2.220003380e-11
-1.710000000e-02	2.321359284e-01	-2.628961772e-04	9.777960840e-12
-1.720000000e-02	2.321359248e-01	-2.605400425e-04	2.385419909e-11
-1.730000000e-02	2.321359212e-01	-2.581839082e-04	1.065023332e-11
-1.740000000e-02	2.321359175e-01	-2.558277741e-04	1.783468774e-11
-1.750000000e-02	2.321359137e-01	-2.534716402e-04	1.099564646e-11
-1.760000000e-02	2.321359098e-01	-2.511155067e-04	8.622698759e-12
-1.770000000e-02	2.321359059e-01	-2.487593734e-04	2.224568012e-11
-1.780000000e-02	2.321359019e-01	-2.464032403e-04	3.227228685e-11
-1.790000000e-02	2.321358978e-01	-2.440471076e-04	2.952661265e-11
-1.800000000e-02	2.321358937e-01	-2.416909752e-04	2.285333232e-11
-1.810000000e-02	2.321358895e-01	-2.393348430e-04	1.533826945e-11
-1.820000000e-02	2.321358852e-01	-2.369787111e-04	1.036472202e-11
-1.830000000e-02	2.321358809e-01	-2.346225796e-04	1.244913249e-11
-1.840000000e-02	2.321358764e-01	-2.322664483e-04	1.925385301e-11
-1.850000000e-02	2.321358720e-01	-2.299103173e-04	6.384020645e-11
-1.860000000e-02	2.321358674e-01	-2.275541867e-04	1.841635692e-11
-1.870000000e-02	2.321358627e-01	-2.251980563e-04	2.493945230e-11
-1.880000000e-02	2.321358580e-01	-2.228419263e-04	1.088893492e-11
-1.890000000e-02	2.321358533e-01	-2.204857966e-04	8.163957576e-12
-1.900000000e-02	2.321358484e-01	-2.181296672e-04	1.139087965e-11
-1.910000000e-02	2.321358435e-01	-2.157735381e-04	1.091415015e-11
-1.920000000e-02	2.321358385e-01	-2.134174094e-04	9.004666892e-12
-1.930000000e-02	2.321358334e-01	-2.110612809e-04	2.289542453e-11
-1.940000000e-02	2.321358283e-01	-2.087051529e-04	1.115887228e-11
-1.950000000e-02	2.321358231e-01	-2.063490251e-04	3.188737202e-11
-1.960000000e-02	2.321358178e-01	-2.039928978e-04	1.744188974e-11
-1.970000000e-02	2.321358124e-01	-2.016367707e-04	9.490299759e-12
-1.980000000e-02	2.321358070e-01	-1.992806440e-04	7.962480575e-12
-1.990000000e-02	2.321358015e-01	-1.969245177e-04	7.934063742e-12
-2.000000000e-02	2.321357959e-01	-1.945683917e-04	6.882151908e-12
-2.010000000e-02	2.321357903e-01	-1.922122661e-04	6.587307318e-12
-2.020000000e-02	2.321357846e-01	-1.898561408e-04	4.209348679e-11
-2.030000000e-02	2.321357788e-01	-1.875000159e-04	1.462250701e-11
-2.040000000e-02	2.321357729e-01	-1.851438914e-04	1.340216505e-11
-2.050000000e-02	2.321357670e-01	-1.827877673e-04	9.941194463e-12
-2.060000000e-02	2.321357610e-01	-1.804316435e-04	7.807237012e-12
-2.070000000e-02	2.321357549e-01	-1.780755202e-04	2.063749438e-11
-2.080000000e-02	2.321357488e-01	-1.757193972e-04	1.710560934e-10
-2.090000000e-02	2.321357426e-01	-1.733632746e-04	8.253886940e-12
-2.100000000e-02	2.321357363e-01	-1.710071524e-04	1.350236277e-11
-2.110000000e-02	2.321357299e-01	-1.686510306e-04	1.977667062e-11
-2.120000000e-02	2.321357235e-01	-1.662949092e-04	9.421637667e-12
-2.130000000e-02	2.321357170e-01	-1.639387882e-04	1.358121875e-11
-2.140000000e-02	2.321357104e-01	-1.615826676e-04	1.973990716e-11
-2.150000000e-02	2.321357038e-01	-1.592265474e-04	3.131983789e-11
-2.160000000e-02	2.321356970e-01	-1.568704277e-04	1.257440495e-11
-2.170000000e-02	2.321356903e-01	-1.545143083e-04	1.419398722e-11
-2.180000000e-02	2.321356834e-01	-1.521581894e-04	1.190265272e-11
-2.190000000e-02	2.321356765e-01	-1.498020709e-04	1.078749426e-11
-2.200000000e-02	2.321356695e-01	-1.474459529e-04	7.266068783e-11
-2.210000000e-02	2.321356624e-01	-1.450898353e-04	1.054659475e-11
-2.220000000e-02	2.321356552e-01	-1.427337181e-04	1.383264022e-11
-2.230000000e-02	2.321356480e-01	-1.403776013e-04	1.232876010e-11
-2.240000000e-02	2.321356407e-01	-1.380214850e-04	2.014220964e-11
-2.250000000e-02	2.321356334e-01	-1.356653692e-04	1.515596653e-11
-2.260000000e-02	2.321356259e-01	-1.333092538e-04	6.966243890e-12
-2.270000000e-02	2.321356184e-01	-1.309531388e-04	2.059892761e-11
-2.280000000e-02	2.321356108e-01	-1.285970244e-04	1.108055139e-11
-2.290000000e-02	2.321356032e-01	-1.262409103e-04	7.391197672e-12
-2.300000000e-02	2.321355955e-01	-1.238847968e-04	2.371136083e-11
-2.310000000e-02	2.321355877e-01	-1.215286837e-04	8.952801865e-12
-2.320000000e-02	2.321355798e-01	-1.191725711e-04	7.365410054e-11
-2.330000000e-02	2.321355719e-01	-1.168164590e-04	8.575016881e-12
-2.340000000e-02	2.321355639e-01	-1.144603473e-04	2.854494281e-11
-2.350000000e-02	2.321355558e-01	-1.121042362e-04	4.284956547e-11
-2.360000000e-02	2.321355476e-01	-1.097481255e-04	1.846576006e-11
-2.370000000e-02	2.321355394e-01	-1.073920153e-04	2.185922729e-11
-2.380000000e-02	2.321355311e-01	-1.050359056e-04	7.483174646e-12
-2.390000000e-02	2.321355227e-01	-1.026797965e-04	1.164269123e-11
-2.400000000e-02	2.321355143e-01	-1.003236878e-04	4.459589286e-11
-2.410000000e-02	2.321355058e-01	-9.796757960e-05	7.278470568e-12
-2.420000000e-02	2.321354972e-01	-9.561147194e-05	8.578763682e-12
-2.430000000e-02	2.321354886e-01	-9.325536479e-05	1.049628522e-11
-2.440000000e-02	2.321354798e-01	-9.089925815e-05	2.073755377e-11
-2.450000000e-02	2.321354710e-01	-8.854315205e-05	1.740900025e-11
-2.460000000e-02	2.321354622e-01	-8.618704646e-05	9.371668982e-12
-2.470000000e-02	2.321354532e-01	-8.383094141e-05	1.180007001e-11
-2.480000000e-02	2.321354442e-01	-8.147483688e-05	6.606139352e-12
-2.490000000e-02	2.321354351e-01	-7.911873290e-05	2.628363473e-11
-2.500000000e-02	2.321354260e-01	-7.676262945e-05	9.840682169e-12
-2.510000000e-02	2.321354167e-01	-7.440652655e-05	1.060593979e-11
-2.520000000e-02	2.321354075e-01	-7.205042419e-05	1.205498945e-11
-2.530000000e-02	2.321353981e-01	-6.969432238e-05	6.227477986e-12
-2.540000000e-02	2.321353886e-01	-6.733822113e-05	5.259570375e-12
-2.550000000e-02	2.321353791e-01	-6.498212044e-05	1.427578644e-11
-2.560000000e-02	2.321353695e-01	-6.262602030e-05	1.276279468e-11
-2.570000000e-02	2.321353599e-01	-6.026992074e-05	2.040819298e-11
-2.580000000e-02	2.321353502e-01	-5.791382174e-05	1.417424644e-11
-2.590000000e-02	2.321353403e-01	-5.555772331e-05	1.180774937e-11
-2.600000000e-02	2.321353305e-01	-5.320162546e-05	7.991912303e-12
-2.610000000e-02	2.321353205e-01	-5.084552819e-05	1.360791605e-11
-2.620000000e-02	2.321353105e-01	-4.848943151e-05	1.024912985e-11
-2.630000000e-02	2.321353004e-01	-4.613333541e-05	1.312379938e-11
-2.640000000e-02	2.321352903e-01	-4.377723990e-05	9.635254292e-12
-2.650000000e-02	2.321352800e-01	-4.142114498e-05	1.042455401e-11
-2.660000000e-02	2.321352697e-01	-3.906505067e-05	5.248016213e-11
-2.670000000e-02	2.321352594e-01	-3.670895695e-05	1.215732872e-11
-2.680000000e-02	2.321352489e-01	-3.435286384e-05	7.212253776e-12
-2.690000000e-02	2.321352384e-01	-3.199677134e-05	1.336114192e-11
-2.700000000e-02	2.321352278e-01	-2.964067945e-05	1.585956511e-11
-2.710000000e-02	2.321352171e-01	-2.728458817e-05	4.528939298e-11
-2.720000000e-02	2.321352064e-01	-2.492849752e-05	1.744892933e-11
-2.730000000e-02	2.321351956e-01	-2.257240749e-05	1.328277920e-11
-2.740000000e-02	2.321351847e-01	-2.021631809e-05	1.243428177e-11
-2.750000000e-02	2.321351738e-01	-1.786022931e-05	1.033616940e-11
-2.760000000e-02	2.321351628e-01	-1.550414118e-05	1.692337932e-11
-2.770000000e-02	2.321351517e-01	-1.314805367e-05	2.497207124e-11
-2.780000000e-02	2.321351405e-01	-1.079196682e-05	1.582702113e-11
-2.790000000e-02	2.321351293e-01	-8.435880604e-06	7.135327139e-12
-2.800000000e-02	2.321351180e-01	-6.079795040e-06	2.718248250e-11
-2.810000000e-02	2.321351066e-01	-3.723710125e-06	8.516985023e-12
-2.820000000e-02	2.321350951e-01	-1.367625867e-06	1.375583430e-11
-2.830000000e-02	2.321350836e-01	9.884577292e-07	6.028000660e-12
-2.840000000e-02	2.321350720e-01	3.344540663e-06	1.249602024e-11
-2.850000000e-02	2.321350604e-01	5.700622929e-06	2.168658185e-11
-2.860000000e-02	2.321350486e-01	8.056704528e-06	2.145645791e-11
-2.870000000e-02	2.321350368e-01	1.041278545e-05	1.629553401e-11
-2.880000000e-02	2.321350249e-01	1.276886569e-05	1.533590452e-11
-2.890000000e-02	2.321350130e-01	1.512494525e-05	5.139278256e-12
-2.900000000e-02	2.321350010e-01	1.748102413e-05	7.811620873e-12
-2.910000000e-02	2.321349889e-01	1.983710232e-05	2.321955918e-11
-2.920000000e-02	2.321349767e-01	2.219317982e-05	1.341943565e-11
-2.930000000e-02	2.321349645e-01	2.454925662e-05	1.398686094e-11
-2.940000000e-02	2.321349521e-01	2.690533272e-05	5.777672034e-11
-2.950000000e-02	2.321349398e-01	2.926140812e-05	7.778353048e-12
-2.960000000e-02	2.321349273e-01	3.161748281e-05	1.384892604e-11
-2.970000000e-02	2.321349148e-01	3.397355679e-05	3.301710611e-11
-2.980000000e-02	2.321349022e-01	3.632963005e-05	1.571529293e-11
-2.990000000e-02	2.321348895e-01	3.868570260e-05	7.634374070e-12
-3.000000000e-02	2.321348768e-01	4.104177443e-05	1.164864283e-11
