# Im(epsi1)     Re(omega/c)      Im(omega/c)      Eq(det).Opt det CON kz, R=0.5 \mum, mu_c=0.3, Re(epsi1)=3.90solve_det_conkz_vs_kz.py
0.000000000e+00	2.321670204e-01	-6.659127961e-04	5.055031617e-11
-1.000000000e-04	2.321670291e-01	-6.635564432e-04	1.277493567e-11
-2.000000000e-04	2.321670377e-01	-6.612000900e-04	1.477113968e-11
-3.000000000e-04	2.321670462e-01	-6.588437364e-04	1.096130340e-11
-4.000000000e-04	2.321670547e-01	-6.564873824e-04	1.984626481e-11
-5.000000000e-04	2.321670631e-01	-6.541310281e-04	2.221887270e-11
-6.000000000e-04	2.321670715e-01	-6.517746734e-04	2.724393709e-11
-7.000000000e-04	2.321670798e-01	-6.494183184e-04	1.085863668e-11
-8.000000000e-04	2.321670880e-01	-6.470619631e-04	3.788208129e-11
-9.000000000e-04	2.321670961e-01	-6.447056074e-04	1.086563838e-11
-1.000000000e-03	2.321671041e-01	-6.423492514e-04	2.535922755e-11
-1.100000000e-03	2.321671121e-01	-6.399928951e-04	4.597604117e-12
-1.200000000e-03	2.321671200e-01	-6.376365384e-04	4.121891884e-12
-1.300000000e-03	2.321671279e-01	-6.352801814e-04	1.471169913e-11
-1.400000000e-03	2.321671357e-01	-6.329238241e-04	6.655643057e-12
-1.500000000e-03	2.321671433e-01	-6.305674665e-04	1.913205889e-11
-1.600000000e-03	2.321671510e-01	-6.282111086e-04	1.440500401e-11
-1.700000000e-03	2.321671585e-01	-6.258547503e-04	1.426227518e-11
-1.800000000e-03	2.321671660e-01	-6.234983918e-04	1.464134310e-11
-1.900000000e-03	2.321671734e-01	-6.211420330e-04	6.424898503e-12
-2.000000000e-03	2.321671808e-01	-6.187856738e-04	1.973564293e-11
-2.100000000e-03	2.321671880e-01	-6.164293144e-04	1.696319451e-11
-2.200000000e-03	2.321671952e-01	-6.140729547e-04	2.357458452e-11
-2.300000000e-03	2.321672023e-01	-6.117165947e-04	1.314349297e-11
-2.400000000e-03	2.321672094e-01	-6.093602344e-04	2.160928215e-11
-2.500000000e-03	2.321672164e-01	-6.070038738e-04	3.407472759e-11
-2.600000000e-03	2.321672233e-01	-6.046475130e-04	8.831645130e-12
-2.700000000e-03	2.321672301e-01	-6.022911519e-04	3.895072772e-10
-2.800000000e-03	2.321672369e-01	-5.999347905e-04	1.229446474e-11
-2.900000000e-03	2.321672436e-01	-5.975784288e-04	1.465258934e-11
-3.000000000e-03	2.321672502e-01	-5.952220669e-04	1.337231910e-11
-3.100000000e-03	2.321672568e-01	-5.928657048e-04	2.588679606e-11
-3.200000000e-03	2.321672632e-01	-5.905093424e-04	4.410266693e-11
-3.300000000e-03	2.321672696e-01	-5.881529797e-04	1.383276201e-11
-3.400000000e-03	2.321672760e-01	-5.857966168e-04	4.347780026e-11
-3.500000000e-03	2.321672822e-01	-5.834402536e-04	1.514805569e-11
-3.600000000e-03	2.321672884e-01	-5.810838902e-04	1.995016387e-11
-3.700000000e-03	2.321672946e-01	-5.787275266e-04	1.277663115e-11
-3.800000000e-03	2.321673006e-01	-5.763711628e-04	6.178431748e-11
-3.900000000e-03	2.321673066e-01	-5.740147987e-04	2.024460159e-11
-4.000000000e-03	2.321673125e-01	-5.716584344e-04	1.300060353e-11
-4.100000000e-03	2.321673183e-01	-5.693020699e-04	8.661948671e-12
-4.200000000e-03	2.321673241e-01	-5.669457051e-04	8.831285992e-12
-4.300000000e-03	2.321673298e-01	-5.645893402e-04	1.869180811e-11
-4.400000000e-03	2.321673354e-01	-5.622329750e-04	1.415566599e-11
-4.500000000e-03	2.321673409e-01	-5.598766096e-04	2.557236831e-11
-4.600000000e-03	2.321673464e-01	-5.575202441e-04	2.648097013e-11
-4.700000000e-03	2.321673518e-01	-5.551638783e-04	1.067025857e-11
-4.800000000e-03	2.321673571e-01	-5.528075123e-04	8.385581565e-12
-4.900000000e-03	2.321673624e-01	-5.504511462e-04	1.475362207e-11
-5.000000000e-03	2.321673676e-01	-5.480947798e-04	4.961849437e-12
-5.100000000e-03	2.321673727e-01	-5.457384133e-04	2.545947846e-11
-5.200000000e-03	2.321673777e-01	-5.433820466e-04	3.219508533e-11
-5.300000000e-03	2.321673827e-01	-5.410256797e-04	7.158864120e-12
-5.400000000e-03	2.321673876e-01	-5.386693127e-04	1.216548895e-11
-5.500000000e-03	2.321673924e-01	-5.363129454e-04	3.308755281e-11
-5.600000000e-03	2.321673972e-01	-5.339565780e-04	1.069596176e-10
-5.700000000e-03	2.321674019e-01	-5.316002105e-04	1.007239326e-11
-5.800000000e-03	2.321674065e-01	-5.292438428e-04	1.183965208e-11
-5.900000000e-03	2.321674110e-01	-5.268874749e-04	1.112993035e-11
-6.000000000e-03	2.321674155e-01	-5.245311069e-04	9.192303376e-12
-6.100000000e-03	2.321674199e-01	-5.221747387e-04	2.775955970e-11
-6.200000000e-03	2.321674242e-01	-5.198183704e-04	1.450651740e-11
-6.300000000e-03	2.321674285e-01	-5.174620020e-04	1.060813088e-11
-6.400000000e-03	2.321674327e-01	-5.151056334e-04	7.771666515e-12
-6.500000000e-03	2.321674368e-01	-5.127492647e-04	6.923594397e-11
-6.600000000e-03	2.321674408e-01	-5.103928958e-04	9.141994741e-12
-6.700000000e-03	2.321674448e-01	-5.080365269e-04	1.490911678e-11
-6.800000000e-03	2.321674487e-01	-5.056801578e-04	6.189382174e-12
-6.900000000e-03	2.321674525e-01	-5.033237885e-04	2.233189445e-11
-7.000000000e-03	2.321674563e-01	-5.009674192e-04	9.423765684e-12
-7.100000000e-03	2.321674600e-01	-4.986110498e-04	6.784573012e-12
-7.200000000e-03	2.321674636e-01	-4.962546802e-04	4.938984842e-12
-7.300000000e-03	2.321674671e-01	-4.938983106e-04	1.508238911e-11
-7.400000000e-03	2.321674706e-01	-4.915419408e-04	7.403850849e-12
-7.500000000e-03	2.321674740e-01	-4.891855710e-04	1.580771527e-11
-7.600000000e-03	2.321674773e-01	-4.868292010e-04	1.217006888e-11
-7.700000000e-03	2.321674805e-01	-4.844728310e-04	2.253003687e-11
-7.800000000e-03	2.321674837e-01	-4.821164609e-04	1.462628483e-11
-7.900000000e-03	2.321674868e-01	-4.797600907e-04	5.570299222e-12
-8.000000000e-03	2.321674899e-01	-4.774037204e-04	1.564731923e-11
-8.100000000e-03	2.321674928e-01	-4.750473501e-04	1.272618863e-11
-8.200000000e-03	2.321674957e-01	-4.726909797e-04	1.655961069e-11
-8.300000000e-03	2.321674985e-01	-4.703346092e-04	6.278185506e-12
-8.400000000e-03	2.321675013e-01	-4.679782386e-04	1.289387419e-11
-8.500000000e-03	2.321675040e-01	-4.656218680e-04	7.664341569e-12
-8.600000000e-03	2.321675066e-01	-4.632654973e-04	2.284891839e-11
-8.700000000e-03	2.321675091e-01	-4.609091266e-04	2.188434281e-10
-8.800000000e-03	2.321675116e-01	-4.585527558e-04	1.615078928e-11
-8.900000000e-03	2.321675140e-01	-4.561963850e-04	1.437241539e-11
-9.000000000e-03	2.321675163e-01	-4.538400142e-04	1.984832721e-11
-9.100000000e-03	2.321675185e-01	-4.514836433e-04	4.876931957e-11
-9.200000000e-03	2.321675207e-01	-4.491272723e-04	1.413445824e-11
-9.300000000e-03	2.321675228e-01	-4.467709014e-04	1.954847082e-11
-9.400000000e-03	2.321675248e-01	-4.444145304e-04	1.203525509e-11
-9.500000000e-03	2.321675268e-01	-4.420581594e-04	1.319836480e-11
-9.600000000e-03	2.321675287e-01	-4.397017883e-04	6.176826560e-12
-9.700000000e-03	2.321675305e-01	-4.373454173e-04	2.051085334e-11
-9.800000000e-03	2.321675323e-01	-4.349890462e-04	5.871696158e-12
-9.900000000e-03	2.321675339e-01	-4.326326751e-04	9.068633743e-12
-1.000000000e-02	2.321675355e-01	-4.302763041e-04	2.241047137e-11
-1.010000000e-02	2.321675371e-01	-4.279199330e-04	3.135498367e-11
-1.020000000e-02	2.321675385e-01	-4.255635619e-04	1.730457345e-11
-1.030000000e-02	2.321675399e-01	-4.232071908e-04	9.547352966e-12
-1.040000000e-02	2.321675412e-01	-4.208508198e-04	2.153924166e-11
-1.050000000e-02	2.321675425e-01	-4.184944487e-04	6.200990578e-11
-1.060000000e-02	2.321675436e-01	-4.161380777e-04	9.529703896e-12
-1.070000000e-02	2.321675447e-01	-4.137817067e-04	1.239567293e-11
-1.080000000e-02	2.321675458e-01	-4.114253357e-04	9.461884228e-12
-1.090000000e-02	2.321675467e-01	-4.090689647e-04	2.172487608e-12
-1.100000000e-02	2.321675476e-01	-4.067125938e-04	1.313542642e-11
-1.110000000e-02	2.321675484e-01	-4.043562229e-04	1.018994041e-11
-1.120000000e-02	2.321675492e-01	-4.019998520e-04	2.200259061e-11
-1.130000000e-02	2.321675498e-01	-3.996434812e-04	1.334191954e-11
-1.140000000e-02	2.321675504e-01	-3.972871104e-04	9.307172938e-12
-1.150000000e-02	2.321675509e-01	-3.949307397e-04	2.575114555e-11
-1.160000000e-02	2.321675514e-01	-3.925743690e-04	1.480297022e-11
-1.170000000e-02	2.321675518e-01	-3.902179984e-04	2.273991861e-11
-1.180000000e-02	2.321675521e-01	-3.878616278e-04	2.634817772e-11
-1.190000000e-02	2.321675523e-01	-3.855052573e-04	1.438055012e-11
-1.200000000e-02	2.321675525e-01	-3.831488869e-04	2.792233800e-11
-1.210000000e-02	2.321675526e-01	-3.807925165e-04	1.533060254e-11
-1.220000000e-02	2.321675526e-01	-3.784361463e-04	9.014887697e-12
-1.230000000e-02	2.321675526e-01	-3.760797760e-04	2.201602843e-11
-1.240000000e-02	2.321675525e-01	-3.737234059e-04	9.833423030e-12
-1.250000000e-02	2.321675523e-01	-3.713670359e-04	1.197328123e-11
-1.260000000e-02	2.321675520e-01	-3.690106659e-04	4.943506349e-11
-1.270000000e-02	2.321675517e-01	-3.666542961e-04	7.352998301e-12
-1.280000000e-02	2.321675513e-01	-3.642979263e-04	1.325475589e-11
-1.290000000e-02	2.321675508e-01	-3.619415567e-04	1.214169406e-11
-1.300000000e-02	2.321675502e-01	-3.595851871e-04	2.187590590e-11
-1.310000000e-02	2.321675496e-01	-3.572288176e-04	1.374470549e-11
-1.320000000e-02	2.321675489e-01	-3.548724483e-04	4.432238778e-11
-1.330000000e-02	2.321675482e-01	-3.525160791e-04	1.244950450e-11
-1.340000000e-02	2.321675473e-01	-3.501597100e-04	5.192441116e-12
-1.350000000e-02	2.321675464e-01	-3.478033410e-04	4.198216840e-12
-1.360000000e-02	2.321675454e-01	-3.454469721e-04	8.817811069e-12
-1.370000000e-02	2.321675444e-01	-3.430906034e-04	1.103173178e-11
-1.380000000e-02	2.321675433e-01	-3.407342348e-04	3.512275019e-12
-1.390000000e-02	2.321675421e-01	-3.383778663e-04	1.958833086e-11
-1.400000000e-02	2.321675408e-01	-3.360214980e-04	7.148195496e-12
-1.410000000e-02	2.321675395e-01	-3.336651298e-04	1.472224970e-11
-1.420000000e-02	2.321675381e-01	-3.313087618e-04	7.783459379e-12
-1.430000000e-02	2.321675366e-01	-3.289523939e-04	2.301982014e-11
-1.440000000e-02	2.321675350e-01	-3.265960262e-04	1.682168241e-11
-1.450000000e-02	2.321675334e-01	-3.242396586e-04	8.243125270e-12
-1.460000000e-02	2.321675317e-01	-3.218832912e-04	9.826118055e-12
-1.470000000e-02	2.321675299e-01	-3.195269240e-04	2.059224529e-11
-1.480000000e-02	2.321675281e-01	-3.171705569e-04	1.052068345e-11
-1.490000000e-02	2.321675262e-01	-3.148141900e-04	1.053925885e-11
-1.500000000e-02	2.321675242e-01	-3.124578232e-04	1.062894663e-11
-1.510000000e-02	2.321675221e-01	-3.101014567e-04	2.789248666e-11
-1.520000000e-02	2.321675200e-01	-3.077450903e-04	2.111271309e-11
-1.530000000e-02	2.321675178e-01	-3.053887242e-04	2.872388086e-11
-1.540000000e-02	2.321675155e-01	-3.030323582e-04	5.631465279e-11
-1.550000000e-02	2.321675132e-01	-3.006759924e-04	1.409348020e-11
-1.560000000e-02	2.321675108e-01	-2.983196268e-04	2.051038243e-11
-1.570000000e-02	2.321675083e-01	-2.959632614e-04	8.169659331e-12
-1.580000000e-02	2.321675057e-01	-2.936068962e-04	3.581567517e-11
-1.590000000e-02	2.321675031e-01	-2.912505312e-04	1.233524343e-11
-1.600000000e-02	2.321675004e-01	-2.888941665e-04	1.260768597e-11
-1.610000000e-02	2.321674976e-01	-2.865378019e-04	2.202507775e-11
-1.620000000e-02	2.321674948e-01	-2.841814376e-04	2.081151014e-11
-1.630000000e-02	2.321674919e-01	-2.818250735e-04	3.998017816e-11
-1.640000000e-02	2.321674889e-01	-2.794687096e-04	5.352719528e-12
-1.650000000e-02	2.321674858e-01	-2.771123460e-04	2.853103618e-11
-1.660000000e-02	2.321674827e-01	-2.747559825e-04	3.229108316e-11
-1.670000000e-02	2.321674795e-01	-2.723996194e-04	1.033327285e-11
-1.680000000e-02	2.321674762e-01	-2.700432564e-04	1.737025654e-11
-1.690000000e-02	2.321674729e-01	-2.676868937e-04	1.105417154e-11
-1.700000000e-02	2.321674695e-01	-2.653305313e-04	9.051208481e-12
-1.710000000e-02	2.321674660e-01	-2.629741691e-04	9.847979600e-12
-1.720000000e-02	2.321674624e-01	-2.606178072e-04	1.808353960e-11
-1.730000000e-02	2.321674588e-01	-2.582614455e-04	2.610903920e-11
-1.740000000e-02	2.321674551e-01	-2.559050841e-04	7.361375728e-11
-1.750000000e-02	2.321674513e-01	-2.535487230e-04	1.212486279e-11
-1.760000000e-02	2.321674474e-01	-2.511923621e-04	1.300567085e-11
-1.770000000e-02	2.321674435e-01	-2.488360015e-04	9.612727845e-12
-1.780000000e-02	2.321674395e-01	-2.464796412e-04	5.308973379e-12
-1.790000000e-02	2.321674355e-01	-2.441232811e-04	1.821850121e-11
-1.800000000e-02	2.321674313e-01	-2.417669214e-04	2.375108269e-11
-1.810000000e-02	2.321674271e-01	-2.394105619e-04	7.129132522e-12
-1.820000000e-02	2.321674229e-01	-2.370542027e-04	8.316287657e-12
-1.830000000e-02	2.321674185e-01	-2.346978439e-04	1.434617290e-11
-1.840000000e-02	2.321674141e-01	-2.323414853e-04	9.029669366e-12
-1.850000000e-02	2.321674096e-01	-2.299851270e-04	6.500945765e-12
-1.860000000e-02	2.321674050e-01	-2.276287690e-04	9.388622331e-11
-1.870000000e-02	2.321674004e-01	-2.252724114e-04	2.696508862e-11
-1.880000000e-02	2.321673957e-01	-2.229160541e-04	1.338036299e-11
-1.890000000e-02	2.321673909e-01	-2.205596970e-04	9.361609783e-12
-1.900000000e-02	2.321673860e-01	-2.182033403e-04	1.195308611e-11
-1.910000000e-02	2.321673811e-01	-2.158469840e-04	1.789201384e-11
-1.920000000e-02	2.321673761e-01	-2.134906279e-04	2.153122353e-11
-1.930000000e-02	2.321673711e-01	-2.111342722e-04	1.525850757e-11
-1.940000000e-02	2.321673659e-01	-2.087779168e-04	1.604798175e-11
-1.950000000e-02	2.321673607e-01	-2.064215618e-04	1.631975909e-11
-1.960000000e-02	2.321673554e-01	-2.040652071e-04	1.236828081e-11
-1.970000000e-02	2.321673501e-01	-2.017088527e-04	1.441413309e-11
-1.980000000e-02	2.321673446e-01	-1.993524987e-04	1.269298522e-11
-1.990000000e-02	2.321673392e-01	-1.969961451e-04	7.248755994e-12
-2.000000000e-02	2.321673336e-01	-1.946397918e-04	1.860065932e-11
-2.010000000e-02	2.321673279e-01	-1.922834389e-04	2.963728543e-11
-2.020000000e-02	2.321673222e-01	-1.899270863e-04	9.797023770e-12
-2.030000000e-02	2.321673164e-01	-1.875707341e-04	9.849728295e-12
-2.040000000e-02	2.321673106e-01	-1.852143823e-04	8.718862859e-12
-2.050000000e-02	2.321673047e-01	-1.828580309e-04	1.793696378e-11
-2.060000000e-02	2.321672987e-01	-1.805016798e-04	1.148246326e-11
-2.070000000e-02	2.321672926e-01	-1.781453291e-04	8.100239624e-12
-2.080000000e-02	2.321672864e-01	-1.757889788e-04	1.616058248e-11
-2.090000000e-02	2.321672802e-01	-1.734326289e-04	1.008914826e-11
-2.100000000e-02	2.321672739e-01	-1.710762794e-04	6.693603420e-12
-2.110000000e-02	2.321672676e-01	-1.687199303e-04	4.400983363e-11
-2.120000000e-02	2.321672612e-01	-1.663635816e-04	7.188076885e-12
-2.130000000e-02	2.321672547e-01	-1.640072333e-04	1.322004634e-11
-2.140000000e-02	2.321672481e-01	-1.616508854e-04	1.155569517e-11
-2.150000000e-02	2.321672414e-01	-1.592945379e-04	1.281965283e-11
-2.160000000e-02	2.321672347e-01	-1.569381909e-04	4.021969234e-11
-2.170000000e-02	2.321672279e-01	-1.545818442e-04	2.067598758e-11
-2.180000000e-02	2.321672211e-01	-1.522254980e-04	4.232002475e-12
-2.190000000e-02	2.321672141e-01	-1.498691522e-04	1.886427243e-11
-2.200000000e-02	2.321672071e-01	-1.475128069e-04	7.611490977e-12
-2.210000000e-02	2.321672001e-01	-1.451564619e-04	1.095616166e-11
-2.220000000e-02	2.321671929e-01	-1.428001174e-04	1.117748325e-11
-2.230000000e-02	2.321671857e-01	-1.404437734e-04	2.617274292e-11
-2.240000000e-02	2.321671784e-01	-1.380874298e-04	8.480480159e-12
-2.250000000e-02	2.321671710e-01	-1.357310866e-04	2.510082006e-11
-2.260000000e-02	2.321671636e-01	-1.333747439e-04	1.550017810e-11
-2.270000000e-02	2.321671561e-01	-1.310184017e-04	7.878094913e-12
-2.280000000e-02	2.321671485e-01	-1.286620599e-04	1.226954204e-11
-2.290000000e-02	2.321671409e-01	-1.263057186e-04	1.270155008e-11
-2.300000000e-02	2.321671332e-01	-1.239493777e-04	4.849207519e-11
-2.310000000e-02	2.321671254e-01	-1.215930373e-04	1.801103726e-11
-2.320000000e-02	2.321671175e-01	-1.192366974e-04	3.980586161e-11
-2.330000000e-02	2.321671096e-01	-1.168803580e-04	2.281787021e-11
-2.340000000e-02	2.321671016e-01	-1.145240190e-04	7.559189000e-12
-2.350000000e-02	2.321670935e-01	-1.121676805e-04	1.055749689e-11
-2.360000000e-02	2.321670853e-01	-1.098113426e-04	1.031626959e-11
-2.370000000e-02	2.321670771e-01	-1.074550051e-04	4.592430271e-11
-2.380000000e-02	2.321670688e-01	-1.050986681e-04	1.327118757e-11
-2.390000000e-02	2.321670605e-01	-1.027423316e-04	8.588669788e-12
-2.400000000e-02	2.321670520e-01	-1.003859956e-04	1.279746806e-11
-2.410000000e-02	2.321670435e-01	-9.802966011e-05	1.429454545e-11
-2.420000000e-02	2.321670349e-01	-9.567332514e-05	1.522792409e-11
-2.430000000e-02	2.321670263e-01	-9.331699068e-05	2.222473949e-11
-2.440000000e-02	2.321670175e-01	-9.096065674e-05	7.278576345e-12
-2.450000000e-02	2.321670088e-01	-8.860432332e-05	4.441428540e-11
-2.460000000e-02	2.321669999e-01	-8.624799043e-05	4.112471195e-11
-2.470000000e-02	2.321669909e-01	-8.389165807e-05	1.327161012e-11
-2.480000000e-02	2.321669819e-01	-8.153532623e-05	6.562043130e-12
-2.490000000e-02	2.321669729e-01	-7.917899494e-05	1.458577056e-11
-2.500000000e-02	2.321669637e-01	-7.682266418e-05	2.146278342e-12
-2.510000000e-02	2.321669545e-01	-7.446633397e-05	2.405791143e-11
-2.520000000e-02	2.321669452e-01	-7.211000430e-05	2.367841118e-11
-2.530000000e-02	2.321669358e-01	-6.975367519e-05	1.365100437e-11
-2.540000000e-02	2.321669264e-01	-6.739734663e-05	1.609920459e-11
-2.550000000e-02	2.321669168e-01	-6.504101862e-05	8.659766279e-12
-2.560000000e-02	2.321669073e-01	-6.268469118e-05	9.022277282e-12
-2.570000000e-02	2.321668976e-01	-6.032836431e-05	1.861829474e-11
-2.580000000e-02	2.321668879e-01	-5.797203800e-05	1.096186700e-11
-2.590000000e-02	2.321668781e-01	-5.561571226e-05	9.050190148e-12
-2.600000000e-02	2.321668682e-01	-5.325938710e-05	9.571857493e-12
-2.610000000e-02	2.321668583e-01	-5.090306252e-05	1.670377307e-11
-2.620000000e-02	2.321668482e-01	-4.854673853e-05	8.701994762e-12
-2.630000000e-02	2.321668382e-01	-4.619041512e-05	2.213469557e-11
-2.640000000e-02	2.321668280e-01	-4.383409230e-05	1.404567890e-11
-2.650000000e-02	2.321668178e-01	-4.147777007e-05	6.934972443e-12
-2.660000000e-02	2.321668075e-01	-3.912144845e-05	1.188732274e-11
-2.670000000e-02	2.321667971e-01	-3.676512742e-05	2.691992602e-11
-2.680000000e-02	2.321667867e-01	-3.440880700e-05	1.611880582e-11
-2.690000000e-02	2.321667761e-01	-3.205248719e-05	1.719508795e-11
-2.700000000e-02	2.321667655e-01	-2.969616799e-05	2.478822796e-12
-2.710000000e-02	2.321667549e-01	-2.733984940e-05	3.136489380e-11
-2.720000000e-02	2.321667442e-01	-2.498353144e-05	1.110965888e-11
-2.730000000e-02	2.321667334e-01	-2.262721410e-05	1.983984544e-11
-2.740000000e-02	2.321667225e-01	-2.027089739e-05	6.493200758e-12
-2.750000000e-02	2.321667115e-01	-1.791458130e-05	2.569244311e-11
-2.760000000e-02	2.321667005e-01	-1.555826585e-05	7.622345758e-12
-2.770000000e-02	2.321666894e-01	-1.320195104e-05	3.087504483e-12
-2.780000000e-02	2.321666783e-01	-1.084563687e-05	1.351707772e-11
-2.790000000e-02	2.321666670e-01	-8.489323347e-06	1.067997439e-11
-2.800000000e-02	2.321666557e-01	-6.133010471e-06	1.093554438e-11
-2.810000000e-02	2.321666443e-01	-3.776698247e-06	2.167895683e-11
-2.820000000e-02	2.321666329e-01	-1.420386680e-06	1.385096597e-11
-2.830000000e-02	2.321666214e-01	9.359242285e-07	1.233027564e-11
-2.840000000e-02	2.321666098e-01	3.292234474e-06	9.010349085e-12
-2.850000000e-02	2.321665981e-01	5.648544051e-06	2.343030162e-11
-2.860000000e-02	2.321665864e-01	8.004852959e-06	4.730185340e-12
-2.870000000e-02	2.321665746e-01	1.036116119e-05	1.908263869e-11
-2.880000000e-02	2.321665627e-01	1.271746875e-05	1.475628784e-11
-2.890000000e-02	2.321665507e-01	1.507377562e-05	1.093890450e-11
-2.900000000e-02	2.321665387e-01	1.743008181e-05	1.174049821e-11
-2.910000000e-02	2.321665266e-01	1.978638731e-05	1.107195114e-11
-2.920000000e-02	2.321665145e-01	2.214269212e-05	1.131745676e-11
-2.930000000e-02	2.321665022e-01	2.449899623e-05	1.996783889e-11
-2.940000000e-02	2.321664899e-01	2.685529964e-05	2.008502737e-11
-2.950000000e-02	2.321664775e-01	2.921160235e-05	1.041800756e-11
-2.960000000e-02	2.321664651e-01	3.156790436e-05	1.130769885e-11
-2.970000000e-02	2.321664525e-01	3.392420565e-05	1.218048313e-11
-2.980000000e-02	2.321664399e-01	3.628050623e-05	1.214021093e-11
-2.990000000e-02	2.321664273e-01	3.863680609e-05	6.042892505e-12
-3.000000000e-02	2.321664145e-01	4.099310522e-05	3.057046813e-11
