# Im(epsi1)     Re(omega/c)      Im(omega/c)      Eq(det).Opt det CON kz, R=0.5 \mum, mu_c=0.3, Re(epsi1)=3.90solve_det_conkz_vs_kz.py
0.000000000e+00	2.321490491e-01	-6.658462090e-04	1.614476220e-11
-1.000000000e-04	2.321490578e-01	-6.634899856e-04	1.250103349e-11
-2.000000000e-04	2.321490665e-01	-6.611337619e-04	1.043122644e-11
-3.000000000e-04	2.321490750e-01	-6.587775379e-04	1.175666042e-11
-4.000000000e-04	2.321490835e-01	-6.564213135e-04	1.044466815e-11
-5.000000000e-04	2.321490919e-01	-6.540650887e-04	8.958776119e-12
-6.000000000e-04	2.321491003e-01	-6.517088636e-04	2.256969373e-11
-7.000000000e-04	2.321491085e-01	-6.493526381e-04	9.998174014e-12
-8.000000000e-04	2.321491167e-01	-6.469964123e-04	1.013708305e-11
-9.000000000e-04	2.321491249e-01	-6.446401862e-04	7.352495614e-12
-1.000000000e-03	2.321491329e-01	-6.422839597e-04	1.436745987e-11
-1.100000000e-03	2.321491409e-01	-6.399277329e-04	4.602377809e-12
-1.200000000e-03	2.321491488e-01	-6.375715058e-04	1.257331911e-11
-1.300000000e-03	2.321491566e-01	-6.352152784e-04	2.077157253e-11
-1.400000000e-03	2.321491644e-01	-6.328590506e-04	2.012869682e-11
-1.500000000e-03	2.321491721e-01	-6.305028225e-04	6.936982902e-12
-1.600000000e-03	2.321491797e-01	-6.281465941e-04	1.478631108e-11
-1.700000000e-03	2.321491873e-01	-6.257903655e-04	1.043622919e-11
-1.800000000e-03	2.321491948e-01	-6.234341365e-04	1.617561576e-11
-1.900000000e-03	2.321492022e-01	-6.210779072e-04	1.748070018e-11
-2.000000000e-03	2.321492095e-01	-6.187216776e-04	3.276704281e-11
-2.100000000e-03	2.321492168e-01	-6.163654477e-04	2.955223188e-11
-2.200000000e-03	2.321492240e-01	-6.140092175e-04	1.124734565e-11
-2.300000000e-03	2.321492311e-01	-6.116529870e-04	6.792814582e-11
-2.400000000e-03	2.321492382e-01	-6.092967563e-04	2.213971642e-11
-2.500000000e-03	2.321492451e-01	-6.069405253e-04	2.451814943e-11
-2.600000000e-03	2.321492520e-01	-6.045842940e-04	6.496724511e-12
-2.700000000e-03	2.321492589e-01	-6.022280624e-04	1.420561078e-11
-2.800000000e-03	2.321492656e-01	-5.998718306e-04	8.483376323e-12
-2.900000000e-03	2.321492723e-01	-5.975155985e-04	1.226436301e-11
-3.000000000e-03	2.321492790e-01	-5.951593661e-04	9.400390093e-12
-3.100000000e-03	2.321492855e-01	-5.928031335e-04	6.776990849e-12
-3.200000000e-03	2.321492920e-01	-5.904469006e-04	8.809102697e-11
-3.300000000e-03	2.321492984e-01	-5.880906675e-04	1.177523484e-11
-3.400000000e-03	2.321493047e-01	-5.857344342e-04	6.174860983e-12
-3.500000000e-03	2.321493110e-01	-5.833782005e-04	2.909397094e-11
-3.600000000e-03	2.321493172e-01	-5.810219667e-04	6.235487544e-12
-3.700000000e-03	2.321493233e-01	-5.786657326e-04	1.323387579e-11
-3.800000000e-03	2.321493293e-01	-5.763094983e-04	3.382085807e-11
-3.900000000e-03	2.321493353e-01	-5.739532638e-04	4.882530498e-11
-4.000000000e-03	2.321493412e-01	-5.715970290e-04	1.326381546e-11
-4.100000000e-03	2.321493470e-01	-5.692407940e-04	3.166159681e-11
-4.200000000e-03	2.321493528e-01	-5.668845588e-04	2.309150459e-11
-4.300000000e-03	2.321493585e-01	-5.645283234e-04	2.143430558e-11
-4.400000000e-03	2.321493641e-01	-5.621720878e-04	9.099241772e-12
-4.500000000e-03	2.321493697e-01	-5.598158520e-04	1.538424842e-11
-4.600000000e-03	2.321493751e-01	-5.574596160e-04	1.021007210e-11
-4.700000000e-03	2.321493805e-01	-5.551033797e-04	2.816895154e-11
-4.800000000e-03	2.321493859e-01	-5.527471433e-04	1.684372167e-11
-4.900000000e-03	2.321493911e-01	-5.503909067e-04	1.200093670e-10
-5.000000000e-03	2.321493963e-01	-5.480346699e-04	1.049412758e-11
-5.100000000e-03	2.321494014e-01	-5.456784329e-04	5.234670983e-12
-5.200000000e-03	2.321494065e-01	-5.433221958e-04	1.136087320e-11
-5.300000000e-03	2.321494114e-01	-5.409659584e-04	1.633585041e-11
-5.400000000e-03	2.321494163e-01	-5.386097209e-04	1.443254403e-11
-5.500000000e-03	2.321494212e-01	-5.362534833e-04	2.151981879e-11
-5.600000000e-03	2.321494259e-01	-5.338972454e-04	1.160284771e-11
-5.700000000e-03	2.321494306e-01	-5.315410074e-04	1.402402591e-11
-5.800000000e-03	2.321494352e-01	-5.291847692e-04	1.413463314e-11
-5.900000000e-03	2.321494398e-01	-5.268285309e-04	4.081928237e-11
-6.000000000e-03	2.321494442e-01	-5.244722924e-04	9.260571937e-12
-6.100000000e-03	2.321494486e-01	-5.221160538e-04	3.664909550e-12
-6.200000000e-03	2.321494529e-01	-5.197598151e-04	1.204399798e-11
-6.300000000e-03	2.321494572e-01	-5.174035762e-04	6.624159238e-12
-6.400000000e-03	2.321494614e-01	-5.150473371e-04	3.651243557e-11
-6.500000000e-03	2.321494655e-01	-5.126910979e-04	2.076052010e-11
-6.600000000e-03	2.321494695e-01	-5.103348586e-04	1.835740849e-11
-6.700000000e-03	2.321494735e-01	-5.079786192e-04	8.342008818e-12
-6.800000000e-03	2.321494774e-01	-5.056223797e-04	1.132853092e-11
-6.900000000e-03	2.321494812e-01	-5.032661400e-04	1.346535252e-11
-7.000000000e-03	2.321494850e-01	-5.009099002e-04	1.170965853e-11
-7.100000000e-03	2.321494887e-01	-4.985536603e-04	1.281503918e-11
-7.200000000e-03	2.321494923e-01	-4.961974203e-04	1.327949609e-11
-7.300000000e-03	2.321494958e-01	-4.938411802e-04	1.355926428e-11
-7.400000000e-03	2.321494993e-01	-4.914849400e-04	1.026468737e-11
-7.500000000e-03	2.321495027e-01	-4.891286997e-04	7.142811268e-12
-7.600000000e-03	2.321495060e-01	-4.867724593e-04	8.215783799e-12
-7.700000000e-03	2.321495092e-01	-4.844162188e-04	2.495753371e-11
-7.800000000e-03	2.321495124e-01	-4.820599783e-04	1.070598592e-11
-7.900000000e-03	2.321495155e-01	-4.797037376e-04	2.020258211e-11
-8.000000000e-03	2.321495186e-01	-4.773474969e-04	1.565393756e-11
-8.100000000e-03	2.321495215e-01	-4.749912561e-04	5.921677533e-12
-8.200000000e-03	2.321495244e-01	-4.726350152e-04	1.406990518e-11
-8.300000000e-03	2.321495272e-01	-4.702787743e-04	1.063973807e-11
-8.400000000e-03	2.321495300e-01	-4.679225333e-04	8.096932197e-12
-8.500000000e-03	2.321495327e-01	-4.655662922e-04	1.485925262e-11
-8.600000000e-03	2.321495353e-01	-4.632100511e-04	2.783898688e-11
-8.700000000e-03	2.321495378e-01	-4.608538099e-04	2.371717173e-11
-8.800000000e-03	2.321495403e-01	-4.584975687e-04	2.331162556e-11
-8.900000000e-03	2.321495426e-01	-4.561413274e-04	1.332168139e-11
-9.000000000e-03	2.321495450e-01	-4.537850861e-04	3.092553578e-11
-9.100000000e-03	2.321495472e-01	-4.514288448e-04	9.434783187e-12
-9.200000000e-03	2.321495494e-01	-4.490726034e-04	3.581863137e-11
-9.300000000e-03	2.321495515e-01	-4.467163620e-04	5.981697367e-12
-9.400000000e-03	2.321495535e-01	-4.443601205e-04	2.755348380e-11
-9.500000000e-03	2.321495555e-01	-4.420038790e-04	2.311136003e-11
-9.600000000e-03	2.321495574e-01	-4.396476376e-04	1.446334502e-11
-9.700000000e-03	2.321495592e-01	-4.372913961e-04	3.644480212e-11
-9.800000000e-03	2.321495609e-01	-4.349351545e-04	1.129231798e-11
-9.900000000e-03	2.321495626e-01	-4.325789130e-04	1.488665997e-11
-1.000000000e-02	2.321495642e-01	-4.302226715e-04	2.649851779e-11
-1.010000000e-02	2.321495657e-01	-4.278664299e-04	1.095306081e-11
-1.020000000e-02	2.321495672e-01	-4.255101884e-04	6.647739384e-12
-1.030000000e-02	2.321495686e-01	-4.231539469e-04	1.151782227e-11
-1.040000000e-02	2.321495699e-01	-4.207977054e-04	6.905791453e-12
-1.050000000e-02	2.321495711e-01	-4.184414639e-04	6.188733727e-12
-1.060000000e-02	2.321495723e-01	-4.160852224e-04	1.485642838e-11
-1.070000000e-02	2.321495734e-01	-4.137289809e-04	1.668849058e-11
-1.080000000e-02	2.321495744e-01	-4.113727395e-04	3.774808446e-11
-1.090000000e-02	2.321495754e-01	-4.090164980e-04	1.049831080e-11
-1.100000000e-02	2.321495763e-01	-4.066602567e-04	1.347501493e-11
-1.110000000e-02	2.321495771e-01	-4.043040153e-04	1.223818122e-11
-1.120000000e-02	2.321495778e-01	-4.019477740e-04	1.036225011e-11
-1.130000000e-02	2.321495785e-01	-3.995915327e-04	1.033493963e-11
-1.140000000e-02	2.321495791e-01	-3.972352915e-04	7.053513760e-12
-1.150000000e-02	2.321495796e-01	-3.948790503e-04	7.955338266e-12
-1.160000000e-02	2.321495801e-01	-3.925228092e-04	1.109733376e-11
-1.170000000e-02	2.321495804e-01	-3.901665681e-04	9.637627175e-12
-1.180000000e-02	2.321495808e-01	-3.878103271e-04	1.177639790e-11
-1.190000000e-02	2.321495810e-01	-3.854540861e-04	6.326703024e-12
-1.200000000e-02	2.321495812e-01	-3.830978453e-04	3.477376193e-11
-1.210000000e-02	2.321495813e-01	-3.807416045e-04	1.717454229e-11
-1.220000000e-02	2.321495813e-01	-3.783853637e-04	1.104106770e-11
-1.230000000e-02	2.321495812e-01	-3.760291231e-04	1.392403272e-11
-1.240000000e-02	2.321495811e-01	-3.736728825e-04	8.291277661e-12
-1.250000000e-02	2.321495809e-01	-3.713166420e-04	8.262611959e-12
-1.260000000e-02	2.321495807e-01	-3.689604016e-04	2.580116261e-11
-1.270000000e-02	2.321495803e-01	-3.666041613e-04	8.556468343e-12
-1.280000000e-02	2.321495799e-01	-3.642479211e-04	1.412991684e-11
-1.290000000e-02	2.321495794e-01	-3.618916810e-04	2.641664735e-11
-1.300000000e-02	2.321495789e-01	-3.595354410e-04	2.169981210e-11
-1.310000000e-02	2.321495783e-01	-3.571792011e-04	1.005529056e-11
-1.320000000e-02	2.321495776e-01	-3.548229613e-04	2.622988738e-11
-1.330000000e-02	2.321495768e-01	-3.524667216e-04	1.571759474e-11
-1.340000000e-02	2.321495760e-01	-3.501104820e-04	1.188398975e-11
-1.350000000e-02	2.321495751e-01	-3.477542426e-04	4.371630966e-11
-1.360000000e-02	2.321495741e-01	-3.453980033e-04	1.708846839e-11
-1.370000000e-02	2.321495730e-01	-3.430417641e-04	1.259708227e-11
-1.380000000e-02	2.321495719e-01	-3.406855250e-04	1.796637850e-11
-1.390000000e-02	2.321495707e-01	-3.383292861e-04	1.521398151e-11
-1.400000000e-02	2.321495694e-01	-3.359730473e-04	1.484132967e-11
-1.410000000e-02	2.321495681e-01	-3.336168087e-04	3.610238535e-11
-1.420000000e-02	2.321495667e-01	-3.312605702e-04	1.532626793e-11
-1.430000000e-02	2.321495652e-01	-3.289043319e-04	7.716843906e-12
-1.440000000e-02	2.321495636e-01	-3.265480937e-04	1.016844522e-10
-1.450000000e-02	2.321495620e-01	-3.241918557e-04	1.456176670e-11
-1.460000000e-02	2.321495603e-01	-3.218356178e-04	9.320451103e-12
-1.470000000e-02	2.321495586e-01	-3.194793801e-04	2.394486810e-11
-1.480000000e-02	2.321495567e-01	-3.171231426e-04	2.224319994e-11
-1.490000000e-02	2.321495548e-01	-3.147669053e-04	2.993763173e-11
-1.500000000e-02	2.321495528e-01	-3.124106681e-04	2.692666848e-11
-1.510000000e-02	2.321495508e-01	-3.100544311e-04	1.737184382e-11
-1.520000000e-02	2.321495486e-01	-3.076981943e-04	2.584084731e-11
-1.530000000e-02	2.321495464e-01	-3.053419576e-04	1.443456295e-11
-1.540000000e-02	2.321495442e-01	-3.029857212e-04	1.053656147e-11
-1.550000000e-02	2.321495418e-01	-3.006294850e-04	1.617517071e-11
-1.560000000e-02	2.321495394e-01	-2.982732489e-04	4.587825735e-11
-1.570000000e-02	2.321495369e-01	-2.959170131e-04	6.712859029e-12
-1.580000000e-02	2.321495344e-01	-2.935607774e-04	1.115505002e-11
-1.590000000e-02	2.321495317e-01	-2.912045420e-04	3.148086700e-11
-1.600000000e-02	2.321495290e-01	-2.888483068e-04	8.560710176e-12
-1.610000000e-02	2.321495263e-01	-2.864920718e-04	7.908337912e-12
-1.620000000e-02	2.321495234e-01	-2.841358370e-04	1.178640085e-11
-1.630000000e-02	2.321495205e-01	-2.817796025e-04	2.197014906e-11
-1.640000000e-02	2.321495175e-01	-2.794233681e-04	8.925885213e-12
-1.650000000e-02	2.321495144e-01	-2.770671340e-04	1.084608391e-11
-1.660000000e-02	2.321495113e-01	-2.747109002e-04	5.241863126e-12
-1.670000000e-02	2.321495081e-01	-2.723546665e-04	1.408593468e-11
-1.680000000e-02	2.321495048e-01	-2.699984332e-04	6.523278004e-12
-1.690000000e-02	2.321495015e-01	-2.676422000e-04	1.757880388e-11
-1.700000000e-02	2.321494981e-01	-2.652859671e-04	1.064851882e-11
-1.710000000e-02	2.321494946e-01	-2.629297345e-04	1.522318309e-11
-1.720000000e-02	2.321494910e-01	-2.605735021e-04	2.320158999e-11
-1.730000000e-02	2.321494874e-01	-2.582172700e-04	8.533036784e-12
-1.740000000e-02	2.321494837e-01	-2.558610381e-04	1.017241548e-11
-1.750000000e-02	2.321494799e-01	-2.535048065e-04	3.182893384e-11
-1.760000000e-02	2.321494760e-01	-2.511485752e-04	1.094648550e-11
-1.770000000e-02	2.321494721e-01	-2.487923442e-04	5.916245007e-11
-1.780000000e-02	2.321494681e-01	-2.464361134e-04	1.064974875e-11
-1.790000000e-02	2.321494641e-01	-2.440798829e-04	1.907158931e-11
-1.800000000e-02	2.321494599e-01	-2.417236527e-04	2.828166113e-11
-1.810000000e-02	2.321494557e-01	-2.393674228e-04	1.090316231e-11
-1.820000000e-02	2.321494514e-01	-2.370111932e-04	8.965984939e-12
-1.830000000e-02	2.321494471e-01	-2.346549639e-04	1.524363894e-11
-1.840000000e-02	2.321494427e-01	-2.322987348e-04	2.091406192e-11
-1.850000000e-02	2.321494382e-01	-2.299425061e-04	1.913153256e-11
-1.860000000e-02	2.321494336e-01	-2.275862777e-04	1.366967362e-11
-1.870000000e-02	2.321494290e-01	-2.252300496e-04	2.456554409e-11
-1.880000000e-02	2.321494243e-01	-2.228738218e-04	1.372183020e-11
-1.890000000e-02	2.321494195e-01	-2.205175943e-04	8.887819958e-12
-1.900000000e-02	2.321494146e-01	-2.181613672e-04	4.031560976e-11
-1.910000000e-02	2.321494097e-01	-2.158051404e-04	1.057106352e-11
-1.920000000e-02	2.321494047e-01	-2.134489139e-04	9.321823927e-12
-1.930000000e-02	2.321493996e-01	-2.110926877e-04	8.405443436e-12
-1.940000000e-02	2.321493945e-01	-2.087364619e-04	7.865114849e-12
-1.950000000e-02	2.321493893e-01	-2.063802364e-04	9.320984250e-12
-1.960000000e-02	2.321493840e-01	-2.040240112e-04	1.614855265e-11
-1.970000000e-02	2.321493787e-01	-2.016677864e-04	4.719974621e-11
-1.980000000e-02	2.321493732e-01	-1.993115620e-04	1.245708772e-11
-1.990000000e-02	2.321493677e-01	-1.969553379e-04	6.292384224e-12
-2.000000000e-02	2.321493622e-01	-1.945991142e-04	1.505051095e-11
-2.010000000e-02	2.321493565e-01	-1.922428908e-04	1.147943113e-11
-2.020000000e-02	2.321493508e-01	-1.898866678e-04	4.531013779e-11
-2.030000000e-02	2.321493450e-01	-1.875304452e-04	1.039129108e-11
-2.040000000e-02	2.321493392e-01	-1.851742229e-04	2.032438033e-11
-2.050000000e-02	2.321493332e-01	-1.828180010e-04	4.678338370e-11
-2.060000000e-02	2.321493272e-01	-1.804617795e-04	2.025102229e-11
-2.070000000e-02	2.321493212e-01	-1.781055584e-04	6.840418334e-12
-2.080000000e-02	2.321493150e-01	-1.757493376e-04	1.140135934e-11
-2.090000000e-02	2.321493088e-01	-1.733931173e-04	6.575061985e-12
-2.100000000e-02	2.321493025e-01	-1.710368973e-04	2.782138372e-11
-2.110000000e-02	2.321492962e-01	-1.686806778e-04	1.993585578e-11
-2.120000000e-02	2.321492897e-01	-1.663244586e-04	1.232481704e-11
-2.130000000e-02	2.321492832e-01	-1.639682399e-04	6.764387179e-11
-2.140000000e-02	2.321492767e-01	-1.616120215e-04	1.093586907e-11
-2.150000000e-02	2.321492700e-01	-1.592558036e-04	1.907166304e-11
-2.160000000e-02	2.321492633e-01	-1.568995861e-04	3.104361753e-11
-2.170000000e-02	2.321492565e-01	-1.545433690e-04	1.302915962e-11
-2.180000000e-02	2.321492496e-01	-1.521871523e-04	2.434616189e-11
-2.190000000e-02	2.321492427e-01	-1.498309361e-04	7.725700468e-12
-2.200000000e-02	2.321492357e-01	-1.474747202e-04	1.365520233e-11
-2.210000000e-02	2.321492286e-01	-1.451185049e-04	1.188136646e-11
-2.220000000e-02	2.321492215e-01	-1.427622899e-04	9.010894427e-12
-2.230000000e-02	2.321492143e-01	-1.404060754e-04	8.591753884e-12
-2.240000000e-02	2.321492070e-01	-1.380498614e-04	9.812214058e-12
-2.250000000e-02	2.321491996e-01	-1.356936478e-04	1.464097312e-11
-2.260000000e-02	2.321491922e-01	-1.333374346e-04	1.767354902e-11
-2.270000000e-02	2.321491847e-01	-1.309812219e-04	2.518128595e-11
-2.280000000e-02	2.321491771e-01	-1.286250097e-04	9.557964452e-12
-2.290000000e-02	2.321491694e-01	-1.262687979e-04	9.906566292e-12
-2.300000000e-02	2.321491617e-01	-1.239125866e-04	6.852638646e-12
-2.310000000e-02	2.321491539e-01	-1.215563758e-04	1.200791871e-11
-2.320000000e-02	2.321491461e-01	-1.192001654e-04	2.283962619e-11
-2.330000000e-02	2.321491381e-01	-1.168439555e-04	9.497132583e-12
-2.340000000e-02	2.321491301e-01	-1.144877461e-04	7.786485392e-12
-2.350000000e-02	2.321491220e-01	-1.121315372e-04	8.620343600e-12
-2.360000000e-02	2.321491139e-01	-1.097753288e-04	5.847974027e-12
-2.370000000e-02	2.321491057e-01	-1.074191208e-04	1.477116523e-11
-2.380000000e-02	2.321490974e-01	-1.050629134e-04	6.784034158e-12
-2.390000000e-02	2.321490890e-01	-1.027067065e-04	1.206664086e-11
-2.400000000e-02	2.321490806e-01	-1.003505000e-04	4.427135465e-12
-2.410000000e-02	2.321490721e-01	-9.799429410e-05	1.407889459e-11
-2.420000000e-02	2.321490635e-01	-9.563808869e-05	1.140550792e-11
-2.430000000e-02	2.321490548e-01	-9.328188378e-05	1.645033386e-11
-2.440000000e-02	2.321490461e-01	-9.092567940e-05	1.636630904e-11
-2.450000000e-02	2.321490373e-01	-8.856947553e-05	1.027876103e-11
-2.460000000e-02	2.321490284e-01	-8.621327219e-05	3.623461159e-11
-2.470000000e-02	2.321490195e-01	-8.385706938e-05	7.047273478e-12
-2.480000000e-02	2.321490105e-01	-8.150086710e-05	1.963891667e-11
-2.490000000e-02	2.321490014e-01	-7.914466536e-05	1.196650937e-11
-2.500000000e-02	2.321489922e-01	-7.678846416e-05	1.200309837e-11
-2.510000000e-02	2.321489830e-01	-7.443226350e-05	1.467176069e-11
-2.520000000e-02	2.321489737e-01	-7.207606338e-05	1.236954218e-11
-2.530000000e-02	2.321489643e-01	-6.971986382e-05	1.091926944e-10
-2.540000000e-02	2.321489549e-01	-6.736366481e-05	1.982851999e-11
-2.550000000e-02	2.321489454e-01	-6.500746636e-05	1.144821977e-11
-2.560000000e-02	2.321489358e-01	-6.265126847e-05	1.510186336e-11
-2.570000000e-02	2.321489261e-01	-6.029507115e-05	1.450654976e-11
-2.580000000e-02	2.321489164e-01	-5.793887440e-05	8.128416084e-12
-2.590000000e-02	2.321489066e-01	-5.558267822e-05	2.891031606e-11
-2.600000000e-02	2.321488967e-01	-5.322648261e-05	4.534716178e-11
-2.610000000e-02	2.321488868e-01	-5.087028758e-05	3.160401942e-11
-2.620000000e-02	2.321488768e-01	-4.851409314e-05	3.938291991e-11
-2.630000000e-02	2.321488667e-01	-4.615789928e-05	8.004882827e-12
-2.640000000e-02	2.321488565e-01	-4.380170602e-05	1.774809104e-11
-2.650000000e-02	2.321488463e-01	-4.144551335e-05	6.021547164e-12
-2.660000000e-02	2.321488360e-01	-3.908932127e-05	1.733668442e-11
-2.670000000e-02	2.321488256e-01	-3.673312980e-05	8.561691944e-12
-2.680000000e-02	2.321488152e-01	-3.437693893e-05	1.306725021e-11
-2.690000000e-02	2.321488047e-01	-3.202074868e-05	2.200987612e-11
-2.700000000e-02	2.321487941e-01	-2.966455903e-05	2.066740899e-11
-2.710000000e-02	2.321487834e-01	-2.730837000e-05	1.177243958e-11
-2.720000000e-02	2.321487727e-01	-2.495218159e-05	1.231225188e-11
-2.730000000e-02	2.321487619e-01	-2.259599380e-05	1.694152488e-11
-2.740000000e-02	2.321487510e-01	-2.023980664e-05	1.898928123e-11
-2.750000000e-02	2.321487401e-01	-1.788362012e-05	1.197882475e-11
-2.760000000e-02	2.321487290e-01	-1.552743422e-05	1.472200964e-11
-2.770000000e-02	2.321487179e-01	-1.317124896e-05	5.429631056e-12
-2.780000000e-02	2.321487068e-01	-1.081506435e-05	2.412817817e-11
-2.790000000e-02	2.321486955e-01	-8.458880377e-06	1.532734551e-11
-2.800000000e-02	2.321486842e-01	-6.102697056e-06	2.911898339e-11
-2.810000000e-02	2.321486729e-01	-3.746514385e-06	1.903196022e-11
-2.820000000e-02	2.321486614e-01	-1.390332371e-06	1.421228515e-11
-2.830000000e-02	2.321486499e-01	9.658489835e-07	1.238145990e-11
-2.840000000e-02	2.321486383e-01	3.322029675e-06	1.863973711e-11
-2.850000000e-02	2.321486266e-01	5.678209698e-06	1.141805797e-11
-2.860000000e-02	2.321486149e-01	8.034389050e-06	1.794024957e-11
-2.870000000e-02	2.321486031e-01	1.039056773e-05	3.489021182e-11
-2.880000000e-02	2.321485912e-01	1.274674572e-05	9.796064590e-11
-2.890000000e-02	2.321485793e-01	1.510292305e-05	2.087230208e-11
-2.900000000e-02	2.321485672e-01	1.745909968e-05	3.054697593e-11
-2.910000000e-02	2.321485551e-01	1.981527563e-05	1.078614227e-11
-2.920000000e-02	2.321485430e-01	2.217145088e-05	1.017784001e-11
-2.930000000e-02	2.321485307e-01	2.452762544e-05	8.905801078e-12
-2.940000000e-02	2.321485184e-01	2.688379930e-05	1.000723944e-11
-2.950000000e-02	2.321485060e-01	2.923997246e-05	1.814472206e-11
-2.960000000e-02	2.321484936e-01	3.159614490e-05	1.876985569e-11
-2.970000000e-02	2.321484811e-01	3.395231664e-05	1.059839653e-11
-2.980000000e-02	2.321484685e-01	3.630848766e-05	3.010896992e-11
-2.990000000e-02	2.321484558e-01	3.866465797e-05	1.099554878e-11
-3.000000000e-02	2.321484431e-01	4.102082755e-05	3.046712539e-11
