# Im(epsi1)     Re(omega/c)      Im(omega/c)      Eq(det).Opt det CON kz, R=0.5 \mum, mu_c=0.3, Re(epsi1)=3.90solve_det_conkz_vs_kz.py
0.000000000e+00	2.321380968e-01	-6.658056229e-04	1.008448108e-11
-1.000000000e-04	2.321381055e-01	-6.634494785e-04	5.867924163e-11
-2.000000000e-04	2.321381141e-01	-6.610933337e-04	7.368185748e-12
-3.000000000e-04	2.321381226e-01	-6.587371886e-04	1.241040251e-11
-4.000000000e-04	2.321381311e-01	-6.563810431e-04	7.241978795e-12
-5.000000000e-04	2.321381395e-01	-6.540248972e-04	1.981670222e-11
-6.000000000e-04	2.321381479e-01	-6.516687510e-04	8.214625374e-12
-7.000000000e-04	2.321381561e-01	-6.493126045e-04	1.030612236e-11
-8.000000000e-04	2.321381643e-01	-6.469564576e-04	1.006645529e-11
-9.000000000e-04	2.321381725e-01	-6.446003104e-04	1.165971663e-11
-1.000000000e-03	2.321381805e-01	-6.422441628e-04	1.315240799e-11
-1.100000000e-03	2.321381885e-01	-6.398880150e-04	3.892538336e-12
-1.200000000e-03	2.321381964e-01	-6.375318668e-04	1.198647377e-11
-1.300000000e-03	2.321382043e-01	-6.351757182e-04	2.534813195e-11
-1.400000000e-03	2.321382120e-01	-6.328195694e-04	8.588062197e-12
-1.500000000e-03	2.321382197e-01	-6.304634202e-04	5.413667687e-12
-1.600000000e-03	2.321382273e-01	-6.281072708e-04	4.153289547e-11
-1.700000000e-03	2.321382349e-01	-6.257511210e-04	2.996748242e-11
-1.800000000e-03	2.321382424e-01	-6.233949709e-04	1.582795707e-11
-1.900000000e-03	2.321382498e-01	-6.210388205e-04	6.228737571e-12
-2.000000000e-03	2.321382571e-01	-6.186826699e-04	1.257163133e-11
-2.100000000e-03	2.321382644e-01	-6.163265189e-04	1.105205152e-11
-2.200000000e-03	2.321382716e-01	-6.139703676e-04	1.449192684e-11
-2.300000000e-03	2.321382787e-01	-6.116142161e-04	7.103481760e-12
-2.400000000e-03	2.321382857e-01	-6.092580643e-04	1.221648242e-11
-2.500000000e-03	2.321382927e-01	-6.069019122e-04	1.074900054e-11
-2.600000000e-03	2.321382996e-01	-6.045457598e-04	8.339605180e-12
-2.700000000e-03	2.321383065e-01	-6.021896072e-04	3.023812034e-11
-2.800000000e-03	2.321383132e-01	-5.998334542e-04	1.010138455e-11
-2.900000000e-03	2.321383199e-01	-5.974773011e-04	6.708662065e-12
-3.000000000e-03	2.321383265e-01	-5.951211476e-04	2.846904550e-11
-3.100000000e-03	2.321383331e-01	-5.927649939e-04	8.789699902e-12
-3.200000000e-03	2.321383396e-01	-5.904088400e-04	1.331711074e-11
-3.300000000e-03	2.321383460e-01	-5.880526858e-04	5.417226147e-11
-3.400000000e-03	2.321383523e-01	-5.856965313e-04	1.237303728e-11
-3.500000000e-03	2.321383586e-01	-5.833403767e-04	8.064446686e-12
-3.600000000e-03	2.321383648e-01	-5.809842217e-04	7.856174191e-12
-3.700000000e-03	2.321383709e-01	-5.786280666e-04	2.422518151e-11
-3.800000000e-03	2.321383769e-01	-5.762719112e-04	1.296846097e-11
-3.900000000e-03	2.321383829e-01	-5.739157556e-04	1.440872682e-11
-4.000000000e-03	2.321383888e-01	-5.715595997e-04	3.001065939e-11
-4.100000000e-03	2.321383946e-01	-5.692034437e-04	1.023108359e-11
-4.200000000e-03	2.321384004e-01	-5.668472874e-04	1.064442764e-10
-4.300000000e-03	2.321384061e-01	-5.644911309e-04	6.647478925e-12
-4.400000000e-03	2.321384117e-01	-5.621349742e-04	1.041574051e-11
-4.500000000e-03	2.321384172e-01	-5.597788173e-04	1.381633859e-11
-4.600000000e-03	2.321384227e-01	-5.574226602e-04	1.068545044e-11
-4.700000000e-03	2.321384281e-01	-5.550665029e-04	1.497090158e-11
-4.800000000e-03	2.321384334e-01	-5.527103454e-04	5.033284845e-11
-4.900000000e-03	2.321384387e-01	-5.503541877e-04	9.252432735e-12
-5.000000000e-03	2.321384439e-01	-5.479980298e-04	1.980613558e-11
-5.100000000e-03	2.321384490e-01	-5.456418718e-04	3.859379801e-11
-5.200000000e-03	2.321384540e-01	-5.432857135e-04	5.713909701e-12
-5.300000000e-03	2.321384590e-01	-5.409295551e-04	8.988949977e-12
-5.400000000e-03	2.321384639e-01	-5.385733965e-04	1.093163374e-11
-5.500000000e-03	2.321384687e-01	-5.362172377e-04	1.516508836e-11
-5.600000000e-03	2.321384735e-01	-5.338610788e-04	3.547355704e-11
-5.700000000e-03	2.321384782e-01	-5.315049197e-04	1.779198741e-11
-5.800000000e-03	2.321384828e-01	-5.291487605e-04	1.200719376e-11
-5.900000000e-03	2.321384873e-01	-5.267926011e-04	1.178664909e-11
-6.000000000e-03	2.321384918e-01	-5.244364415e-04	1.613612155e-11
-6.100000000e-03	2.321384962e-01	-5.220802818e-04	5.981482347e-12
-6.200000000e-03	2.321385005e-01	-5.197241220e-04	1.570481705e-11
-6.300000000e-03	2.321385048e-01	-5.173679620e-04	8.217727304e-12
-6.400000000e-03	2.321385089e-01	-5.150118019e-04	1.305266824e-11
-6.500000000e-03	2.321385131e-01	-5.126556416e-04	2.645206380e-11
-6.600000000e-03	2.321385171e-01	-5.102994813e-04	8.240474760e-12
-6.700000000e-03	2.321385211e-01	-5.079433208e-04	1.107861611e-11
-6.800000000e-03	2.321385250e-01	-5.055871601e-04	7.686208008e-12
-6.900000000e-03	2.321385288e-01	-5.032309994e-04	1.037142361e-11
-7.000000000e-03	2.321385325e-01	-5.008748385e-04	1.049535357e-11
-7.100000000e-03	2.321385362e-01	-4.985186775e-04	8.333635879e-12
-7.200000000e-03	2.321385398e-01	-4.961625165e-04	1.158045036e-11
-7.300000000e-03	2.321385434e-01	-4.938063553e-04	1.136748352e-11
-7.400000000e-03	2.321385468e-01	-4.914501940e-04	1.277217227e-11
-7.500000000e-03	2.321385502e-01	-4.890940326e-04	1.349003524e-11
-7.600000000e-03	2.321385535e-01	-4.867378712e-04	9.339864171e-12
-7.700000000e-03	2.321385568e-01	-4.843817096e-04	3.461607752e-11
-7.800000000e-03	2.321385600e-01	-4.820255479e-04	9.734659439e-12
-7.900000000e-03	2.321385631e-01	-4.796693862e-04	2.428383962e-11
-8.000000000e-03	2.321385661e-01	-4.773132244e-04	1.008693179e-11
-8.100000000e-03	2.321385691e-01	-4.749570625e-04	4.890288173e-11
-8.200000000e-03	2.321385720e-01	-4.726009006e-04	4.218701971e-11
-8.300000000e-03	2.321385748e-01	-4.702447385e-04	1.679494957e-11
-8.400000000e-03	2.321385775e-01	-4.678885765e-04	1.131980991e-11
-8.500000000e-03	2.321385802e-01	-4.655324143e-04	9.766583321e-12
-8.600000000e-03	2.321385828e-01	-4.631762521e-04	2.440539609e-11
-8.700000000e-03	2.321385853e-01	-4.608200899e-04	1.092119757e-11
-8.800000000e-03	2.321385878e-01	-4.584639276e-04	1.060075219e-11
-8.900000000e-03	2.321385902e-01	-4.561077652e-04	1.655364476e-11
-9.000000000e-03	2.321385925e-01	-4.537516028e-04	1.617212868e-11
-9.100000000e-03	2.321385948e-01	-4.513954404e-04	4.959167547e-11
-9.200000000e-03	2.321385969e-01	-4.490392779e-04	7.978349605e-12
-9.300000000e-03	2.321385990e-01	-4.466831154e-04	1.101490775e-11
-9.400000000e-03	2.321386011e-01	-4.443269529e-04	3.529644511e-11
-9.500000000e-03	2.321386030e-01	-4.419707904e-04	1.005188355e-10
-9.600000000e-03	2.321386049e-01	-4.396146278e-04	2.000774613e-11
-9.700000000e-03	2.321386067e-01	-4.372584652e-04	1.193859070e-11
-9.800000000e-03	2.321386085e-01	-4.349023026e-04	4.063929864e-11
-9.900000000e-03	2.321386101e-01	-4.325461400e-04	3.592268164e-11
-1.000000000e-02	2.321386117e-01	-4.301899774e-04	9.031547611e-12
-1.010000000e-02	2.321386133e-01	-4.278338148e-04	1.203457225e-11
-1.020000000e-02	2.321386147e-01	-4.254776522e-04	8.191065165e-12
-1.030000000e-02	2.321386161e-01	-4.231214896e-04	1.567275029e-11
-1.040000000e-02	2.321386174e-01	-4.207653270e-04	6.957238352e-11
-1.050000000e-02	2.321386187e-01	-4.184091644e-04	1.412988723e-11
-1.060000000e-02	2.321386198e-01	-4.160530018e-04	1.049562853e-11
-1.070000000e-02	2.321386209e-01	-4.136968393e-04	3.411245270e-11
-1.080000000e-02	2.321386220e-01	-4.113406768e-04	2.092577157e-11
-1.090000000e-02	2.321386229e-01	-4.089845143e-04	1.321736028e-11
-1.100000000e-02	2.321386238e-01	-4.066283518e-04	9.739664618e-12
-1.110000000e-02	2.321386246e-01	-4.042721894e-04	1.035136010e-11
-1.120000000e-02	2.321386253e-01	-4.019160270e-04	1.694343796e-11
-1.130000000e-02	2.321386260e-01	-3.995598646e-04	4.828453489e-11
-1.140000000e-02	2.321386266e-01	-3.972037023e-04	3.041071388e-11
-1.150000000e-02	2.321386271e-01	-3.948475400e-04	8.961612579e-12
-1.160000000e-02	2.321386276e-01	-3.924913778e-04	1.382888172e-11
-1.170000000e-02	2.321386280e-01	-3.901352157e-04	3.088453077e-11
-1.180000000e-02	2.321386283e-01	-3.877790536e-04	1.480997738e-11
-1.190000000e-02	2.321386285e-01	-3.854228916e-04	1.229483743e-11
-1.200000000e-02	2.321386287e-01	-3.830667296e-04	1.407316345e-11
-1.210000000e-02	2.321386288e-01	-3.807105677e-04	9.592375975e-12
-1.220000000e-02	2.321386288e-01	-3.783544059e-04	1.058819510e-11
-1.230000000e-02	2.321386288e-01	-3.759982442e-04	1.033579383e-11
-1.240000000e-02	2.321386286e-01	-3.736420825e-04	2.450904383e-11
-1.250000000e-02	2.321386284e-01	-3.712859210e-04	1.140583522e-11
-1.260000000e-02	2.321386282e-01	-3.689297595e-04	9.336475005e-12
-1.270000000e-02	2.321386278e-01	-3.665735981e-04	2.632848935e-11
-1.280000000e-02	2.321386274e-01	-3.642174368e-04	1.636073386e-11
-1.290000000e-02	2.321386270e-01	-3.618612756e-04	1.755610152e-11
-1.300000000e-02	2.321386264e-01	-3.595051145e-04	1.403118906e-11
-1.310000000e-02	2.321386258e-01	-3.571489535e-04	1.284969676e-11
-1.320000000e-02	2.321386251e-01	-3.547927927e-04	1.144393198e-11
-1.330000000e-02	2.321386243e-01	-3.524366319e-04	1.523673158e-11
-1.340000000e-02	2.321386235e-01	-3.500804713e-04	1.047543140e-11
-1.350000000e-02	2.321386226e-01	-3.477243108e-04	4.495794016e-12
-1.360000000e-02	2.321386216e-01	-3.453681504e-04	9.891791783e-12
-1.370000000e-02	2.321386205e-01	-3.430119901e-04	1.240443156e-11
-1.380000000e-02	2.321386194e-01	-3.406558300e-04	1.002806257e-11
-1.390000000e-02	2.321386182e-01	-3.382996700e-04	1.746291613e-11
-1.400000000e-02	2.321386170e-01	-3.359435101e-04	8.051362381e-12
-1.410000000e-02	2.321386156e-01	-3.335873504e-04	1.982942666e-11
-1.420000000e-02	2.321386142e-01	-3.312311909e-04	1.617395725e-11
-1.430000000e-02	2.321386127e-01	-3.288750315e-04	7.659910565e-12
-1.440000000e-02	2.321386112e-01	-3.265188722e-04	8.187031349e-12
-1.450000000e-02	2.321386095e-01	-3.241627131e-04	5.851321964e-11
-1.460000000e-02	2.321386078e-01	-3.218065542e-04	1.515229348e-11
-1.470000000e-02	2.321386061e-01	-3.194503954e-04	7.969788957e-12
-1.480000000e-02	2.321386042e-01	-3.170942368e-04	1.481555105e-11
-1.490000000e-02	2.321386023e-01	-3.147380784e-04	2.222785014e-11
-1.500000000e-02	2.321386003e-01	-3.123819201e-04	2.041873543e-11
-1.510000000e-02	2.321385983e-01	-3.100257620e-04	2.342792508e-11
-1.520000000e-02	2.321385961e-01	-3.076696041e-04	1.197001586e-11
-1.530000000e-02	2.321385939e-01	-3.053134464e-04	1.309881410e-11
-1.540000000e-02	2.321385917e-01	-3.029572889e-04	1.155263099e-11
-1.550000000e-02	2.321385893e-01	-3.006011316e-04	9.713706326e-12
-1.560000000e-02	2.321385869e-01	-2.982449745e-04	1.490661258e-11
-1.570000000e-02	2.321385844e-01	-2.958888176e-04	8.234986023e-12
-1.580000000e-02	2.321385819e-01	-2.935326608e-04	1.899773746e-11
-1.590000000e-02	2.321385792e-01	-2.911765043e-04	1.275729571e-11
-1.600000000e-02	2.321385765e-01	-2.888203480e-04	1.035988554e-11
-1.610000000e-02	2.321385738e-01	-2.864641920e-04	2.291987022e-11
-1.620000000e-02	2.321385709e-01	-2.841080361e-04	1.979364315e-11
-1.630000000e-02	2.321385680e-01	-2.817518805e-04	5.728204620e-12
-1.640000000e-02	2.321385650e-01	-2.793957251e-04	1.065531942e-11
-1.650000000e-02	2.321385619e-01	-2.770395699e-04	1.267497548e-11
-1.660000000e-02	2.321385588e-01	-2.746834149e-04	1.341279725e-11
-1.670000000e-02	2.321385556e-01	-2.723272602e-04	1.317673627e-11
-1.680000000e-02	2.321385523e-01	-2.699711058e-04	9.136748805e-12
-1.690000000e-02	2.321385490e-01	-2.676149516e-04	8.735586791e-12
-1.700000000e-02	2.321385456e-01	-2.652587976e-04	5.926465258e-12
-1.710000000e-02	2.321385421e-01	-2.629026439e-04	1.448443424e-11
-1.720000000e-02	2.321385385e-01	-2.605464904e-04	2.993768083e-11
-1.730000000e-02	2.321385349e-01	-2.581903372e-04	3.721003817e-11
-1.740000000e-02	2.321385312e-01	-2.558341843e-04	7.358718019e-11
-1.750000000e-02	2.321385274e-01	-2.534780316e-04	1.449129342e-11
-1.760000000e-02	2.321385235e-01	-2.511218792e-04	9.782221868e-12
-1.770000000e-02	2.321385196e-01	-2.487657271e-04	1.935765612e-11
-1.780000000e-02	2.321385156e-01	-2.464095752e-04	1.130766719e-11
-1.790000000e-02	2.321385116e-01	-2.440534237e-04	1.147643768e-11
-1.800000000e-02	2.321385074e-01	-2.416972724e-04	1.203551430e-11
-1.810000000e-02	2.321385032e-01	-2.393411214e-04	1.188384987e-11
-1.820000000e-02	2.321384989e-01	-2.369849707e-04	1.912827543e-11
-1.830000000e-02	2.321384946e-01	-2.346288203e-04	2.245103458e-11
-1.840000000e-02	2.321384902e-01	-2.322726702e-04	8.404238110e-12
-1.850000000e-02	2.321384857e-01	-2.299165204e-04	1.701327845e-11
-1.860000000e-02	2.321384811e-01	-2.275603709e-04	1.217195013e-11
-1.870000000e-02	2.321384765e-01	-2.252042217e-04	2.281630338e-11
-1.880000000e-02	2.321384718e-01	-2.228480729e-04	3.028321666e-11
-1.890000000e-02	2.321384670e-01	-2.204919243e-04	1.434249168e-11
-1.900000000e-02	2.321384621e-01	-2.181357761e-04	8.053744327e-12
-1.910000000e-02	2.321384572e-01	-2.157796282e-04	1.091940386e-11
-1.920000000e-02	2.321384522e-01	-2.134234806e-04	1.202915601e-11
-1.930000000e-02	2.321384471e-01	-2.110673334e-04	1.686670162e-11
-1.940000000e-02	2.321384420e-01	-2.087111865e-04	1.081842414e-11
-1.950000000e-02	2.321384368e-01	-2.063550399e-04	4.904210810e-11
-1.960000000e-02	2.321384315e-01	-2.039988937e-04	6.126421907e-12
-1.970000000e-02	2.321384261e-01	-2.016427478e-04	1.229017988e-11
-1.980000000e-02	2.321384207e-01	-1.992866023e-04	7.653489437e-12
-1.990000000e-02	2.321384152e-01	-1.969304571e-04	4.722413771e-11
-2.000000000e-02	2.321384097e-01	-1.945743123e-04	1.586183328e-11
-2.010000000e-02	2.321384040e-01	-1.922181679e-04	1.460495011e-11
-2.020000000e-02	2.321383983e-01	-1.898620238e-04	6.638955141e-12
-2.030000000e-02	2.321383925e-01	-1.875058801e-04	1.568803207e-11
-2.040000000e-02	2.321383867e-01	-1.851497367e-04	5.139250619e-12
-2.050000000e-02	2.321383807e-01	-1.827935938e-04	1.483390347e-11
-2.060000000e-02	2.321383747e-01	-1.804374512e-04	8.246241553e-12
-2.070000000e-02	2.321383687e-01	-1.780813090e-04	1.319920817e-11
-2.080000000e-02	2.321383625e-01	-1.757251672e-04	3.009557326e-11
-2.090000000e-02	2.321383563e-01	-1.733690257e-04	7.378590052e-12
-2.100000000e-02	2.321383500e-01	-1.710128847e-04	9.179833514e-12
-2.110000000e-02	2.321383436e-01	-1.686567441e-04	1.324851154e-11
-2.120000000e-02	2.321383372e-01	-1.663006038e-04	1.915803103e-11
-2.130000000e-02	2.321383307e-01	-1.639444640e-04	2.396065154e-11
-2.140000000e-02	2.321383241e-01	-1.615883246e-04	2.156590313e-11
-2.150000000e-02	2.321383175e-01	-1.592321856e-04	2.129403872e-11
-2.160000000e-02	2.321383108e-01	-1.568760470e-04	2.099222741e-11
-2.170000000e-02	2.321383040e-01	-1.545199088e-04	9.905027699e-12
-2.180000000e-02	2.321382971e-01	-1.521637711e-04	1.391418045e-11
-2.190000000e-02	2.321382902e-01	-1.498076338e-04	3.719264215e-11
-2.200000000e-02	2.321382832e-01	-1.474514969e-04	2.189421435e-11
-2.210000000e-02	2.321382761e-01	-1.450953604e-04	1.126258991e-11
-2.220000000e-02	2.321382690e-01	-1.427392244e-04	1.730747617e-11
-2.230000000e-02	2.321382617e-01	-1.403830888e-04	1.300880488e-11
-2.240000000e-02	2.321382545e-01	-1.380269537e-04	2.984876836e-11
-2.250000000e-02	2.321382471e-01	-1.356708190e-04	1.155720555e-11
-2.260000000e-02	2.321382397e-01	-1.333146848e-04	1.237699640e-11
-2.270000000e-02	2.321382321e-01	-1.309585510e-04	6.641377476e-12
-2.280000000e-02	2.321382246e-01	-1.286024177e-04	7.933133678e-12
-2.290000000e-02	2.321382169e-01	-1.262462849e-04	1.143696160e-11
-2.300000000e-02	2.321382092e-01	-1.238901525e-04	1.583760071e-11
-2.310000000e-02	2.321382014e-01	-1.215340206e-04	6.400223383e-12
-2.320000000e-02	2.321381935e-01	-1.191778891e-04	4.543606368e-12
-2.330000000e-02	2.321381856e-01	-1.168217582e-04	1.225557828e-11
-2.340000000e-02	2.321381776e-01	-1.144656277e-04	2.656497927e-11
-2.350000000e-02	2.321381695e-01	-1.121094977e-04	1.695630870e-11
-2.360000000e-02	2.321381614e-01	-1.097533682e-04	4.130401840e-11
-2.370000000e-02	2.321381531e-01	-1.073972392e-04	7.245919979e-12
-2.380000000e-02	2.321381448e-01	-1.050411107e-04	1.265221297e-11
-2.390000000e-02	2.321381365e-01	-1.026849827e-04	2.511104641e-12
-2.400000000e-02	2.321381280e-01	-1.003288552e-04	2.388703876e-11
-2.410000000e-02	2.321381195e-01	-9.797272815e-05	1.642573210e-11
-2.420000000e-02	2.321381109e-01	-9.561660165e-05	6.363179946e-11
-2.430000000e-02	2.321381023e-01	-9.326047567e-05	8.768184876e-12
-2.440000000e-02	2.321380936e-01	-9.090435021e-05	1.688769882e-11
-2.450000000e-02	2.321380848e-01	-8.854822527e-05	1.908597663e-11
-2.460000000e-02	2.321380759e-01	-8.619210086e-05	1.584107565e-11
-2.470000000e-02	2.321380670e-01	-8.383597697e-05	6.068822013e-12
-2.480000000e-02	2.321380579e-01	-8.147985361e-05	9.493434783e-12
-2.490000000e-02	2.321380489e-01	-7.912373079e-05	2.846922801e-11
-2.500000000e-02	2.321380397e-01	-7.676760852e-05	9.197831145e-12
-2.510000000e-02	2.321380305e-01	-7.441148678e-05	1.793533444e-11
-2.520000000e-02	2.321380212e-01	-7.205536559e-05	2.382153885e-11
-2.530000000e-02	2.321380118e-01	-6.969924495e-05	5.587169773e-11
-2.540000000e-02	2.321380024e-01	-6.734312487e-05	2.915878679e-11
-2.550000000e-02	2.321379929e-01	-6.498700535e-05	1.071019436e-11
-2.560000000e-02	2.321379833e-01	-6.263088639e-05	8.744473331e-12
-2.570000000e-02	2.321379736e-01	-6.027476799e-05	2.762987616e-11
-2.580000000e-02	2.321379639e-01	-5.791865016e-05	8.653278932e-12
-2.590000000e-02	2.321379541e-01	-5.556253290e-05	1.501045813e-11
-2.600000000e-02	2.321379442e-01	-5.320641622e-05	4.573240813e-11
-2.610000000e-02	2.321379343e-01	-5.085030012e-05	5.557113221e-12
-2.620000000e-02	2.321379242e-01	-4.849418460e-05	1.638361807e-11
-2.630000000e-02	2.321379142e-01	-4.613806967e-05	1.321043065e-11
-2.640000000e-02	2.321379040e-01	-4.378195533e-05	1.081063329e-11
-2.650000000e-02	2.321378938e-01	-4.142584158e-05	8.102807153e-12
-2.660000000e-02	2.321378835e-01	-3.906972843e-05	1.072660415e-11
-2.670000000e-02	2.321378731e-01	-3.671361588e-05	6.204914508e-12
-2.680000000e-02	2.321378626e-01	-3.435750394e-05	1.038090889e-11
-2.690000000e-02	2.321378521e-01	-3.200139261e-05	1.558573574e-11
-2.700000000e-02	2.321378415e-01	-2.964528189e-05	1.131922347e-11
-2.710000000e-02	2.321378309e-01	-2.728917178e-05	1.023528943e-11
-2.720000000e-02	2.321378201e-01	-2.493306230e-05	1.192659853e-11
-2.730000000e-02	2.321378093e-01	-2.257695344e-05	1.068853112e-11
-2.740000000e-02	2.321377985e-01	-2.022084520e-05	9.848348383e-12
-2.750000000e-02	2.321377875e-01	-1.786473760e-05	6.306481604e-12
-2.760000000e-02	2.321377765e-01	-1.550863063e-05	7.508184434e-12
-2.770000000e-02	2.321377654e-01	-1.315252430e-05	1.096488138e-11
-2.780000000e-02	2.321377542e-01	-1.079641861e-05	1.560717765e-11
-2.790000000e-02	2.321377430e-01	-8.440313561e-06	1.089223706e-11
-2.800000000e-02	2.321377317e-01	-6.084209164e-06	7.088326744e-12
-2.810000000e-02	2.321377203e-01	-3.728105417e-06	3.117028044e-11
-2.820000000e-02	2.321377089e-01	-1.372002330e-06	8.481228123e-12
-2.830000000e-02	2.321376973e-01	9.841000968e-07	1.148792574e-11
-2.840000000e-02	2.321376858e-01	3.340201864e-06	1.220473549e-11
-2.850000000e-02	2.321376741e-01	5.696302962e-06	9.268980700e-12
-2.860000000e-02	2.321376624e-01	8.052403390e-06	1.581526516e-11
-2.870000000e-02	2.321376505e-01	1.040850314e-05	7.573240835e-12
-2.880000000e-02	2.321376387e-01	1.276460222e-05	1.790788980e-11
-2.890000000e-02	2.321376267e-01	1.512070061e-05	1.450958898e-11
-2.900000000e-02	2.321376147e-01	1.747679832e-05	1.440007424e-11
-2.910000000e-02	2.321376026e-01	1.983289534e-05	1.270600026e-11
-2.920000000e-02	2.321375904e-01	2.218899167e-05	9.411905398e-12
-2.930000000e-02	2.321375782e-01	2.454508730e-05	3.254778117e-11
-2.940000000e-02	2.321375659e-01	2.690118224e-05	1.236801118e-11
-2.950000000e-02	2.321375535e-01	2.925727646e-05	1.335467251e-11
-2.960000000e-02	2.321375410e-01	3.161336998e-05	1.154414779e-11
-2.970000000e-02	2.321375285e-01	3.396946280e-05	1.845431795e-11
-2.980000000e-02	2.321375159e-01	3.632555489e-05	1.007410397e-11
-2.990000000e-02	2.321375032e-01	3.868164627e-05	3.906134847e-12
-3.000000000e-02	2.321374905e-01	4.103773693e-05	6.397136941e-11
