# Im(epsi1)     Re(omega/c)      Im(omega/c)      Eq(det).Opt det CON kz, R=0.5 \mum, mu_c=0.3, Re(epsi1)=3.90solve_det_conkz_vs_kz.py
0.000000000e+00	2.321540912e-01	-6.658648915e-04	1.377054668e-11
-1.000000000e-04	2.321540999e-01	-6.635086318e-04	2.136778045e-11
-2.000000000e-04	2.321541086e-01	-6.611523717e-04	7.338414086e-12
-3.000000000e-04	2.321541171e-01	-6.587961113e-04	7.036063264e-12
-4.000000000e-04	2.321541256e-01	-6.564398506e-04	1.751820646e-11
-5.000000000e-04	2.321541340e-01	-6.540835895e-04	9.956667044e-12
-6.000000000e-04	2.321541424e-01	-6.517273280e-04	2.401798611e-11
-7.000000000e-04	2.321541506e-01	-6.493710662e-04	7.045593789e-12
-8.000000000e-04	2.321541588e-01	-6.470148041e-04	7.328741195e-12
-9.000000000e-04	2.321541670e-01	-6.446585416e-04	1.324707997e-11
-1.000000000e-03	2.321541750e-01	-6.423022788e-04	2.654962066e-11
-1.100000000e-03	2.321541830e-01	-6.399460157e-04	4.249733334e-11
-1.200000000e-03	2.321541909e-01	-6.375897522e-04	1.112602261e-11
-1.300000000e-03	2.321541987e-01	-6.352334884e-04	1.494334652e-11
-1.400000000e-03	2.321542065e-01	-6.328772243e-04	1.296444844e-11
-1.500000000e-03	2.321542142e-01	-6.305209599e-04	9.849082825e-12
-1.600000000e-03	2.321542218e-01	-6.281646952e-04	1.243608784e-11
-1.700000000e-03	2.321542294e-01	-6.258084302e-04	8.430875035e-12
-1.800000000e-03	2.321542369e-01	-6.234521648e-04	1.130153547e-11
-1.900000000e-03	2.321542443e-01	-6.210958992e-04	2.495365929e-11
-2.000000000e-03	2.321542516e-01	-6.187396333e-04	7.912861047e-12
-2.100000000e-03	2.321542589e-01	-6.163833670e-04	7.857585393e-12
-2.200000000e-03	2.321542661e-01	-6.140271005e-04	3.003593669e-11
-2.300000000e-03	2.321542732e-01	-6.116708337e-04	7.387913949e-12
-2.400000000e-03	2.321542802e-01	-6.093145666e-04	6.878035392e-12
-2.500000000e-03	2.321542872e-01	-6.069582993e-04	1.509348536e-11
-2.600000000e-03	2.321542941e-01	-6.046020316e-04	1.927071093e-11
-2.700000000e-03	2.321543010e-01	-6.022457637e-04	7.364875183e-12
-2.800000000e-03	2.321543077e-01	-5.998894956e-04	6.542678610e-12
-2.900000000e-03	2.321543144e-01	-5.975332271e-04	2.280825457e-11
-3.000000000e-03	2.321543210e-01	-5.951769584e-04	1.953494591e-11
-3.100000000e-03	2.321543276e-01	-5.928206895e-04	1.810368779e-11
-3.200000000e-03	2.321543341e-01	-5.904644203e-04	4.638606305e-11
-3.300000000e-03	2.321543405e-01	-5.881081508e-04	1.111337803e-11
-3.400000000e-03	2.321543468e-01	-5.857518811e-04	2.326687798e-11
-3.500000000e-03	2.321543531e-01	-5.833956112e-04	1.149945215e-11
-3.600000000e-03	2.321543593e-01	-5.810393410e-04	1.986444841e-11
-3.700000000e-03	2.321543654e-01	-5.786830706e-04	1.339186134e-11
-3.800000000e-03	2.321543714e-01	-5.763267999e-04	2.571403987e-11
-3.900000000e-03	2.321543774e-01	-5.739705290e-04	5.595089435e-12
-4.000000000e-03	2.321543833e-01	-5.716142579e-04	5.314387900e-11
-4.100000000e-03	2.321543891e-01	-5.692579866e-04	6.518634998e-12
-4.200000000e-03	2.321543949e-01	-5.669017151e-04	2.772006202e-11
-4.300000000e-03	2.321544006e-01	-5.645454433e-04	7.653445190e-12
-4.400000000e-03	2.321544062e-01	-5.621891714e-04	5.558448947e-11
-4.500000000e-03	2.321544118e-01	-5.598328992e-04	1.725119246e-11
-4.600000000e-03	2.321544172e-01	-5.574766268e-04	1.395132608e-11
-4.700000000e-03	2.321544226e-01	-5.551203543e-04	3.738262121e-11
-4.800000000e-03	2.321544280e-01	-5.527640815e-04	1.017027617e-11
-4.900000000e-03	2.321544332e-01	-5.504078086e-04	2.426804722e-11
-5.000000000e-03	2.321544384e-01	-5.480515354e-04	1.263250343e-11
-5.100000000e-03	2.321544435e-01	-5.456952621e-04	1.026097321e-11
-5.200000000e-03	2.321544486e-01	-5.433389886e-04	7.461410486e-12
-5.300000000e-03	2.321544535e-01	-5.409827149e-04	2.518247614e-11
-5.400000000e-03	2.321544584e-01	-5.386264411e-04	1.343079776e-11
-5.500000000e-03	2.321544633e-01	-5.362701671e-04	4.245631739e-11
-5.600000000e-03	2.321544680e-01	-5.339138929e-04	1.086947625e-11
-5.700000000e-03	2.321544727e-01	-5.315576185e-04	1.601873775e-11
-5.800000000e-03	2.321544773e-01	-5.292013440e-04	7.821240895e-12
-5.900000000e-03	2.321544819e-01	-5.268450694e-04	9.216916289e-12
-6.000000000e-03	2.321544863e-01	-5.244887946e-04	3.554142236e-11
-6.100000000e-03	2.321544907e-01	-5.221325196e-04	2.868763072e-11
-6.200000000e-03	2.321544951e-01	-5.197762445e-04	1.232970257e-11
-6.300000000e-03	2.321544993e-01	-5.174199693e-04	1.402614406e-11
-6.400000000e-03	2.321545035e-01	-5.150636939e-04	1.442573989e-11
-6.500000000e-03	2.321545076e-01	-5.127074184e-04	9.256140816e-12
-6.600000000e-03	2.321545116e-01	-5.103511427e-04	8.239907917e-11
-6.700000000e-03	2.321545156e-01	-5.079948670e-04	1.254633549e-11
-6.800000000e-03	2.321545195e-01	-5.056385911e-04	9.774302954e-12
-6.900000000e-03	2.321545233e-01	-5.032823151e-04	1.612495129e-11
-7.000000000e-03	2.321545271e-01	-5.009260389e-04	8.927932793e-12
-7.100000000e-03	2.321545308e-01	-4.985697627e-04	1.456817327e-11
-7.200000000e-03	2.321545344e-01	-4.962134864e-04	6.793371165e-11
-7.300000000e-03	2.321545379e-01	-4.938572099e-04	6.236026465e-12
-7.400000000e-03	2.321545414e-01	-4.915009334e-04	5.322788407e-11
-7.500000000e-03	2.321545448e-01	-4.891446567e-04	1.228176002e-11
-7.600000000e-03	2.321545481e-01	-4.867883800e-04	3.423492646e-11
-7.700000000e-03	2.321545513e-01	-4.844321032e-04	1.189110928e-11
-7.800000000e-03	2.321545545e-01	-4.820758263e-04	1.468902873e-11
-7.900000000e-03	2.321545576e-01	-4.797195493e-04	1.406986042e-11
-8.000000000e-03	2.321545607e-01	-4.773632722e-04	1.227073430e-11
-8.100000000e-03	2.321545636e-01	-4.750069951e-04	1.600520071e-11
-8.200000000e-03	2.321545665e-01	-4.726507179e-04	1.095460646e-11
-8.300000000e-03	2.321545693e-01	-4.702944406e-04	1.690597677e-11
-8.400000000e-03	2.321545721e-01	-4.679381632e-04	2.924326283e-11
-8.500000000e-03	2.321545748e-01	-4.655818858e-04	9.728612066e-12
-8.600000000e-03	2.321545774e-01	-4.632256084e-04	1.488862338e-11
-8.700000000e-03	2.321545799e-01	-4.608693309e-04	8.769239085e-12
-8.800000000e-03	2.321545824e-01	-4.585130533e-04	1.515840186e-11
-8.900000000e-03	2.321545848e-01	-4.561567757e-04	7.053850085e-11
-9.000000000e-03	2.321545871e-01	-4.538004980e-04	1.713608522e-11
-9.100000000e-03	2.321545893e-01	-4.514442203e-04	1.849562895e-11
-9.200000000e-03	2.321545915e-01	-4.490879426e-04	6.720536987e-11
-9.300000000e-03	2.321545936e-01	-4.467316649e-04	9.512418415e-12
-9.400000000e-03	2.321545956e-01	-4.443753871e-04	3.053600541e-11
-9.500000000e-03	2.321545976e-01	-4.420191093e-04	7.044148744e-12
-9.600000000e-03	2.321545995e-01	-4.396628314e-04	2.282628227e-11
-9.700000000e-03	2.321546013e-01	-4.373065536e-04	1.254188621e-11
-9.800000000e-03	2.321546030e-01	-4.349502757e-04	1.808986117e-11
-9.900000000e-03	2.321546047e-01	-4.325939979e-04	7.122569024e-12
-1.000000000e-02	2.321546063e-01	-4.302377200e-04	9.474687282e-12
-1.010000000e-02	2.321546078e-01	-4.278814421e-04	3.720833005e-11
-1.020000000e-02	2.321546093e-01	-4.255251643e-04	1.075956300e-11
-1.030000000e-02	2.321546107e-01	-4.231688864e-04	1.369611462e-11
-1.040000000e-02	2.321546120e-01	-4.208126085e-04	1.411950413e-11
-1.050000000e-02	2.321546132e-01	-4.184563307e-04	8.797551244e-12
-1.060000000e-02	2.321546144e-01	-4.161000529e-04	1.300033057e-11
-1.070000000e-02	2.321546155e-01	-4.137437750e-04	6.853479685e-12
-1.080000000e-02	2.321546165e-01	-4.113874973e-04	1.683894299e-11
-1.090000000e-02	2.321546175e-01	-4.090312195e-04	1.553250910e-11
-1.100000000e-02	2.321546184e-01	-4.066749418e-04	2.580240526e-11
-1.110000000e-02	2.321546192e-01	-4.043186641e-04	1.229097884e-11
-1.120000000e-02	2.321546199e-01	-4.019623864e-04	5.506571737e-12
-1.130000000e-02	2.321546206e-01	-3.996061088e-04	2.243604055e-11
-1.140000000e-02	2.321546212e-01	-3.972498312e-04	8.069145067e-12
-1.150000000e-02	2.321546217e-01	-3.948935537e-04	1.249506286e-11
-1.160000000e-02	2.321546222e-01	-3.925372763e-04	6.376545598e-12
-1.170000000e-02	2.321546226e-01	-3.901809988e-04	8.304519967e-12
-1.180000000e-02	2.321546229e-01	-3.878247215e-04	1.542515260e-11
-1.190000000e-02	2.321546231e-01	-3.854684442e-04	1.105162749e-11
-1.200000000e-02	2.321546233e-01	-3.831121670e-04	2.106908236e-11
-1.210000000e-02	2.321546234e-01	-3.807558898e-04	1.090302413e-11
-1.220000000e-02	2.321546234e-01	-3.783996128e-04	1.404963607e-11
-1.230000000e-02	2.321546234e-01	-3.760433358e-04	6.108344897e-11
-1.240000000e-02	2.321546232e-01	-3.736870588e-04	1.395514418e-11
-1.250000000e-02	2.321546230e-01	-3.713307820e-04	1.601588503e-11
-1.260000000e-02	2.321546228e-01	-3.689745053e-04	1.062968587e-11
-1.270000000e-02	2.321546224e-01	-3.666182286e-04	6.818139881e-12
-1.280000000e-02	2.321546220e-01	-3.642619521e-04	1.235381121e-11
-1.290000000e-02	2.321546216e-01	-3.619056756e-04	1.667817526e-11
-1.300000000e-02	2.321546210e-01	-3.595493993e-04	4.427824507e-11
-1.310000000e-02	2.321546204e-01	-3.571931230e-04	2.042536439e-11
-1.320000000e-02	2.321546197e-01	-3.548368469e-04	8.543193440e-12
-1.330000000e-02	2.321546189e-01	-3.524805709e-04	1.794287589e-11
-1.340000000e-02	2.321546181e-01	-3.501242950e-04	1.030003907e-11
-1.350000000e-02	2.321546172e-01	-3.477680192e-04	1.091416910e-11
-1.360000000e-02	2.321546162e-01	-3.454117435e-04	1.409794987e-11
-1.370000000e-02	2.321546151e-01	-3.430554680e-04	4.401463304e-11
-1.380000000e-02	2.321546140e-01	-3.406991926e-04	2.826381063e-11
-1.390000000e-02	2.321546128e-01	-3.383429174e-04	3.665416497e-11
-1.400000000e-02	2.321546116e-01	-3.359866423e-04	7.054033814e-12
-1.410000000e-02	2.321546102e-01	-3.336303673e-04	5.193906281e-12
-1.420000000e-02	2.321546088e-01	-3.312740925e-04	1.889996220e-11
-1.430000000e-02	2.321546073e-01	-3.289178178e-04	2.033657099e-11
-1.440000000e-02	2.321546058e-01	-3.265615433e-04	1.562034113e-11
-1.450000000e-02	2.321546041e-01	-3.242052689e-04	1.505828182e-11
-1.460000000e-02	2.321546025e-01	-3.218489947e-04	1.135305023e-11
-1.470000000e-02	2.321546007e-01	-3.194927207e-04	1.808363252e-11
-1.480000000e-02	2.321545988e-01	-3.171364468e-04	1.871574916e-11
-1.490000000e-02	2.321545969e-01	-3.147801731e-04	1.039677811e-11
-1.500000000e-02	2.321545949e-01	-3.124238996e-04	6.635599602e-12
-1.510000000e-02	2.321545929e-01	-3.100676262e-04	2.032937467e-11
-1.520000000e-02	2.321545908e-01	-3.077113531e-04	1.065855212e-11
-1.530000000e-02	2.321545886e-01	-3.053550801e-04	1.821616229e-11
-1.540000000e-02	2.321545863e-01	-3.029988073e-04	5.205162710e-11
-1.550000000e-02	2.321545839e-01	-3.006425348e-04	2.538479887e-11
-1.560000000e-02	2.321545815e-01	-2.982862624e-04	2.204664347e-11
-1.570000000e-02	2.321545790e-01	-2.959299902e-04	1.185129835e-11
-1.580000000e-02	2.321545765e-01	-2.935737182e-04	2.639336766e-11
-1.590000000e-02	2.321545739e-01	-2.912174464e-04	7.150218045e-12
-1.600000000e-02	2.321545712e-01	-2.888611749e-04	1.194694490e-11
-1.610000000e-02	2.321545684e-01	-2.865049036e-04	7.502266338e-11
-1.620000000e-02	2.321545655e-01	-2.841486324e-04	1.725360736e-11
-1.630000000e-02	2.321545626e-01	-2.817923615e-04	2.820559484e-11
-1.640000000e-02	2.321545596e-01	-2.794360909e-04	9.579555943e-12
-1.650000000e-02	2.321545566e-01	-2.770798204e-04	8.529662859e-12
-1.660000000e-02	2.321545534e-01	-2.747235502e-04	2.970670199e-11
-1.670000000e-02	2.321545502e-01	-2.723672803e-04	9.348322580e-12
-1.680000000e-02	2.321545470e-01	-2.700110105e-04	2.762134987e-11
-1.690000000e-02	2.321545436e-01	-2.676547410e-04	1.380994190e-11
-1.700000000e-02	2.321545402e-01	-2.652984718e-04	3.062178668e-11
-1.710000000e-02	2.321545367e-01	-2.629422028e-04	1.848338076e-11
-1.720000000e-02	2.321545332e-01	-2.605859341e-04	1.360458346e-11
-1.730000000e-02	2.321545295e-01	-2.582296656e-04	9.377297805e-12
-1.740000000e-02	2.321545258e-01	-2.558733974e-04	9.462123166e-12
-1.750000000e-02	2.321545220e-01	-2.535171295e-04	1.144164544e-11
-1.760000000e-02	2.321545182e-01	-2.511608619e-04	1.449751696e-11
-1.770000000e-02	2.321545143e-01	-2.488045945e-04	1.176049551e-11
-1.780000000e-02	2.321545103e-01	-2.464483274e-04	1.638627857e-11
-1.790000000e-02	2.321545062e-01	-2.440920605e-04	7.407931388e-12
-1.800000000e-02	2.321545021e-01	-2.417357940e-04	3.590596519e-11
-1.810000000e-02	2.321544979e-01	-2.393795277e-04	1.707871848e-11
-1.820000000e-02	2.321544936e-01	-2.370232618e-04	8.229219778e-12
-1.830000000e-02	2.321544892e-01	-2.346669961e-04	1.361718900e-11
-1.840000000e-02	2.321544848e-01	-2.323107307e-04	9.479474551e-12
-1.850000000e-02	2.321544803e-01	-2.299544657e-04	1.002682548e-10
-1.860000000e-02	2.321544758e-01	-2.275982009e-04	8.913639008e-12
-1.870000000e-02	2.321544711e-01	-2.252419365e-04	8.050756745e-12
-1.880000000e-02	2.321544664e-01	-2.228856723e-04	1.358269622e-11
-1.890000000e-02	2.321544616e-01	-2.205294085e-04	1.683287793e-11
-1.900000000e-02	2.321544568e-01	-2.181731450e-04	7.929398749e-12
-1.910000000e-02	2.321544519e-01	-2.158168819e-04	4.564889578e-11
-1.920000000e-02	2.321544469e-01	-2.134606190e-04	1.312053955e-11
-1.930000000e-02	2.321544418e-01	-2.111043565e-04	3.247169367e-11
-1.940000000e-02	2.321544366e-01	-2.087480944e-04	1.036940493e-11
-1.950000000e-02	2.321544314e-01	-2.063918325e-04	1.149430586e-11
-1.960000000e-02	2.321544262e-01	-2.040355710e-04	1.469073583e-11
-1.970000000e-02	2.321544208e-01	-2.016793099e-04	1.146554467e-11
-1.980000000e-02	2.321544154e-01	-1.993230491e-04	7.601466576e-12
-1.990000000e-02	2.321544099e-01	-1.969667887e-04	1.685291184e-11
-2.000000000e-02	2.321544043e-01	-1.946105286e-04	1.734875906e-11
-2.010000000e-02	2.321543987e-01	-1.922542689e-04	1.838932087e-11
-2.020000000e-02	2.321543930e-01	-1.898980096e-04	8.382901188e-12
-2.030000000e-02	2.321543872e-01	-1.875417506e-04	2.365678143e-11
-2.040000000e-02	2.321543813e-01	-1.851854920e-04	1.723307552e-11
-2.050000000e-02	2.321543754e-01	-1.828292337e-04	1.317373062e-11
-2.060000000e-02	2.321543694e-01	-1.804729759e-04	7.246424947e-12
-2.070000000e-02	2.321543633e-01	-1.781167184e-04	1.262332866e-11
-2.080000000e-02	2.321543572e-01	-1.757604613e-04	1.965182778e-11
-2.090000000e-02	2.321543510e-01	-1.734042046e-04	7.420182592e-12
-2.100000000e-02	2.321543447e-01	-1.710479483e-04	1.046945234e-11
-2.110000000e-02	2.321543383e-01	-1.686916924e-04	2.462050790e-11
-2.120000000e-02	2.321543319e-01	-1.663354369e-04	2.835121958e-11
-2.130000000e-02	2.321543254e-01	-1.639791819e-04	1.235114024e-11
-2.140000000e-02	2.321543188e-01	-1.616229272e-04	1.114626695e-11
-2.150000000e-02	2.321543122e-01	-1.592666729e-04	7.000802646e-12
-2.160000000e-02	2.321543054e-01	-1.569104191e-04	9.882366681e-12
-2.170000000e-02	2.321542986e-01	-1.545541656e-04	1.521511415e-11
-2.180000000e-02	2.321542918e-01	-1.521979126e-04	1.855819810e-11
-2.190000000e-02	2.321542849e-01	-1.498416600e-04	1.113488929e-11
-2.200000000e-02	2.321542779e-01	-1.474854079e-04	1.711422762e-11
-2.210000000e-02	2.321542708e-01	-1.451291561e-04	1.335032506e-11
-2.220000000e-02	2.321542636e-01	-1.427729049e-04	1.647762314e-11
-2.230000000e-02	2.321542564e-01	-1.404166540e-04	1.063084947e-11
-2.240000000e-02	2.321542491e-01	-1.380604036e-04	9.583419793e-12
-2.250000000e-02	2.321542418e-01	-1.357041537e-04	1.940249604e-11
-2.260000000e-02	2.321542343e-01	-1.333479042e-04	7.335800018e-12
-2.270000000e-02	2.321542268e-01	-1.309916552e-04	1.513309662e-11
-2.280000000e-02	2.321542192e-01	-1.286354066e-04	2.361054929e-11
-2.290000000e-02	2.321542116e-01	-1.262791585e-04	8.141306357e-12
-2.300000000e-02	2.321542039e-01	-1.239229108e-04	9.096253039e-12
-2.310000000e-02	2.321541961e-01	-1.215666636e-04	3.247191837e-12
-2.320000000e-02	2.321541882e-01	-1.192104169e-04	7.686695301e-12
-2.330000000e-02	2.321541803e-01	-1.168541707e-04	9.188283188e-12
-2.340000000e-02	2.321541723e-01	-1.144979250e-04	1.950899754e-11
-2.350000000e-02	2.321541642e-01	-1.121416797e-04	1.629581736e-11
-2.360000000e-02	2.321541560e-01	-1.097854349e-04	9.647527895e-12
-2.370000000e-02	2.321541478e-01	-1.074291907e-04	9.519226332e-12
-2.380000000e-02	2.321541395e-01	-1.050729469e-04	1.492137349e-11
-2.390000000e-02	2.321541312e-01	-1.027167036e-04	1.791809062e-11
-2.400000000e-02	2.321541227e-01	-1.003604608e-04	1.432872811e-11
-2.410000000e-02	2.321541142e-01	-9.800421855e-05	7.519247358e-12
-2.420000000e-02	2.321541056e-01	-9.564797679e-05	1.387328425e-11
-2.430000000e-02	2.321540970e-01	-9.329173554e-05	8.549782856e-12
-2.440000000e-02	2.321540882e-01	-9.093549481e-05	8.723329596e-12
-2.450000000e-02	2.321540795e-01	-8.857925461e-05	1.088413043e-11
-2.460000000e-02	2.321540706e-01	-8.622301492e-05	1.632385693e-11
-2.470000000e-02	2.321540616e-01	-8.386677577e-05	1.295644035e-11
-2.480000000e-02	2.321540526e-01	-8.151053715e-05	1.031838745e-11
-2.490000000e-02	2.321540435e-01	-7.915429907e-05	2.702590695e-11
-2.500000000e-02	2.321540344e-01	-7.679806152e-05	1.264582240e-11
-2.510000000e-02	2.321540252e-01	-7.444182452e-05	7.900231436e-12
-2.520000000e-02	2.321540159e-01	-7.208558807e-05	1.278652851e-11
-2.530000000e-02	2.321540065e-01	-6.972935216e-05	2.598947475e-11
-2.540000000e-02	2.321539971e-01	-6.737311681e-05	3.631861772e-11
-2.550000000e-02	2.321539875e-01	-6.501688202e-05	2.612918688e-11
-2.560000000e-02	2.321539780e-01	-6.266064779e-05	7.917203534e-11
-2.570000000e-02	2.321539683e-01	-6.030441413e-05	1.562964901e-11
-2.580000000e-02	2.321539586e-01	-5.794818103e-05	2.629019083e-11
-2.590000000e-02	2.321539488e-01	-5.559194851e-05	9.299450991e-12
-2.600000000e-02	2.321539389e-01	-5.323571656e-05	1.404649800e-11
-2.610000000e-02	2.321539290e-01	-5.087948519e-05	1.498686931e-11
-2.620000000e-02	2.321539189e-01	-4.852325441e-05	1.427590578e-11
-2.630000000e-02	2.321539089e-01	-4.616702420e-05	5.843130394e-11
-2.640000000e-02	2.321538987e-01	-4.381079460e-05	2.174172884e-11
-2.650000000e-02	2.321538885e-01	-4.145456559e-05	1.470732171e-11
-2.660000000e-02	2.321538782e-01	-3.909833717e-05	5.439733593e-11
-2.670000000e-02	2.321538678e-01	-3.674210936e-05	7.211125198e-12
-2.680000000e-02	2.321538573e-01	-3.438588215e-05	3.855815693e-11
-2.690000000e-02	2.321538468e-01	-3.202965555e-05	9.808034920e-12
-2.700000000e-02	2.321538362e-01	-2.967342956e-05	2.499655413e-11
-2.710000000e-02	2.321538256e-01	-2.731720419e-05	5.568839489e-12
-2.720000000e-02	2.321538148e-01	-2.496097944e-05	7.370208947e-11
-2.730000000e-02	2.321538040e-01	-2.260475531e-05	1.028493147e-11
-2.740000000e-02	2.321537932e-01	-2.024853181e-05	1.457912860e-11
-2.750000000e-02	2.321537822e-01	-1.789230893e-05	9.688835672e-12
-2.760000000e-02	2.321537712e-01	-1.553608670e-05	9.998006328e-12
-2.770000000e-02	2.321537601e-01	-1.317986510e-05	1.929168883e-11
-2.780000000e-02	2.321537489e-01	-1.082364414e-05	8.673479415e-12
-2.790000000e-02	2.321537377e-01	-8.467423828e-06	1.637002628e-11
-2.800000000e-02	2.321537264e-01	-6.111204163e-06	5.514894998e-12
-2.810000000e-02	2.321537150e-01	-3.754985151e-06	1.582928370e-11
-2.820000000e-02	2.321537036e-01	-1.398766796e-06	1.009820931e-11
-2.830000000e-02	2.321536921e-01	9.574509004e-07	1.080551537e-11
-2.840000000e-02	2.321536805e-01	3.313667932e-06	1.896914137e-11
-2.850000000e-02	2.321536688e-01	5.669884298e-06	1.725995878e-11
-2.860000000e-02	2.321536571e-01	8.026099994e-06	1.291270822e-11
-2.870000000e-02	2.321536452e-01	1.038231502e-05	1.644008148e-11
-2.880000000e-02	2.321536334e-01	1.273852936e-05	1.549397043e-11
-2.890000000e-02	2.321536214e-01	1.509474302e-05	4.473649918e-11
-2.900000000e-02	2.321536094e-01	1.745095600e-05	1.085678581e-11
-2.910000000e-02	2.321535973e-01	1.980716828e-05	7.262789058e-12
-2.920000000e-02	2.321535851e-01	2.216337988e-05	8.019763755e-12
-2.930000000e-02	2.321535729e-01	2.451959078e-05	1.029146292e-11
-2.940000000e-02	2.321535606e-01	2.687580098e-05	6.580132470e-12
-2.950000000e-02	2.321535482e-01	2.923201048e-05	6.776312822e-12
-2.960000000e-02	2.321535357e-01	3.158821927e-05	2.026689184e-11
-2.970000000e-02	2.321535232e-01	3.394442735e-05	5.430063238e-11
-2.980000000e-02	2.321535106e-01	3.630063471e-05	2.699497487e-11
-2.990000000e-02	2.321534980e-01	3.865684136e-05	1.888792132e-11
-3.000000000e-02	2.321534852e-01	4.101304728e-05	2.932008614e-11
