# Im(epsi1)     Re(omega/c)      Im(omega/c)      Eq(det).Opt det CON kz, R=0.5 \mum, mu_c=0.3, Re(epsi1)=3.90solve_det_conkz_vs_kz.py
0.000000000e+00	2.321595115e-01	-6.658849746e-04	3.825895478e-11
-1.000000000e-04	2.321595202e-01	-6.635286758e-04	7.682065921e-12
-2.000000000e-04	2.321595288e-01	-6.611723767e-04	2.389034175e-11
-3.000000000e-04	2.321595374e-01	-6.588160772e-04	7.788342634e-12
-4.000000000e-04	2.321595459e-01	-6.564597774e-04	1.648872080e-10
-5.000000000e-04	2.321595543e-01	-6.541034772e-04	5.746398112e-12
-6.000000000e-04	2.321595626e-01	-6.517471767e-04	1.658910652e-11
-7.000000000e-04	2.321595709e-01	-6.493908759e-04	2.408926263e-11
-8.000000000e-04	2.321595791e-01	-6.470345746e-04	1.717490024e-11
-9.000000000e-04	2.321595872e-01	-6.446782731e-04	1.327099660e-11
-1.000000000e-03	2.321595953e-01	-6.423219712e-04	1.100052341e-11
-1.100000000e-03	2.321596033e-01	-6.399656690e-04	1.690231032e-11
-1.200000000e-03	2.321596112e-01	-6.376093665e-04	1.120243028e-11
-1.300000000e-03	2.321596190e-01	-6.352530636e-04	1.168542348e-11
-1.400000000e-03	2.321596268e-01	-6.328967605e-04	1.437911187e-11
-1.500000000e-03	2.321596345e-01	-6.305404570e-04	2.968154686e-11
-1.600000000e-03	2.321596421e-01	-6.281841532e-04	5.086075432e-11
-1.700000000e-03	2.321596497e-01	-6.258278491e-04	6.296746165e-12
-1.800000000e-03	2.321596571e-01	-6.234715447e-04	4.843870092e-11
-1.900000000e-03	2.321596646e-01	-6.211152400e-04	1.416213809e-11
-2.000000000e-03	2.321596719e-01	-6.187589350e-04	9.045727286e-12
-2.100000000e-03	2.321596792e-01	-6.164026297e-04	1.159513672e-11
-2.200000000e-03	2.321596864e-01	-6.140463241e-04	2.590283881e-11
-2.300000000e-03	2.321596935e-01	-6.116900182e-04	1.215593937e-11
-2.400000000e-03	2.321597005e-01	-6.093337121e-04	5.351735314e-12
-2.500000000e-03	2.321597075e-01	-6.069774056e-04	1.705463054e-11
-2.600000000e-03	2.321597144e-01	-6.046210989e-04	8.757089481e-12
-2.700000000e-03	2.321597213e-01	-6.022647919e-04	1.083631903e-11
-2.800000000e-03	2.321597280e-01	-5.999084847e-04	7.528325603e-11
-2.900000000e-03	2.321597347e-01	-5.975521772e-04	1.635578268e-11
-3.000000000e-03	2.321597413e-01	-5.951958694e-04	7.575400763e-12
-3.100000000e-03	2.321597479e-01	-5.928395614e-04	1.692613096e-11
-3.200000000e-03	2.321597544e-01	-5.904832531e-04	1.606934161e-11
-3.300000000e-03	2.321597608e-01	-5.881269446e-04	6.770482830e-12
-3.400000000e-03	2.321597671e-01	-5.857706358e-04	1.395010854e-11
-3.500000000e-03	2.321597734e-01	-5.834143268e-04	4.169936969e-11
-3.600000000e-03	2.321597796e-01	-5.810580176e-04	1.122800682e-11
-3.700000000e-03	2.321597857e-01	-5.787017081e-04	5.107050801e-10
-3.800000000e-03	2.321597917e-01	-5.763453983e-04	1.884275072e-11
-3.900000000e-03	2.321597977e-01	-5.739890884e-04	6.704511172e-12
-4.000000000e-03	2.321598036e-01	-5.716327782e-04	1.285292753e-11
-4.100000000e-03	2.321598094e-01	-5.692764678e-04	1.329503526e-11
-4.200000000e-03	2.321598152e-01	-5.669201572e-04	2.277849093e-11
-4.300000000e-03	2.321598209e-01	-5.645638464e-04	3.412206171e-11
-4.400000000e-03	2.321598265e-01	-5.622075354e-04	2.237299953e-11
-4.500000000e-03	2.321598320e-01	-5.598512242e-04	9.905771847e-11
-4.600000000e-03	2.321598375e-01	-5.574949127e-04	8.676811795e-12
-4.700000000e-03	2.321598429e-01	-5.551386011e-04	8.616399270e-12
-4.800000000e-03	2.321598483e-01	-5.527822893e-04	1.741037047e-11
-4.900000000e-03	2.321598535e-01	-5.504259772e-04	7.977549816e-12
-5.000000000e-03	2.321598587e-01	-5.480696650e-04	1.594396671e-11
-5.100000000e-03	2.321598638e-01	-5.457133526e-04	8.323414475e-12
-5.200000000e-03	2.321598689e-01	-5.433570401e-04	5.050433588e-12
-5.300000000e-03	2.321598738e-01	-5.410007273e-04	1.754090865e-11
-5.400000000e-03	2.321598787e-01	-5.386444144e-04	7.179529612e-12
-5.500000000e-03	2.321598836e-01	-5.362881013e-04	2.159712544e-11
-5.600000000e-03	2.321598883e-01	-5.339317881e-04	2.548517372e-11
-5.700000000e-03	2.321598930e-01	-5.315754746e-04	8.957727567e-12
-5.800000000e-03	2.321598976e-01	-5.292191611e-04	1.183946106e-11
-5.900000000e-03	2.321599022e-01	-5.268628473e-04	9.298659346e-12
-6.000000000e-03	2.321599066e-01	-5.245065334e-04	1.764415877e-11
-6.100000000e-03	2.321599110e-01	-5.221502194e-04	3.667741712e-11
-6.200000000e-03	2.321599153e-01	-5.197939052e-04	2.998136541e-11
-6.300000000e-03	2.321599196e-01	-5.174375909e-04	9.235878729e-12
-6.400000000e-03	2.321599238e-01	-5.150812765e-04	1.529335774e-11
-6.500000000e-03	2.321599279e-01	-5.127249619e-04	7.960541326e-12
-6.600000000e-03	2.321599319e-01	-5.103686472e-04	2.986670034e-11
-6.700000000e-03	2.321599359e-01	-5.080123323e-04	8.806850828e-12
-6.800000000e-03	2.321599398e-01	-5.056560174e-04	5.901980903e-12
-6.900000000e-03	2.321599436e-01	-5.032997023e-04	2.129176006e-12
-7.000000000e-03	2.321599474e-01	-5.009433871e-04	7.170199317e-11
-7.100000000e-03	2.321599511e-01	-4.985870718e-04	3.738924733e-11
-7.200000000e-03	2.321599547e-01	-4.962307564e-04	2.246720160e-11
-7.300000000e-03	2.321599582e-01	-4.938744409e-04	4.784140749e-11
-7.400000000e-03	2.321599617e-01	-4.915181253e-04	2.697719069e-11
-7.500000000e-03	2.321599651e-01	-4.891618096e-04	4.961235979e-10
-7.600000000e-03	2.321599684e-01	-4.868054938e-04	8.554175213e-12
-7.700000000e-03	2.321599716e-01	-4.844491779e-04	4.414634567e-12
-7.800000000e-03	2.321599748e-01	-4.820928619e-04	1.291204462e-11
-7.900000000e-03	2.321599779e-01	-4.797365458e-04	2.226206032e-11
-8.000000000e-03	2.321599810e-01	-4.773802297e-04	9.916793201e-12
-8.100000000e-03	2.321599839e-01	-4.750239135e-04	2.094341329e-11
-8.200000000e-03	2.321599868e-01	-4.726675972e-04	3.053567623e-11
-8.300000000e-03	2.321599896e-01	-4.703112808e-04	1.488822971e-11
-8.400000000e-03	2.321599924e-01	-4.679549644e-04	6.500546402e-11
-8.500000000e-03	2.321599951e-01	-4.655986479e-04	7.091412849e-12
-8.600000000e-03	2.321599977e-01	-4.632423314e-04	9.884675338e-12
-8.700000000e-03	2.321600002e-01	-4.608860148e-04	9.279150663e-12
-8.800000000e-03	2.321600027e-01	-4.585296982e-04	2.307385909e-11
-8.900000000e-03	2.321600051e-01	-4.561733815e-04	1.395458515e-11
-9.000000000e-03	2.321600074e-01	-4.538170648e-04	1.412383046e-11
-9.100000000e-03	2.321600096e-01	-4.514607480e-04	6.757887048e-12
-9.200000000e-03	2.321600118e-01	-4.491044312e-04	1.169233700e-11
-9.300000000e-03	2.321600139e-01	-4.467481144e-04	1.202971821e-11
-9.400000000e-03	2.321600159e-01	-4.443917975e-04	6.818639986e-12
-9.500000000e-03	2.321600179e-01	-4.420354807e-04	1.313749481e-11
-9.600000000e-03	2.321600198e-01	-4.396791638e-04	1.952615921e-11
-9.700000000e-03	2.321600216e-01	-4.373228468e-04	1.300711913e-11
-9.800000000e-03	2.321600233e-01	-4.349665299e-04	1.254957638e-11
-9.900000000e-03	2.321600250e-01	-4.326102130e-04	1.965956556e-11
-1.000000000e-02	2.321600266e-01	-4.302538960e-04	1.257293894e-11
-1.010000000e-02	2.321600281e-01	-4.278975791e-04	8.871823227e-12
-1.020000000e-02	2.321600296e-01	-4.255412622e-04	1.466021278e-11
-1.030000000e-02	2.321600310e-01	-4.231849452e-04	2.460552072e-11
-1.040000000e-02	2.321600323e-01	-4.208286283e-04	7.639728203e-12
-1.050000000e-02	2.321600336e-01	-4.184723114e-04	6.142079319e-12
-1.060000000e-02	2.321600347e-01	-4.161159945e-04	2.041109810e-11
-1.070000000e-02	2.321600358e-01	-4.137596776e-04	1.355172962e-11
-1.080000000e-02	2.321600369e-01	-4.114033607e-04	2.363024382e-11
-1.090000000e-02	2.321600378e-01	-4.090470439e-04	2.479234098e-11
-1.100000000e-02	2.321600387e-01	-4.066907271e-04	3.143765371e-12
-1.110000000e-02	2.321600395e-01	-4.043344103e-04	3.817645125e-11
-1.120000000e-02	2.321600402e-01	-4.019780936e-04	1.268139849e-11
-1.130000000e-02	2.321600409e-01	-3.996217769e-04	1.551036999e-11
-1.140000000e-02	2.321600415e-01	-3.972654603e-04	7.658221340e-12
-1.150000000e-02	2.321600420e-01	-3.949091437e-04	2.192973734e-11
-1.160000000e-02	2.321600425e-01	-3.925528271e-04	7.570047603e-12
-1.170000000e-02	2.321600429e-01	-3.901965107e-04	1.549772358e-11
-1.180000000e-02	2.321600432e-01	-3.878401942e-04	1.476569638e-11
-1.190000000e-02	2.321600434e-01	-3.854838779e-04	1.173156865e-11
-1.200000000e-02	2.321600436e-01	-3.831275616e-04	1.909908518e-11
-1.210000000e-02	2.321600437e-01	-3.807712454e-04	1.602188263e-11
-1.220000000e-02	2.321600437e-01	-3.784149292e-04	1.408780923e-11
-1.230000000e-02	2.321600437e-01	-3.760586132e-04	1.627559097e-11
-1.240000000e-02	2.321600435e-01	-3.737022972e-04	7.856258754e-12
-1.250000000e-02	2.321600434e-01	-3.713459813e-04	2.799567371e-11
-1.260000000e-02	2.321600431e-01	-3.689896654e-04	4.439050820e-12
-1.270000000e-02	2.321600428e-01	-3.666333497e-04	3.801947934e-11
-1.280000000e-02	2.321600423e-01	-3.642770341e-04	1.159136936e-11
-1.290000000e-02	2.321600419e-01	-3.619207186e-04	1.503121456e-11
-1.300000000e-02	2.321600413e-01	-3.595644032e-04	8.949805315e-12
-1.310000000e-02	2.321600407e-01	-3.572080878e-04	1.150825133e-11
-1.320000000e-02	2.321600400e-01	-3.548517726e-04	9.340385704e-12
-1.330000000e-02	2.321600392e-01	-3.524954575e-04	1.143781357e-11
-1.340000000e-02	2.321600384e-01	-3.501391426e-04	1.420907106e-11
-1.350000000e-02	2.321600375e-01	-3.477828277e-04	3.225601072e-11
-1.360000000e-02	2.321600365e-01	-3.454265130e-04	1.645000363e-11
-1.370000000e-02	2.321600355e-01	-3.430701984e-04	7.845804446e-12
-1.380000000e-02	2.321600343e-01	-3.407138839e-04	9.594011639e-12
-1.390000000e-02	2.321600331e-01	-3.383575696e-04	2.421148686e-11
-1.400000000e-02	2.321600319e-01	-3.360012554e-04	1.444953284e-11
-1.410000000e-02	2.321600305e-01	-3.336449414e-04	2.986909645e-11
-1.420000000e-02	2.321600291e-01	-3.312886275e-04	1.933904023e-11
-1.430000000e-02	2.321600276e-01	-3.289323137e-04	4.165039502e-11
-1.440000000e-02	2.321600261e-01	-3.265760001e-04	1.242169509e-11
-1.450000000e-02	2.321600245e-01	-3.242196867e-04	3.358259442e-11
-1.460000000e-02	2.321600228e-01	-3.218633734e-04	1.892844642e-11
-1.470000000e-02	2.321600210e-01	-3.195070603e-04	6.915462650e-12
-1.480000000e-02	2.321600192e-01	-3.171507474e-04	7.385841967e-12
-1.490000000e-02	2.321600172e-01	-3.147944346e-04	1.462584649e-11
-1.500000000e-02	2.321600153e-01	-3.124381220e-04	9.274512647e-12
-1.510000000e-02	2.321600132e-01	-3.100818096e-04	1.054548499e-11
-1.520000000e-02	2.321600111e-01	-3.077254974e-04	2.357809116e-11
-1.530000000e-02	2.321600089e-01	-3.053691854e-04	1.833992127e-11
-1.540000000e-02	2.321600066e-01	-3.030128735e-04	2.141024304e-11
-1.550000000e-02	2.321600043e-01	-3.006565619e-04	2.618944404e-11
-1.560000000e-02	2.321600019e-01	-2.983002504e-04	7.254734146e-12
-1.570000000e-02	2.321599994e-01	-2.959439391e-04	1.142617286e-11
-1.580000000e-02	2.321599968e-01	-2.935876281e-04	1.099668188e-11
-1.590000000e-02	2.321599942e-01	-2.912313173e-04	2.525480429e-11
-1.600000000e-02	2.321599915e-01	-2.888750066e-04	1.306204537e-11
-1.610000000e-02	2.321599887e-01	-2.865186962e-04	9.969719715e-12
-1.620000000e-02	2.321599859e-01	-2.841623860e-04	1.780411613e-11
-1.630000000e-02	2.321599829e-01	-2.818060761e-04	3.186707414e-11
-1.640000000e-02	2.321599800e-01	-2.794497663e-04	8.162674670e-12
-1.650000000e-02	2.321599769e-01	-2.770934568e-04	3.397998230e-11
-1.660000000e-02	2.321599738e-01	-2.747371475e-04	1.523851351e-11
-1.670000000e-02	2.321599706e-01	-2.723808385e-04	1.085161282e-11
-1.680000000e-02	2.321599673e-01	-2.700245297e-04	1.596286513e-11
-1.690000000e-02	2.321599639e-01	-2.676682211e-04	1.804321350e-11
-1.700000000e-02	2.321599605e-01	-2.653119128e-04	9.917178474e-12
-1.710000000e-02	2.321599570e-01	-2.629556048e-04	7.766600343e-11
-1.720000000e-02	2.321599535e-01	-2.605992970e-04	1.202169501e-11
-1.730000000e-02	2.321599498e-01	-2.582429894e-04	6.607989675e-12
-1.740000000e-02	2.321599461e-01	-2.558866822e-04	1.058159483e-11
-1.750000000e-02	2.321599424e-01	-2.535303752e-04	1.343913760e-11
-1.760000000e-02	2.321599385e-01	-2.511740684e-04	1.356911398e-11
-1.770000000e-02	2.321599346e-01	-2.488177620e-04	1.783649770e-11
-1.780000000e-02	2.321599306e-01	-2.464614558e-04	1.164931362e-11
-1.790000000e-02	2.321599265e-01	-2.441051499e-04	2.068909658e-11
-1.800000000e-02	2.321599224e-01	-2.417488443e-04	5.963211706e-12
-1.810000000e-02	2.321599182e-01	-2.393925390e-04	2.880393390e-11
-1.820000000e-02	2.321599139e-01	-2.370362339e-04	1.517432428e-11
-1.830000000e-02	2.321599096e-01	-2.346799292e-04	3.560797870e-11
-1.840000000e-02	2.321599051e-01	-2.323236247e-04	9.352083144e-12
-1.850000000e-02	2.321599007e-01	-2.299673206e-04	1.889012775e-11
-1.860000000e-02	2.321598961e-01	-2.276110168e-04	1.364520300e-11
-1.870000000e-02	2.321598914e-01	-2.252547133e-04	3.306365422e-11
-1.880000000e-02	2.321598867e-01	-2.228984101e-04	9.385713349e-12
-1.890000000e-02	2.321598820e-01	-2.205421072e-04	4.235453268e-12
-1.900000000e-02	2.321598771e-01	-2.181858046e-04	2.288561762e-11
-1.910000000e-02	2.321598722e-01	-2.158295024e-04	1.754912526e-11
-1.920000000e-02	2.321598672e-01	-2.134732005e-04	5.193412435e-12
-1.930000000e-02	2.321598621e-01	-2.111168989e-04	3.477668350e-11
-1.940000000e-02	2.321598570e-01	-2.087605976e-04	8.781710695e-12
-1.950000000e-02	2.321598518e-01	-2.064042967e-04	9.526070133e-12
-1.960000000e-02	2.321598465e-01	-2.040479962e-04	1.309424161e-11
-1.970000000e-02	2.321598411e-01	-2.016916960e-04	1.388125741e-11
-1.980000000e-02	2.321598357e-01	-1.993353961e-04	1.697871679e-11
-1.990000000e-02	2.321598302e-01	-1.969790966e-04	2.414390927e-11
-2.000000000e-02	2.321598246e-01	-1.946227975e-04	4.765639280e-12
-2.010000000e-02	2.321598190e-01	-1.922664987e-04	1.144376421e-11
-2.020000000e-02	2.321598133e-01	-1.899102003e-04	2.885117461e-11
-2.030000000e-02	2.321598075e-01	-1.875539022e-04	1.231053368e-11
-2.040000000e-02	2.321598016e-01	-1.851976045e-04	4.313288847e-12
-2.050000000e-02	2.321597957e-01	-1.828413072e-04	1.316668433e-11
-2.060000000e-02	2.321597897e-01	-1.804850103e-04	3.015975360e-11
-2.070000000e-02	2.321597836e-01	-1.781287137e-04	1.179765992e-11
-2.080000000e-02	2.321597775e-01	-1.757724176e-04	3.504746912e-11
-2.090000000e-02	2.321597713e-01	-1.734161218e-04	1.810063236e-11
-2.100000000e-02	2.321597650e-01	-1.710598265e-04	2.724425137e-11
-2.110000000e-02	2.321597586e-01	-1.687035315e-04	1.255715766e-11
-2.120000000e-02	2.321597522e-01	-1.663472369e-04	1.301279148e-11
-2.130000000e-02	2.321597457e-01	-1.639909428e-04	8.511962993e-12
-2.140000000e-02	2.321597391e-01	-1.616346490e-04	2.419407245e-11
-2.150000000e-02	2.321597325e-01	-1.592783557e-04	8.185700764e-12
-2.160000000e-02	2.321597258e-01	-1.569220627e-04	7.876380365e-12
-2.170000000e-02	2.321597190e-01	-1.545657702e-04	5.076355087e-12
-2.180000000e-02	2.321597121e-01	-1.522094781e-04	9.481568654e-12
-2.190000000e-02	2.321597052e-01	-1.498531865e-04	2.091943200e-11
-2.200000000e-02	2.321596982e-01	-1.474968953e-04	9.026843168e-12
-2.210000000e-02	2.321596911e-01	-1.451406045e-04	1.522275198e-11
-2.220000000e-02	2.321596840e-01	-1.427843141e-04	5.090546377e-11
-2.230000000e-02	2.321596767e-01	-1.404280242e-04	1.843249852e-11
-2.240000000e-02	2.321596695e-01	-1.380717347e-04	4.229531156e-12
-2.250000000e-02	2.321596621e-01	-1.357154457e-04	7.355495822e-12
-2.260000000e-02	2.321596547e-01	-1.333591571e-04	1.236304064e-11
-2.270000000e-02	2.321596472e-01	-1.310028690e-04	2.184705305e-11
-2.280000000e-02	2.321596396e-01	-1.286465814e-04	3.095343662e-11
-2.290000000e-02	2.321596319e-01	-1.262902942e-04	1.111550148e-11
-2.300000000e-02	2.321596242e-01	-1.239340075e-04	4.494269346e-12
-2.310000000e-02	2.321596164e-01	-1.215777212e-04	1.064468098e-11
-2.320000000e-02	2.321596086e-01	-1.192214355e-04	1.041699483e-11
-2.330000000e-02	2.321596006e-01	-1.168651502e-04	1.554020660e-11
-2.340000000e-02	2.321595926e-01	-1.145088653e-04	9.941926694e-12
-2.350000000e-02	2.321595845e-01	-1.121525810e-04	2.688896175e-11
-2.360000000e-02	2.321595764e-01	-1.097962972e-04	5.127385764e-12
-2.370000000e-02	2.321595682e-01	-1.074400138e-04	2.175397650e-11
-2.380000000e-02	2.321595599e-01	-1.050837310e-04	6.438813219e-12
-2.390000000e-02	2.321595515e-01	-1.027274486e-04	6.873819260e-12
-2.400000000e-02	2.321595431e-01	-1.003711668e-04	2.034180735e-11
-2.410000000e-02	2.321595346e-01	-9.801488541e-05	7.483028674e-12
-2.420000000e-02	2.321595260e-01	-9.565860458e-05	2.345812688e-11
-2.430000000e-02	2.321595173e-01	-9.330232426e-05	8.559222007e-12
-2.440000000e-02	2.321595086e-01	-9.094604446e-05	8.110977359e-11
-2.450000000e-02	2.321594998e-01	-8.858976518e-05	6.064323140e-12
-2.460000000e-02	2.321594909e-01	-8.623348642e-05	4.172376448e-11
-2.470000000e-02	2.321594820e-01	-8.387720820e-05	1.168152118e-11
-2.480000000e-02	2.321594730e-01	-8.152093050e-05	1.339519221e-11
-2.490000000e-02	2.321594639e-01	-7.916465335e-05	7.667392489e-12
-2.500000000e-02	2.321594547e-01	-7.680837673e-05	1.244500253e-11
-2.510000000e-02	2.321594455e-01	-7.445210065e-05	2.774046151e-11
-2.520000000e-02	2.321594362e-01	-7.209582513e-05	3.506820763e-11
-2.530000000e-02	2.321594268e-01	-6.973955015e-05	3.490247802e-11
-2.540000000e-02	2.321594174e-01	-6.738327573e-05	1.580023820e-11
-2.550000000e-02	2.321594079e-01	-6.502700186e-05	7.437789022e-12
-2.560000000e-02	2.321593983e-01	-6.267072856e-05	1.056389113e-11
-2.570000000e-02	2.321593886e-01	-6.031445582e-05	1.027771281e-11
-2.580000000e-02	2.321593789e-01	-5.795818365e-05	1.008514849e-11
-2.590000000e-02	2.321593691e-01	-5.560191205e-05	8.750758925e-12
-2.600000000e-02	2.321593592e-01	-5.324564103e-05	2.331035920e-11
-2.610000000e-02	2.321593493e-01	-5.088937059e-05	1.124821965e-11
-2.620000000e-02	2.321593393e-01	-4.853310073e-05	1.808543758e-11
-2.630000000e-02	2.321593292e-01	-4.617683146e-05	9.058717632e-12
-2.640000000e-02	2.321593190e-01	-4.382056278e-05	9.789753815e-12
-2.650000000e-02	2.321593088e-01	-4.146429469e-05	1.016104639e-11
-2.660000000e-02	2.321592985e-01	-3.910802721e-05	1.684552705e-11
-2.670000000e-02	2.321592881e-01	-3.675176032e-05	2.597814829e-11
-2.680000000e-02	2.321592777e-01	-3.439549404e-05	3.156628754e-12
-2.690000000e-02	2.321592672e-01	-3.203922836e-05	1.106202510e-11
-2.700000000e-02	2.321592566e-01	-2.968296330e-05	9.663932168e-12
-2.710000000e-02	2.321592459e-01	-2.732669886e-05	9.482374407e-12
-2.720000000e-02	2.321592352e-01	-2.497043503e-05	1.260702300e-11
-2.730000000e-02	2.321592244e-01	-2.261417183e-05	9.183616305e-12
-2.740000000e-02	2.321592135e-01	-2.025790925e-05	1.348956789e-11
-2.750000000e-02	2.321592026e-01	-1.790164731e-05	1.093265291e-11
-2.760000000e-02	2.321591915e-01	-1.554538600e-05	1.840977492e-11
-2.770000000e-02	2.321591805e-01	-1.318912533e-05	6.874042784e-11
-2.780000000e-02	2.321591693e-01	-1.083286529e-05	1.519234441e-11
-2.790000000e-02	2.321591581e-01	-8.476605910e-06	9.494762545e-12
-2.800000000e-02	2.321591467e-01	-6.120347172e-06	1.067924841e-11
-2.810000000e-02	2.321591354e-01	-3.764089087e-06	1.549792846e-11
-2.820000000e-02	2.321591239e-01	-1.407831658e-06	1.123177715e-11
-2.830000000e-02	2.321591124e-01	9.484251119e-07	1.537008034e-11
-2.840000000e-02	2.321591008e-01	3.304681217e-06	1.227231097e-11
-2.850000000e-02	2.321590891e-01	5.660936657e-06	9.002272216e-12
-2.860000000e-02	2.321590774e-01	8.017191426e-06	1.408691416e-11
-2.870000000e-02	2.321590656e-01	1.037344552e-05	1.151316074e-11
-2.880000000e-02	2.321590537e-01	1.272969894e-05	1.683856992e-11
-2.890000000e-02	2.321590418e-01	1.508595167e-05	2.641505837e-12
-2.900000000e-02	2.321590297e-01	1.744220372e-05	5.281337874e-12
-2.910000000e-02	2.321590177e-01	1.979845508e-05	1.508446704e-11
-2.920000000e-02	2.321590055e-01	2.215470575e-05	9.111139059e-12
-2.930000000e-02	2.321589932e-01	2.451095573e-05	6.206341871e-12
-2.940000000e-02	2.321589809e-01	2.686720500e-05	1.594628705e-11
-2.950000000e-02	2.321589686e-01	2.922345357e-05	1.339060126e-11
-2.960000000e-02	2.321589561e-01	3.157970143e-05	1.057209831e-11
-2.970000000e-02	2.321589436e-01	3.393594859e-05	2.206361984e-11
-2.980000000e-02	2.321589310e-01	3.629219502e-05	9.371836851e-12
-2.990000000e-02	2.321589183e-01	3.864844075e-05	1.181113441e-11
-3.000000000e-02	2.321589056e-01	4.100468575e-05	1.737796852e-11
