# Im(epsi1)     Re(omega/c)      Im(omega/c)      Eq(det).Opt det CON kz, R=0.5 \mum, mu_c=0.3, Re(epsi1)=3.90solve_det_conkz_vs_kz.py
0.000000000e+00	2.321437992e-01	-6.658267553e-04	1.263807809e-11
-1.000000000e-04	2.321438079e-01	-6.634705697e-04	1.340143331e-11
-2.000000000e-04	2.321438165e-01	-6.611143839e-04	8.509288095e-12
-3.000000000e-04	2.321438251e-01	-6.587581976e-04	1.133104384e-11
-4.000000000e-04	2.321438336e-01	-6.564020111e-04	2.289986601e-11
-5.000000000e-04	2.321438420e-01	-6.540458241e-04	7.935141657e-12
-6.000000000e-04	2.321438503e-01	-6.516896368e-04	1.114454364e-11
-7.000000000e-04	2.321438586e-01	-6.493334492e-04	1.261300227e-11
-8.000000000e-04	2.321438668e-01	-6.469772613e-04	1.144675672e-11
-9.000000000e-04	2.321438749e-01	-6.446210730e-04	1.928138184e-11
-1.000000000e-03	2.321438830e-01	-6.422648843e-04	9.171660749e-12
-1.100000000e-03	2.321438910e-01	-6.399086954e-04	2.313024599e-11
-1.200000000e-03	2.321438989e-01	-6.375525061e-04	5.734542562e-11
-1.300000000e-03	2.321439067e-01	-6.351963165e-04	5.518359868e-11
-1.400000000e-03	2.321439145e-01	-6.328401265e-04	5.466066142e-11
-1.500000000e-03	2.321439222e-01	-6.304839363e-04	1.115599006e-11
-1.600000000e-03	2.321439298e-01	-6.281277457e-04	6.448813145e-12
-1.700000000e-03	2.321439373e-01	-6.257715549e-04	1.762163036e-11
-1.800000000e-03	2.321439448e-01	-6.234153637e-04	9.899726817e-12
-1.900000000e-03	2.321439522e-01	-6.210591722e-04	9.825855590e-12
-2.000000000e-03	2.321439596e-01	-6.187029805e-04	2.848761030e-11
-2.100000000e-03	2.321439668e-01	-6.163467884e-04	3.135873615e-11
-2.200000000e-03	2.321439740e-01	-6.139905961e-04	5.709963019e-12
-2.300000000e-03	2.321439812e-01	-6.116344035e-04	7.612008992e-12
-2.400000000e-03	2.321439882e-01	-6.092782105e-04	1.011053691e-11
-2.500000000e-03	2.321439952e-01	-6.069220174e-04	5.162855400e-12
-2.600000000e-03	2.321440021e-01	-6.045658239e-04	2.352120467e-11
-2.700000000e-03	2.321440089e-01	-6.022096302e-04	8.178448245e-11
-2.800000000e-03	2.321440157e-01	-5.998534361e-04	1.006958950e-11
-2.900000000e-03	2.321440224e-01	-5.974972419e-04	1.608237305e-11
-3.000000000e-03	2.321440290e-01	-5.951410474e-04	6.957742008e-12
-3.100000000e-03	2.321440356e-01	-5.927848526e-04	1.808221974e-11
-3.200000000e-03	2.321440420e-01	-5.904286575e-04	2.262338782e-11
-3.300000000e-03	2.321440484e-01	-5.880724623e-04	2.351026284e-11
-3.400000000e-03	2.321440548e-01	-5.857162667e-04	2.171194106e-11
-3.500000000e-03	2.321440610e-01	-5.833600709e-04	1.130224510e-11
-3.600000000e-03	2.321440672e-01	-5.810038749e-04	1.359289749e-11
-3.700000000e-03	2.321440733e-01	-5.786476787e-04	7.604941118e-12
-3.800000000e-03	2.321440794e-01	-5.762914822e-04	2.101217891e-11
-3.900000000e-03	2.321440854e-01	-5.739352855e-04	8.772369670e-12
-4.000000000e-03	2.321440913e-01	-5.715790886e-04	7.694909296e-12
-4.100000000e-03	2.321440971e-01	-5.692228914e-04	7.351910462e-12
-4.200000000e-03	2.321441029e-01	-5.668666941e-04	2.063955627e-11
-4.300000000e-03	2.321441085e-01	-5.645104965e-04	1.227750838e-11
-4.400000000e-03	2.321441142e-01	-5.621542987e-04	1.417661610e-11
-4.500000000e-03	2.321441197e-01	-5.597981007e-04	7.305545297e-11
-4.600000000e-03	2.321441252e-01	-5.574419025e-04	1.043433137e-11
-4.700000000e-03	2.321441306e-01	-5.550857041e-04	1.586519333e-11
-4.800000000e-03	2.321441359e-01	-5.527295055e-04	7.053595704e-12
-4.900000000e-03	2.321441412e-01	-5.503733068e-04	7.333881743e-11
-5.000000000e-03	2.321441464e-01	-5.480171078e-04	2.698782855e-11
-5.100000000e-03	2.321441515e-01	-5.456609087e-04	9.046201153e-12
-5.200000000e-03	2.321441565e-01	-5.433047093e-04	9.212405295e-12
-5.300000000e-03	2.321441615e-01	-5.409485098e-04	9.294850376e-12
-5.400000000e-03	2.321441664e-01	-5.385923101e-04	9.353966100e-12
-5.500000000e-03	2.321441712e-01	-5.362361103e-04	1.509660151e-11
-5.600000000e-03	2.321441760e-01	-5.338799103e-04	1.709958517e-11
-5.700000000e-03	2.321441806e-01	-5.315237101e-04	1.928714964e-11
-5.800000000e-03	2.321441853e-01	-5.291675098e-04	1.198878288e-11
-5.900000000e-03	2.321441898e-01	-5.268113093e-04	8.533898597e-12
-6.000000000e-03	2.321441943e-01	-5.244551087e-04	1.233715450e-11
-6.100000000e-03	2.321441987e-01	-5.220989079e-04	8.556287251e-12
-6.200000000e-03	2.321442030e-01	-5.197427069e-04	1.189616963e-11
-6.300000000e-03	2.321442072e-01	-5.173865059e-04	1.107607747e-11
-6.400000000e-03	2.321442114e-01	-5.150303047e-04	1.481127752e-11
-6.500000000e-03	2.321442155e-01	-5.126741033e-04	1.168880251e-11
-6.600000000e-03	2.321442196e-01	-5.103179019e-04	2.644708809e-11
-6.700000000e-03	2.321442235e-01	-5.079617003e-04	6.388153881e-12
-6.800000000e-03	2.321442274e-01	-5.056054985e-04	1.467875820e-11
-6.900000000e-03	2.321442313e-01	-5.032492967e-04	2.373503435e-11
-7.000000000e-03	2.321442350e-01	-5.008930948e-04	9.821899575e-12
-7.100000000e-03	2.321442387e-01	-4.985368927e-04	3.327319435e-11
-7.200000000e-03	2.321442423e-01	-4.961806905e-04	1.564919384e-11
-7.300000000e-03	2.321442458e-01	-4.938244883e-04	2.191850404e-11
-7.400000000e-03	2.321442493e-01	-4.914682859e-04	1.013024157e-11
-7.500000000e-03	2.321442527e-01	-4.891120834e-04	6.038893563e-12
-7.600000000e-03	2.321442560e-01	-4.867558809e-04	6.446363113e-11
-7.700000000e-03	2.321442593e-01	-4.843996782e-04	1.744406595e-11
-7.800000000e-03	2.321442624e-01	-4.820434755e-04	3.454906930e-11
-7.900000000e-03	2.321442656e-01	-4.796872727e-04	1.518029759e-11
-8.000000000e-03	2.321442686e-01	-4.773310698e-04	3.530426847e-11
-8.100000000e-03	2.321442716e-01	-4.749748668e-04	9.662256368e-12
-8.200000000e-03	2.321442744e-01	-4.726186638e-04	1.082519318e-11
-8.300000000e-03	2.321442773e-01	-4.702624606e-04	4.191265411e-11
-8.400000000e-03	2.321442800e-01	-4.679062575e-04	1.530404992e-11
-8.500000000e-03	2.321442827e-01	-4.655500542e-04	2.249995657e-11
-8.600000000e-03	2.321442853e-01	-4.631938510e-04	1.164998276e-11
-8.700000000e-03	2.321442878e-01	-4.608376476e-04	5.487679227e-12
-8.800000000e-03	2.321442903e-01	-4.584814442e-04	1.000351754e-11
-8.900000000e-03	2.321442927e-01	-4.561252408e-04	4.299735789e-11
-9.000000000e-03	2.321442950e-01	-4.537690373e-04	3.484077121e-11
-9.100000000e-03	2.321442972e-01	-4.514128338e-04	1.156974463e-11
-9.200000000e-03	2.321442994e-01	-4.490566302e-04	8.948356294e-12
-9.300000000e-03	2.321443015e-01	-4.467004266e-04	1.034243515e-11
-9.400000000e-03	2.321443035e-01	-4.443442230e-04	1.210743774e-11
-9.500000000e-03	2.321443055e-01	-4.419880194e-04	8.819079235e-12
-9.600000000e-03	2.321443074e-01	-4.396318157e-04	7.985905566e-12
-9.700000000e-03	2.321443092e-01	-4.372756121e-04	1.875390633e-11
-9.800000000e-03	2.321443110e-01	-4.349194084e-04	3.247005841e-11
-9.900000000e-03	2.321443126e-01	-4.325632047e-04	1.183848253e-11
-1.000000000e-02	2.321443142e-01	-4.302070010e-04	1.324116886e-11
-1.010000000e-02	2.321443158e-01	-4.278507973e-04	1.445908289e-11
-1.020000000e-02	2.321443172e-01	-4.254945936e-04	1.761274106e-10
-1.030000000e-02	2.321443186e-01	-4.231383899e-04	1.865694075e-11
-1.040000000e-02	2.321443199e-01	-4.207821862e-04	2.752360414e-11
-1.050000000e-02	2.321443212e-01	-4.184259826e-04	3.504778180e-11
-1.060000000e-02	2.321443223e-01	-4.160697789e-04	1.585521540e-11
-1.070000000e-02	2.321443234e-01	-4.137135753e-04	1.225379083e-11
-1.080000000e-02	2.321443245e-01	-4.113573717e-04	1.752643521e-11
-1.090000000e-02	2.321443254e-01	-4.090011681e-04	1.233401819e-11
-1.100000000e-02	2.321443263e-01	-4.066449645e-04	4.936026917e-12
-1.110000000e-02	2.321443271e-01	-4.042887610e-04	8.725437176e-11
-1.120000000e-02	2.321443278e-01	-4.019325575e-04	1.442228844e-11
-1.130000000e-02	2.321443285e-01	-3.995763541e-04	1.485062551e-11
-1.140000000e-02	2.321443291e-01	-3.972201507e-04	2.775616445e-11
-1.150000000e-02	2.321443296e-01	-3.948639473e-04	1.231857378e-11
-1.160000000e-02	2.321443301e-01	-3.925077440e-04	1.518521492e-11
-1.170000000e-02	2.321443305e-01	-3.901515408e-04	3.795618757e-11
-1.180000000e-02	2.321443308e-01	-3.877953376e-04	7.588941384e-11
-1.190000000e-02	2.321443310e-01	-3.854391345e-04	1.221864446e-11
-1.200000000e-02	2.321443312e-01	-3.830829315e-04	1.269098077e-11
-1.210000000e-02	2.321443313e-01	-3.807267285e-04	8.059576620e-12
-1.220000000e-02	2.321443313e-01	-3.783705256e-04	9.440086798e-12
-1.230000000e-02	2.321443313e-01	-3.760143228e-04	2.233266790e-11
-1.240000000e-02	2.321443311e-01	-3.736581200e-04	1.513262150e-11
-1.250000000e-02	2.321443309e-01	-3.713019174e-04	9.912506575e-12
-1.260000000e-02	2.321443307e-01	-3.689457148e-04	7.750237886e-12
-1.270000000e-02	2.321443303e-01	-3.665895123e-04	9.992872549e-12
-1.280000000e-02	2.321443299e-01	-3.642333099e-04	3.983397577e-11
-1.290000000e-02	2.321443295e-01	-3.618771077e-04	2.238889907e-11
-1.300000000e-02	2.321443289e-01	-3.595209055e-04	4.077491313e-11
-1.310000000e-02	2.321443283e-01	-3.571647034e-04	6.377115984e-12
-1.320000000e-02	2.321443276e-01	-3.548085014e-04	6.160709661e-12
-1.330000000e-02	2.321443268e-01	-3.524522996e-04	1.272916007e-11
-1.340000000e-02	2.321443260e-01	-3.500960979e-04	2.375736517e-11
-1.350000000e-02	2.321443251e-01	-3.477398963e-04	3.828474719e-11
-1.360000000e-02	2.321443241e-01	-3.453836948e-04	1.473519765e-11
-1.370000000e-02	2.321443230e-01	-3.430274934e-04	1.036317039e-11
-1.380000000e-02	2.321443219e-01	-3.406712922e-04	1.860845302e-11
-1.390000000e-02	2.321443207e-01	-3.383150911e-04	7.612833502e-12
-1.400000000e-02	2.321443195e-01	-3.359588902e-04	1.155917570e-11
-1.410000000e-02	2.321443181e-01	-3.336026894e-04	1.177825732e-11
-1.420000000e-02	2.321443167e-01	-3.312464888e-04	9.333758279e-12
-1.430000000e-02	2.321443152e-01	-3.288902883e-04	1.169141335e-11
-1.440000000e-02	2.321443137e-01	-3.265340879e-04	1.062365197e-11
-1.450000000e-02	2.321443120e-01	-3.241778877e-04	6.086371537e-12
-1.460000000e-02	2.321443103e-01	-3.218216877e-04	3.231470280e-11
-1.470000000e-02	2.321443086e-01	-3.194654878e-04	1.934150092e-11
-1.480000000e-02	2.321443067e-01	-3.171092881e-04	1.264876933e-11
-1.490000000e-02	2.321443048e-01	-3.147530886e-04	1.484226776e-11
-1.500000000e-02	2.321443028e-01	-3.123968893e-04	2.113977455e-11
-1.510000000e-02	2.321443008e-01	-3.100406901e-04	8.492080045e-12
-1.520000000e-02	2.321442986e-01	-3.076844911e-04	8.920393855e-12
-1.530000000e-02	2.321442964e-01	-3.053282923e-04	1.621659081e-11
-1.540000000e-02	2.321442942e-01	-3.029720937e-04	7.717614976e-12
-1.550000000e-02	2.321442918e-01	-3.006158953e-04	1.555332099e-11
-1.560000000e-02	2.321442894e-01	-2.982596971e-04	1.744156774e-11
-1.570000000e-02	2.321442869e-01	-2.959034991e-04	1.026063644e-11
-1.580000000e-02	2.321442844e-01	-2.935473013e-04	1.277075973e-11
-1.590000000e-02	2.321442817e-01	-2.911911037e-04	1.055738472e-11
-1.600000000e-02	2.321442790e-01	-2.888349063e-04	1.165790059e-11
-1.610000000e-02	2.321442763e-01	-2.864787092e-04	4.158152162e-11
-1.620000000e-02	2.321442734e-01	-2.841225122e-04	2.108635523e-11
-1.630000000e-02	2.321442705e-01	-2.817663155e-04	1.409499794e-11
-1.640000000e-02	2.321442675e-01	-2.794101190e-04	3.217119306e-11
-1.650000000e-02	2.321442645e-01	-2.770539227e-04	7.794311509e-12
-1.660000000e-02	2.321442613e-01	-2.746977267e-04	5.773108036e-11
-1.670000000e-02	2.321442581e-01	-2.723415309e-04	8.007488080e-12
-1.680000000e-02	2.321442548e-01	-2.699853354e-04	5.198618460e-11
-1.690000000e-02	2.321442515e-01	-2.676291401e-04	1.558212472e-11
-1.700000000e-02	2.321442481e-01	-2.652729450e-04	1.212001644e-11
-1.710000000e-02	2.321442446e-01	-2.629167502e-04	1.375836743e-11
-1.720000000e-02	2.321442410e-01	-2.605605556e-04	1.045602586e-11
-1.730000000e-02	2.321442374e-01	-2.582043614e-04	1.743013201e-11
-1.740000000e-02	2.321442337e-01	-2.558481673e-04	9.449741368e-12
-1.750000000e-02	2.321442299e-01	-2.534919736e-04	1.407890136e-11
-1.760000000e-02	2.321442261e-01	-2.511357801e-04	9.278636625e-11
-1.770000000e-02	2.321442221e-01	-2.487795869e-04	2.996052532e-11
-1.780000000e-02	2.321442181e-01	-2.464233939e-04	1.986717164e-11
-1.790000000e-02	2.321442141e-01	-2.440672013e-04	2.485105537e-11
-1.800000000e-02	2.321442099e-01	-2.417110089e-04	9.813180148e-12
-1.810000000e-02	2.321442057e-01	-2.393548168e-04	2.226461873e-11
-1.820000000e-02	2.321442015e-01	-2.369986251e-04	1.035278166e-11
-1.830000000e-02	2.321441971e-01	-2.346424336e-04	7.334572904e-12
-1.840000000e-02	2.321441927e-01	-2.322862424e-04	2.289894637e-11
-1.850000000e-02	2.321441882e-01	-2.299300515e-04	3.195290035e-11
-1.860000000e-02	2.321441836e-01	-2.275738609e-04	9.315020701e-12
-1.870000000e-02	2.321441790e-01	-2.252176706e-04	2.286519691e-11
-1.880000000e-02	2.321441743e-01	-2.228614807e-04	1.341896097e-11
-1.890000000e-02	2.321441695e-01	-2.205052910e-04	9.543721894e-12
-1.900000000e-02	2.321441646e-01	-2.181491017e-04	1.504928894e-11
-1.910000000e-02	2.321441597e-01	-2.157929127e-04	2.132614657e-11
-1.920000000e-02	2.321441547e-01	-2.134367241e-04	1.179872821e-11
-1.930000000e-02	2.321441497e-01	-2.110805357e-04	3.923222716e-11
-1.940000000e-02	2.321441445e-01	-2.087243478e-04	1.059848155e-11
-1.950000000e-02	2.321441393e-01	-2.063681601e-04	8.330461706e-12
-1.960000000e-02	2.321441340e-01	-2.040119728e-04	1.357670599e-11
-1.970000000e-02	2.321441287e-01	-2.016557858e-04	9.705912006e-12
-1.980000000e-02	2.321441232e-01	-1.992995992e-04	1.119465571e-11
-1.990000000e-02	2.321441177e-01	-1.969434130e-04	1.078672718e-11
-2.000000000e-02	2.321441122e-01	-1.945872271e-04	9.570376231e-12
-2.010000000e-02	2.321441065e-01	-1.922310415e-04	1.203692176e-11
-2.020000000e-02	2.321441008e-01	-1.898748563e-04	2.020434650e-11
-2.030000000e-02	2.321440950e-01	-1.875186715e-04	1.186746640e-11
-2.040000000e-02	2.321440892e-01	-1.851624871e-04	9.684932420e-12
-2.050000000e-02	2.321440832e-01	-1.828063031e-04	1.749144935e-11
-2.060000000e-02	2.321440772e-01	-1.804501194e-04	9.590071107e-12
-2.070000000e-02	2.321440712e-01	-1.780939361e-04	1.290903116e-11
-2.080000000e-02	2.321440650e-01	-1.757377532e-04	9.197714640e-12
-2.090000000e-02	2.321440588e-01	-1.733815707e-04	1.000686140e-11
-2.100000000e-02	2.321440525e-01	-1.710253885e-04	2.269825658e-11
-2.110000000e-02	2.321440462e-01	-1.686692068e-04	8.536838118e-12
-2.120000000e-02	2.321440397e-01	-1.663130255e-04	8.850604771e-12
-2.130000000e-02	2.321440332e-01	-1.639568446e-04	2.410517707e-11
-2.140000000e-02	2.321440267e-01	-1.616006641e-04	1.680761870e-11
-2.150000000e-02	2.321440200e-01	-1.592444840e-04	5.347664438e-12
-2.160000000e-02	2.321440133e-01	-1.568883043e-04	1.134428970e-11
-2.170000000e-02	2.321440065e-01	-1.545321250e-04	2.002052370e-11
-2.180000000e-02	2.321439996e-01	-1.521759462e-04	1.481273435e-11
-2.190000000e-02	2.321439927e-01	-1.498197678e-04	1.239302065e-11
-2.200000000e-02	2.321439857e-01	-1.474635898e-04	2.815400644e-11
-2.210000000e-02	2.321439786e-01	-1.451074123e-04	1.225890773e-11
-2.220000000e-02	2.321439715e-01	-1.427512352e-04	1.107854448e-11
-2.230000000e-02	2.321439643e-01	-1.403950585e-04	9.232053588e-12
-2.240000000e-02	2.321439570e-01	-1.380388823e-04	5.263826167e-11
-2.250000000e-02	2.321439496e-01	-1.356827065e-04	4.397711293e-11
-2.260000000e-02	2.321439422e-01	-1.333265312e-04	8.507697381e-12
-2.270000000e-02	2.321439347e-01	-1.309703563e-04	1.413835690e-11
-2.280000000e-02	2.321439271e-01	-1.286141819e-04	1.219512241e-11
-2.290000000e-02	2.321439194e-01	-1.262580080e-04	1.491929170e-11
-2.300000000e-02	2.321439117e-01	-1.239018345e-04	3.181028899e-11
-2.310000000e-02	2.321439039e-01	-1.215456615e-04	2.014776792e-11
-2.320000000e-02	2.321438961e-01	-1.191894890e-04	4.400252424e-11
-2.330000000e-02	2.321438881e-01	-1.168333170e-04	2.576968783e-11
-2.340000000e-02	2.321438801e-01	-1.144771454e-04	1.680381806e-11
-2.350000000e-02	2.321438720e-01	-1.121209743e-04	3.841332532e-11
-2.360000000e-02	2.321438639e-01	-1.097648037e-04	1.264817778e-11
-2.370000000e-02	2.321438557e-01	-1.074086336e-04	1.283251823e-11
-2.380000000e-02	2.321438474e-01	-1.050524640e-04	6.018174145e-12
-2.390000000e-02	2.321438390e-01	-1.026962949e-04	1.279690137e-11
-2.400000000e-02	2.321438306e-01	-1.003401263e-04	2.288885469e-11
-2.410000000e-02	2.321438221e-01	-9.798395821e-05	9.107202365e-12
-2.420000000e-02	2.321438135e-01	-9.562779062e-05	1.968773458e-11
-2.430000000e-02	2.321438048e-01	-9.327162355e-05	3.672247704e-11
-2.440000000e-02	2.321437961e-01	-9.091545700e-05	1.850333012e-11
-2.450000000e-02	2.321437873e-01	-8.855929097e-05	7.867625598e-11
-2.460000000e-02	2.321437784e-01	-8.620312546e-05	2.192609996e-11
-2.470000000e-02	2.321437695e-01	-8.384696049e-05	4.889421093e-12
-2.480000000e-02	2.321437605e-01	-8.149079604e-05	9.196238125e-12
-2.490000000e-02	2.321437514e-01	-7.913463214e-05	1.424566926e-11
-2.500000000e-02	2.321437422e-01	-7.677846877e-05	1.009149001e-11
-2.510000000e-02	2.321437330e-01	-7.442230594e-05	1.168341381e-11
-2.520000000e-02	2.321437237e-01	-7.206614366e-05	1.119623281e-11
-2.530000000e-02	2.321437143e-01	-6.970998194e-05	1.179859945e-11
-2.540000000e-02	2.321437049e-01	-6.735382076e-05	1.446411482e-11
-2.550000000e-02	2.321436954e-01	-6.499766015e-05	8.035416605e-12
-2.560000000e-02	2.321436858e-01	-6.264150010e-05	1.196283382e-11
-2.570000000e-02	2.321436761e-01	-6.028534060e-05	1.961695470e-10
-2.580000000e-02	2.321436664e-01	-5.792918169e-05	1.005289587e-11
-2.590000000e-02	2.321436566e-01	-5.557302334e-05	1.948471517e-11
-2.600000000e-02	2.321436467e-01	-5.321686557e-05	6.982352183e-12
-2.610000000e-02	2.321436368e-01	-5.086070838e-05	2.031274632e-11
-2.620000000e-02	2.321436268e-01	-4.850455177e-05	7.806953206e-12
-2.630000000e-02	2.321436167e-01	-4.614839575e-05	1.933299756e-11
-2.640000000e-02	2.321436065e-01	-4.379224032e-05	1.517430374e-11
-2.650000000e-02	2.321435963e-01	-4.143608548e-05	1.103210211e-11
-2.660000000e-02	2.321435860e-01	-3.907993124e-05	1.064072058e-11
-2.670000000e-02	2.321435756e-01	-3.672377761e-05	1.613881796e-11
-2.680000000e-02	2.321435652e-01	-3.436762457e-05	8.294617990e-12
-2.690000000e-02	2.321435547e-01	-3.201147215e-05	5.039118782e-12
-2.700000000e-02	2.321435441e-01	-2.965532034e-05	2.243429515e-11
-2.710000000e-02	2.321435334e-01	-2.729916914e-05	9.922652017e-12
-2.720000000e-02	2.321435227e-01	-2.494301857e-05	4.190618166e-12
-2.730000000e-02	2.321435119e-01	-2.258686862e-05	2.137118381e-11
-2.740000000e-02	2.321435010e-01	-2.023071929e-05	5.096453673e-11
-2.750000000e-02	2.321434900e-01	-1.787457060e-05	1.358723935e-11
-2.760000000e-02	2.321434790e-01	-1.551842254e-05	7.629254353e-12
-2.770000000e-02	2.321434679e-01	-1.316227512e-05	2.411554499e-11
-2.780000000e-02	2.321434568e-01	-1.080612833e-05	2.602687978e-11
-2.790000000e-02	2.321434455e-01	-8.449982199e-06	1.589397445e-11
-2.800000000e-02	2.321434342e-01	-6.093836712e-06	2.310187247e-11
-2.810000000e-02	2.321434229e-01	-3.737691878e-06	1.781267164e-11
-2.820000000e-02	2.321434114e-01	-1.381547698e-06	1.329254795e-11
-2.830000000e-02	2.321433999e-01	9.745958186e-07	2.085629456e-11
-2.840000000e-02	2.321433883e-01	3.330738676e-06	1.055823068e-11
-2.850000000e-02	2.321433766e-01	5.686880869e-06	6.808607745e-11
-2.860000000e-02	2.321433649e-01	8.043022382e-06	1.094792608e-11
-2.870000000e-02	2.321433531e-01	1.039916323e-05	1.346823400e-11
-2.880000000e-02	2.321433412e-01	1.275530339e-05	9.747674567e-12
-2.890000000e-02	2.321433292e-01	1.511144288e-05	6.756542430e-12
-2.900000000e-02	2.321433172e-01	1.746758168e-05	1.222996920e-11
-2.910000000e-02	2.321433051e-01	1.982371979e-05	1.271767797e-11
-2.920000000e-02	2.321432930e-01	2.217985720e-05	8.878722523e-12
-2.930000000e-02	2.321432807e-01	2.453599393e-05	1.181340336e-11
-2.940000000e-02	2.321432684e-01	2.689212995e-05	7.900588129e-12
-2.950000000e-02	2.321432560e-01	2.924826527e-05	7.976497389e-12
-2.960000000e-02	2.321432436e-01	3.160439988e-05	9.335157264e-12
-2.970000000e-02	2.321432311e-01	3.396053378e-05	3.218415651e-11
-2.980000000e-02	2.321432185e-01	3.631666697e-05	8.952402535e-12
-2.990000000e-02	2.321432058e-01	3.867279944e-05	3.213619742e-11
-3.000000000e-02	2.321431930e-01	4.102893119e-05	1.279194646e-11
