# Im(epsi1)     Re(omega/c)      Im(omega/c)      Eq(det).Opt det CON kz, R=0.5 \mum, mu_c=0.3, Re(epsi1)=3.90solve_det_conkz_vs_kz.py
0.000000000e+00	2.321591015e-01	-6.658834553e-04	5.144641081e-12
-1.000000000e-04	2.321591102e-01	-6.635271595e-04	2.313163267e-11
-2.000000000e-04	2.321591188e-01	-6.611708634e-04	5.932870755e-12
-3.000000000e-04	2.321591274e-01	-6.588145669e-04	2.528102883e-11
-4.000000000e-04	2.321591358e-01	-6.564582700e-04	1.217408677e-11
-5.000000000e-04	2.321591443e-01	-6.541019728e-04	9.942348385e-12
-6.000000000e-04	2.321591526e-01	-6.517456752e-04	1.259852004e-11
-7.000000000e-04	2.321591609e-01	-6.493893773e-04	9.998055964e-12
-8.000000000e-04	2.321591691e-01	-6.470330791e-04	1.149510806e-11
-9.000000000e-04	2.321591772e-01	-6.446767805e-04	1.624293735e-11
-1.000000000e-03	2.321591852e-01	-6.423204816e-04	1.098365518e-11
-1.100000000e-03	2.321591932e-01	-6.399641823e-04	1.154774376e-11
-1.200000000e-03	2.321592011e-01	-6.376078827e-04	1.338664451e-11
-1.300000000e-03	2.321592090e-01	-6.352515828e-04	1.828984609e-11
-1.400000000e-03	2.321592168e-01	-6.328952826e-04	1.129885259e-11
-1.500000000e-03	2.321592244e-01	-6.305389821e-04	1.089412532e-11
-1.600000000e-03	2.321592321e-01	-6.281826812e-04	1.180778589e-11
-1.700000000e-03	2.321592396e-01	-6.258263801e-04	1.125192503e-11
-1.800000000e-03	2.321592471e-01	-6.234700786e-04	1.147905055e-11
-1.900000000e-03	2.321592545e-01	-6.211137769e-04	1.228071726e-11
-2.000000000e-03	2.321592619e-01	-6.187574748e-04	5.072013887e-11
-2.100000000e-03	2.321592691e-01	-6.164011725e-04	1.819817658e-11
-2.200000000e-03	2.321592763e-01	-6.140448699e-04	9.628498813e-12
-2.300000000e-03	2.321592834e-01	-6.116885670e-04	9.212119524e-12
-2.400000000e-03	2.321592905e-01	-6.093322638e-04	1.166921910e-11
-2.500000000e-03	2.321592975e-01	-6.069759603e-04	8.596353953e-12
-2.600000000e-03	2.321593044e-01	-6.046196565e-04	5.368758292e-12
-2.700000000e-03	2.321593112e-01	-6.022633525e-04	7.577309954e-12
-2.800000000e-03	2.321593180e-01	-5.999070482e-04	8.336347725e-12
-2.900000000e-03	2.321593247e-01	-5.975507437e-04	2.358144644e-11
-3.000000000e-03	2.321593313e-01	-5.951944389e-04	1.569097629e-11
-3.100000000e-03	2.321593378e-01	-5.928381338e-04	2.543093149e-11
-3.200000000e-03	2.321593443e-01	-5.904818285e-04	4.561321507e-11
-3.300000000e-03	2.321593507e-01	-5.881255229e-04	2.663384787e-11
-3.400000000e-03	2.321593571e-01	-5.857692171e-04	1.007819547e-11
-3.500000000e-03	2.321593633e-01	-5.834129110e-04	3.203806040e-11
-3.600000000e-03	2.321593695e-01	-5.810566047e-04	1.043457679e-11
-3.700000000e-03	2.321593756e-01	-5.787002982e-04	1.660737908e-11
-3.800000000e-03	2.321593817e-01	-5.763439914e-04	4.935920795e-12
-3.900000000e-03	2.321593877e-01	-5.739876844e-04	9.166874626e-12
-4.000000000e-03	2.321593936e-01	-5.716313772e-04	7.950456219e-12
-4.100000000e-03	2.321593994e-01	-5.692750698e-04	1.201807010e-11
-4.200000000e-03	2.321594052e-01	-5.669187621e-04	1.502156358e-11
-4.300000000e-03	2.321594108e-01	-5.645624543e-04	1.231990420e-11
-4.400000000e-03	2.321594165e-01	-5.622061462e-04	1.442130001e-11
-4.500000000e-03	2.321594220e-01	-5.598498379e-04	2.344096033e-11
-4.600000000e-03	2.321594275e-01	-5.574935294e-04	1.877053780e-11
-4.700000000e-03	2.321594329e-01	-5.551372208e-04	1.188521956e-11
-4.800000000e-03	2.321594382e-01	-5.527809119e-04	1.958293519e-11
-4.900000000e-03	2.321594435e-01	-5.504246028e-04	3.583882134e-11
-5.000000000e-03	2.321594487e-01	-5.480682936e-04	1.641279400e-11
-5.100000000e-03	2.321594538e-01	-5.457119841e-04	2.311576269e-11
-5.200000000e-03	2.321594588e-01	-5.433556745e-04	1.301169340e-11
-5.300000000e-03	2.321594638e-01	-5.409993647e-04	8.276998453e-12
-5.400000000e-03	2.321594687e-01	-5.386430548e-04	4.965278054e-11
-5.500000000e-03	2.321594735e-01	-5.362867446e-04	1.551456642e-11
-5.600000000e-03	2.321594783e-01	-5.339304343e-04	1.024285059e-11
-5.700000000e-03	2.321594830e-01	-5.315741239e-04	1.731089888e-11
-5.800000000e-03	2.321594876e-01	-5.292178133e-04	6.874642313e-12
-5.900000000e-03	2.321594921e-01	-5.268615025e-04	1.518099603e-11
-6.000000000e-03	2.321594966e-01	-5.245051916e-04	1.080699929e-11
-6.100000000e-03	2.321595010e-01	-5.221488805e-04	2.467558878e-11
-6.200000000e-03	2.321595053e-01	-5.197925693e-04	9.115526217e-12
-6.300000000e-03	2.321595096e-01	-5.174362579e-04	1.973433012e-11
-6.400000000e-03	2.321595138e-01	-5.150799464e-04	6.634715750e-11
-6.500000000e-03	2.321595179e-01	-5.127236348e-04	9.340460927e-12
-6.600000000e-03	2.321595219e-01	-5.103673230e-04	2.386721873e-11
-6.700000000e-03	2.321595259e-01	-5.080110112e-04	1.233398608e-11
-6.800000000e-03	2.321595298e-01	-5.056546991e-04	3.279565773e-11
-6.900000000e-03	2.321595336e-01	-5.032983870e-04	1.012385069e-11
-7.000000000e-03	2.321595373e-01	-5.009420748e-04	8.219454837e-12
-7.100000000e-03	2.321595410e-01	-4.985857624e-04	2.350045938e-11
-7.200000000e-03	2.321595446e-01	-4.962294500e-04	1.713922896e-11
-7.300000000e-03	2.321595482e-01	-4.938731374e-04	2.773216981e-11
-7.400000000e-03	2.321595516e-01	-4.915168248e-04	1.593411614e-11
-7.500000000e-03	2.321595550e-01	-4.891605120e-04	1.661639847e-11
-7.600000000e-03	2.321595584e-01	-4.868041992e-04	1.461872539e-11
-7.700000000e-03	2.321595616e-01	-4.844478862e-04	2.239689721e-11
-7.800000000e-03	2.321595648e-01	-4.820915732e-04	1.401353575e-11
-7.900000000e-03	2.321595679e-01	-4.797352601e-04	1.119333363e-11
-8.000000000e-03	2.321595709e-01	-4.773789469e-04	8.149993205e-12
-8.100000000e-03	2.321595739e-01	-4.750226337e-04	1.359747479e-11
-8.200000000e-03	2.321595768e-01	-4.726663203e-04	1.107589062e-11
-8.300000000e-03	2.321595796e-01	-4.703100069e-04	1.261748356e-11
-8.400000000e-03	2.321595824e-01	-4.679536935e-04	7.908180222e-12
-8.500000000e-03	2.321595850e-01	-4.655973799e-04	6.940386079e-12
-8.600000000e-03	2.321595876e-01	-4.632410664e-04	1.008051122e-11
-8.700000000e-03	2.321595902e-01	-4.608847527e-04	9.905862635e-11
-8.800000000e-03	2.321595926e-01	-4.585284391e-04	1.646755737e-11
-8.900000000e-03	2.321595950e-01	-4.561721253e-04	1.362659121e-11
-9.000000000e-03	2.321595973e-01	-4.538158116e-04	2.003617096e-11
-9.100000000e-03	2.321595996e-01	-4.514594978e-04	6.261958183e-12
-9.200000000e-03	2.321596018e-01	-4.491031839e-04	1.580081033e-11
-9.300000000e-03	2.321596039e-01	-4.467468701e-04	9.273589608e-11
-9.400000000e-03	2.321596059e-01	-4.443905562e-04	9.016158708e-12
-9.500000000e-03	2.321596079e-01	-4.420342422e-04	8.875413779e-12
-9.600000000e-03	2.321596097e-01	-4.396779283e-04	9.585155664e-12
-9.700000000e-03	2.321596116e-01	-4.373216143e-04	9.768814887e-12
-9.800000000e-03	2.321596133e-01	-4.349653004e-04	1.152694917e-11
-9.900000000e-03	2.321596150e-01	-4.326089864e-04	2.706482316e-11
-1.000000000e-02	2.321596166e-01	-4.302526724e-04	1.959684996e-11
-1.010000000e-02	2.321596181e-01	-4.278963584e-04	7.103366983e-12
-1.020000000e-02	2.321596196e-01	-4.255400444e-04	9.481846126e-12
-1.030000000e-02	2.321596210e-01	-4.231837304e-04	1.227914669e-11
-1.040000000e-02	2.321596223e-01	-4.208274165e-04	4.026970976e-11
-1.050000000e-02	2.321596235e-01	-4.184711025e-04	1.673573618e-11
-1.060000000e-02	2.321596247e-01	-4.161147885e-04	7.455738183e-12
-1.070000000e-02	2.321596258e-01	-4.137584746e-04	4.907517346e-12
-1.080000000e-02	2.321596268e-01	-4.114021607e-04	1.620449865e-11
-1.090000000e-02	2.321596278e-01	-4.090458468e-04	2.073523163e-11
-1.100000000e-02	2.321596287e-01	-4.066895330e-04	5.677194216e-11
-1.110000000e-02	2.321596295e-01	-4.043332192e-04	2.704102454e-11
-1.120000000e-02	2.321596302e-01	-4.019769054e-04	8.999509008e-11
-1.130000000e-02	2.321596309e-01	-3.996205917e-04	1.033130086e-11
-1.140000000e-02	2.321596315e-01	-3.972642780e-04	6.290881718e-12
-1.150000000e-02	2.321596320e-01	-3.949079644e-04	1.017285394e-11
-1.160000000e-02	2.321596325e-01	-3.925516508e-04	4.035320442e-12
-1.170000000e-02	2.321596328e-01	-3.901953373e-04	6.186404737e-12
-1.180000000e-02	2.321596331e-01	-3.878390238e-04	2.673428109e-11
-1.190000000e-02	2.321596334e-01	-3.854827104e-04	2.959806516e-11
-1.200000000e-02	2.321596336e-01	-3.831263971e-04	1.865953700e-11
-1.210000000e-02	2.321596337e-01	-3.807700838e-04	6.878076016e-12
-1.220000000e-02	2.321596337e-01	-3.784137706e-04	3.916916789e-12
-1.230000000e-02	2.321596336e-01	-3.760574575e-04	6.280545240e-12
-1.240000000e-02	2.321596335e-01	-3.737011445e-04	1.031674204e-11
-1.250000000e-02	2.321596333e-01	-3.713448315e-04	2.970624943e-11
-1.260000000e-02	2.321596331e-01	-3.689885186e-04	1.858228191e-11
-1.270000000e-02	2.321596327e-01	-3.666322059e-04	1.328981563e-11
-1.280000000e-02	2.321596323e-01	-3.642758932e-04	7.514562316e-12
-1.290000000e-02	2.321596318e-01	-3.619195806e-04	6.328895937e-12
-1.300000000e-02	2.321596313e-01	-3.595632682e-04	1.096210291e-11
-1.310000000e-02	2.321596307e-01	-3.572069558e-04	9.130474065e-12
-1.320000000e-02	2.321596300e-01	-3.548506436e-04	2.679327443e-11
-1.330000000e-02	2.321596292e-01	-3.524943314e-04	1.899664610e-11
-1.340000000e-02	2.321596284e-01	-3.501380194e-04	8.742080116e-12
-1.350000000e-02	2.321596275e-01	-3.477817075e-04	8.374306110e-12
-1.360000000e-02	2.321596265e-01	-3.454253958e-04	1.238199962e-11
-1.370000000e-02	2.321596254e-01	-3.430690841e-04	1.464119449e-11
-1.380000000e-02	2.321596243e-01	-3.407127726e-04	1.351003034e-11
-1.390000000e-02	2.321596231e-01	-3.383564612e-04	1.740117959e-11
-1.400000000e-02	2.321596218e-01	-3.360001500e-04	7.925696688e-12
-1.410000000e-02	2.321596205e-01	-3.336438389e-04	7.132829034e-12
-1.420000000e-02	2.321596191e-01	-3.312875280e-04	1.168306735e-11
-1.430000000e-02	2.321596176e-01	-3.289312172e-04	1.434564458e-11
-1.440000000e-02	2.321596161e-01	-3.265749066e-04	9.473396945e-12
-1.450000000e-02	2.321596144e-01	-3.242185961e-04	1.114421786e-11
-1.460000000e-02	2.321596127e-01	-3.218622858e-04	9.384449276e-12
-1.470000000e-02	2.321596110e-01	-3.195059756e-04	9.231530961e-12
-1.480000000e-02	2.321596091e-01	-3.171496656e-04	6.508374724e-12
-1.490000000e-02	2.321596072e-01	-3.147933558e-04	1.120062548e-11
-1.500000000e-02	2.321596052e-01	-3.124370462e-04	1.445376478e-11
-1.510000000e-02	2.321596032e-01	-3.100807367e-04	1.459985733e-11
-1.520000000e-02	2.321596010e-01	-3.077244275e-04	1.269092750e-11
-1.530000000e-02	2.321595988e-01	-3.053681184e-04	6.900942447e-12
-1.540000000e-02	2.321595966e-01	-3.030118095e-04	1.074661267e-11
-1.550000000e-02	2.321595942e-01	-3.006555008e-04	3.410064004e-11
-1.560000000e-02	2.321595918e-01	-2.982991923e-04	2.974827432e-11
-1.570000000e-02	2.321595893e-01	-2.959428840e-04	9.918740991e-12
-1.580000000e-02	2.321595868e-01	-2.935865759e-04	6.366705163e-12
-1.590000000e-02	2.321595841e-01	-2.912302680e-04	1.201966046e-11
-1.600000000e-02	2.321595814e-01	-2.888739603e-04	2.684104274e-11
-1.610000000e-02	2.321595787e-01	-2.865176529e-04	2.989912242e-11
-1.620000000e-02	2.321595758e-01	-2.841613456e-04	3.182862717e-11
-1.630000000e-02	2.321595729e-01	-2.818050386e-04	1.349198197e-11
-1.640000000e-02	2.321595699e-01	-2.794487318e-04	1.713322978e-11
-1.650000000e-02	2.321595669e-01	-2.770924253e-04	1.743222691e-11
-1.660000000e-02	2.321595637e-01	-2.747361190e-04	2.233688498e-11
-1.670000000e-02	2.321595605e-01	-2.723798129e-04	2.547291239e-11
-1.680000000e-02	2.321595573e-01	-2.700235070e-04	3.878789101e-11
-1.690000000e-02	2.321595539e-01	-2.676672014e-04	1.142619776e-11
-1.700000000e-02	2.321595505e-01	-2.653108961e-04	3.295003632e-11
-1.710000000e-02	2.321595470e-01	-2.629545910e-04	1.180123543e-11
-1.720000000e-02	2.321595434e-01	-2.605982862e-04	4.073804539e-11
-1.730000000e-02	2.321595398e-01	-2.582419816e-04	1.552161331e-11
-1.740000000e-02	2.321595361e-01	-2.558856773e-04	1.370142516e-11
-1.750000000e-02	2.321595323e-01	-2.535293732e-04	1.453041298e-11
-1.760000000e-02	2.321595285e-01	-2.511730694e-04	1.425626039e-11
-1.770000000e-02	2.321595246e-01	-2.488167659e-04	1.867507367e-11
-1.780000000e-02	2.321595206e-01	-2.464604627e-04	1.105968288e-11
-1.790000000e-02	2.321595165e-01	-2.441041598e-04	1.183951729e-11
-1.800000000e-02	2.321595124e-01	-2.417478571e-04	2.077548186e-11
-1.810000000e-02	2.321595082e-01	-2.393915547e-04	2.158571234e-11
-1.820000000e-02	2.321595039e-01	-2.370352526e-04	1.303876010e-11
-1.830000000e-02	2.321594995e-01	-2.346789509e-04	3.063032101e-11
-1.840000000e-02	2.321594951e-01	-2.323226494e-04	2.175184919e-11
-1.850000000e-02	2.321594906e-01	-2.299663482e-04	7.458647447e-12
-1.860000000e-02	2.321594860e-01	-2.276100473e-04	8.384328838e-12
-1.870000000e-02	2.321594814e-01	-2.252537468e-04	8.361457970e-12
-1.880000000e-02	2.321594767e-01	-2.228974465e-04	1.266332773e-11
-1.890000000e-02	2.321594719e-01	-2.205411466e-04	4.116838209e-12
-1.900000000e-02	2.321594671e-01	-2.181848470e-04	1.671288018e-11
-1.910000000e-02	2.321594621e-01	-2.158285477e-04	1.247235389e-11
-1.920000000e-02	2.321594571e-01	-2.134722488e-04	7.253996177e-12
-1.930000000e-02	2.321594521e-01	-2.111159501e-04	1.656979648e-11
-1.940000000e-02	2.321594469e-01	-2.087596518e-04	1.733013185e-11
-1.950000000e-02	2.321594417e-01	-2.064033539e-04	1.752064773e-11
-1.960000000e-02	2.321594364e-01	-2.040470563e-04	9.051456991e-12
-1.970000000e-02	2.321594311e-01	-2.016907590e-04	4.065089983e-11
-1.980000000e-02	2.321594257e-01	-1.993344621e-04	1.262343609e-11
-1.990000000e-02	2.321594202e-01	-1.969781656e-04	7.342919355e-12
-2.000000000e-02	2.321594146e-01	-1.946218694e-04	9.558650411e-12
-2.010000000e-02	2.321594090e-01	-1.922655736e-04	2.495119557e-11
-2.020000000e-02	2.321594032e-01	-1.899092781e-04	7.483645480e-12
-2.030000000e-02	2.321593975e-01	-1.875529830e-04	6.803674825e-12
-2.040000000e-02	2.321593916e-01	-1.851966883e-04	1.095779156e-11
-2.050000000e-02	2.321593857e-01	-1.828403939e-04	2.681490560e-11
-2.060000000e-02	2.321593797e-01	-1.804841000e-04	1.743128674e-11
-2.070000000e-02	2.321593736e-01	-1.781278064e-04	1.042494204e-11
-2.080000000e-02	2.321593675e-01	-1.757715132e-04	5.637640160e-12
-2.090000000e-02	2.321593612e-01	-1.734152204e-04	2.656875509e-11
-2.100000000e-02	2.321593550e-01	-1.710589280e-04	1.375951564e-11
-2.110000000e-02	2.321593486e-01	-1.687026359e-04	1.756464412e-11
-2.120000000e-02	2.321593422e-01	-1.663463443e-04	1.524555539e-10
-2.130000000e-02	2.321593357e-01	-1.639900531e-04	2.357869110e-11
-2.140000000e-02	2.321593291e-01	-1.616337623e-04	1.877392926e-11
-2.150000000e-02	2.321593225e-01	-1.592774719e-04	8.055546973e-12
-2.160000000e-02	2.321593157e-01	-1.569211820e-04	1.037435576e-11
-2.170000000e-02	2.321593089e-01	-1.545648924e-04	1.071801830e-11
-2.180000000e-02	2.321593021e-01	-1.522086033e-04	1.697249638e-11
-2.190000000e-02	2.321592952e-01	-1.498523146e-04	1.097064580e-11
-2.200000000e-02	2.321592882e-01	-1.474960263e-04	1.720741328e-11
-2.210000000e-02	2.321592811e-01	-1.451397385e-04	1.353104408e-11
-2.220000000e-02	2.321592739e-01	-1.427834511e-04	1.413592534e-11
-2.230000000e-02	2.321592667e-01	-1.404271641e-04	6.502334885e-12
-2.240000000e-02	2.321592594e-01	-1.380708776e-04	2.573838654e-11
-2.250000000e-02	2.321592521e-01	-1.357145915e-04	5.234518799e-11
-2.260000000e-02	2.321592446e-01	-1.333583059e-04	1.267983365e-11
-2.270000000e-02	2.321592371e-01	-1.310020208e-04	1.058810076e-11
-2.280000000e-02	2.321592295e-01	-1.286457361e-04	2.274573247e-11
-2.290000000e-02	2.321592219e-01	-1.262894519e-04	1.640894724e-11
-2.300000000e-02	2.321592142e-01	-1.239331681e-04	1.423141424e-11
-2.310000000e-02	2.321592064e-01	-1.215768848e-04	1.002785928e-11
-2.320000000e-02	2.321591985e-01	-1.192206020e-04	1.213988629e-11
-2.330000000e-02	2.321591906e-01	-1.168643196e-04	1.330307091e-11
-2.340000000e-02	2.321591826e-01	-1.145080378e-04	1.582256655e-11
-2.350000000e-02	2.321591745e-01	-1.121517564e-04	1.307598899e-11
-2.360000000e-02	2.321591663e-01	-1.097954755e-04	6.953693320e-12
-2.370000000e-02	2.321591581e-01	-1.074391951e-04	4.547980699e-12
-2.380000000e-02	2.321591498e-01	-1.050829152e-04	2.860856794e-11
-2.390000000e-02	2.321591415e-01	-1.027266358e-04	7.528163903e-12
-2.400000000e-02	2.321591330e-01	-1.003703569e-04	4.876391633e-11
-2.410000000e-02	2.321591245e-01	-9.801407854e-05	1.610871457e-11
-2.420000000e-02	2.321591159e-01	-9.565780067e-05	1.783532623e-11
-2.430000000e-02	2.321591073e-01	-9.330152330e-05	1.099082700e-11
-2.440000000e-02	2.321590986e-01	-9.094524646e-05	2.236771293e-11
-2.450000000e-02	2.321590898e-01	-8.858897013e-05	1.061102324e-11
-2.460000000e-02	2.321590809e-01	-8.623269434e-05	9.000478604e-12
-2.470000000e-02	2.321590719e-01	-8.387641907e-05	1.207814984e-11
-2.480000000e-02	2.321590629e-01	-8.152014433e-05	5.423601974e-11
-2.490000000e-02	2.321590539e-01	-7.916387013e-05	2.705761224e-11
-2.500000000e-02	2.321590447e-01	-7.680759646e-05	1.723417031e-11
-2.510000000e-02	2.321590355e-01	-7.445132335e-05	6.822438579e-12
-2.520000000e-02	2.321590262e-01	-7.209505077e-05	1.490655247e-11
-2.530000000e-02	2.321590168e-01	-6.973877875e-05	2.408990363e-11
-2.540000000e-02	2.321590074e-01	-6.738250729e-05	1.170717432e-11
-2.550000000e-02	2.321589978e-01	-6.502623638e-05	3.241389282e-11
-2.560000000e-02	2.321589883e-01	-6.266996603e-05	2.500545776e-11
-2.570000000e-02	2.321589786e-01	-6.031369625e-05	3.937217186e-11
-2.580000000e-02	2.321589689e-01	-5.795742704e-05	2.471399239e-11
-2.590000000e-02	2.321589591e-01	-5.560115839e-05	2.005677410e-11
-2.600000000e-02	2.321589492e-01	-5.324489033e-05	3.114902547e-11
-2.610000000e-02	2.321589393e-01	-5.088862284e-05	2.170941337e-11
-2.620000000e-02	2.321589292e-01	-4.853235594e-05	3.934786126e-11
-2.630000000e-02	2.321589192e-01	-4.617608963e-05	8.584830779e-12
-2.640000000e-02	2.321589090e-01	-4.381982390e-05	7.757102521e-12
-2.650000000e-02	2.321588988e-01	-4.146355877e-05	1.451100764e-11
-2.660000000e-02	2.321588885e-01	-3.910729424e-05	1.283126184e-11
-2.670000000e-02	2.321588781e-01	-3.675103031e-05	2.694822503e-11
-2.680000000e-02	2.321588677e-01	-3.439476698e-05	4.793301947e-11
-2.690000000e-02	2.321588571e-01	-3.203850426e-05	1.515653671e-11
-2.700000000e-02	2.321588465e-01	-2.968224216e-05	1.886850684e-11
-2.710000000e-02	2.321588359e-01	-2.732598067e-05	1.546308217e-11
-2.720000000e-02	2.321588252e-01	-2.496971980e-05	7.405357620e-12
-2.730000000e-02	2.321588143e-01	-2.261345955e-05	1.984269164e-11
-2.740000000e-02	2.321588035e-01	-2.025719993e-05	1.493422182e-11
-2.750000000e-02	2.321587925e-01	-1.790094095e-05	1.044415695e-11
-2.760000000e-02	2.321587815e-01	-1.554468259e-05	3.381622122e-11
-2.770000000e-02	2.321587704e-01	-1.318842488e-05	2.416242149e-11
-2.780000000e-02	2.321587593e-01	-1.083216780e-05	5.781741348e-12
-2.790000000e-02	2.321587480e-01	-8.475911370e-06	1.482533962e-11
-2.800000000e-02	2.321587367e-01	-6.119655589e-06	2.022442052e-11
-2.810000000e-02	2.321587253e-01	-3.763400460e-06	1.832121375e-11
-2.820000000e-02	2.321587139e-01	-1.407145988e-06	1.283411766e-10
-2.830000000e-02	2.321587024e-01	9.491078269e-07	8.484445215e-12
-2.840000000e-02	2.321586908e-01	3.305360979e-06	7.171148337e-11
-2.850000000e-02	2.321586791e-01	5.661613460e-06	8.666107191e-12
-2.860000000e-02	2.321586674e-01	8.017865271e-06	3.735074618e-11
-2.870000000e-02	2.321586556e-01	1.037411641e-05	4.574846603e-11
-2.880000000e-02	2.321586437e-01	1.273036687e-05	1.644026960e-11
-2.890000000e-02	2.321586317e-01	1.508661665e-05	1.760091250e-11
-2.900000000e-02	2.321586197e-01	1.744286575e-05	9.150318833e-12
-2.910000000e-02	2.321586076e-01	1.979911415e-05	1.054279788e-11
-2.920000000e-02	2.321585954e-01	2.215536186e-05	1.402514118e-11
-2.930000000e-02	2.321585832e-01	2.451160888e-05	6.605782380e-11
-2.940000000e-02	2.321585709e-01	2.686785520e-05	1.190345225e-11
-2.950000000e-02	2.321585585e-01	2.922410081e-05	8.018317540e-12
-2.960000000e-02	2.321585461e-01	3.158034572e-05	2.543792581e-11
-2.970000000e-02	2.321585335e-01	3.393658992e-05	9.856182032e-12
-2.980000000e-02	2.321585209e-01	3.629283340e-05	8.056385468e-12
-2.990000000e-02	2.321585083e-01	3.864907617e-05	1.073447923e-11
-3.000000000e-02	2.321584955e-01	4.100531821e-05	3.532083444e-11
