# Im(epsi1)     Re(omega/c)      Im(omega/c)      Eq(det).Opt det CON kz, R=0.5 \mum, mu_c=0.3, Re(epsi1)=3.90solve_det_conkz_vs_kz.py
0.000000000e+00	2.321385244e-01	-6.658072079e-04	1.506455088e-11
-1.000000000e-04	2.321385331e-01	-6.634510604e-04	1.834518321e-11
-2.000000000e-04	2.321385418e-01	-6.610949126e-04	3.915313150e-11
-3.000000000e-04	2.321385503e-01	-6.587387644e-04	8.501334533e-12
-4.000000000e-04	2.321385588e-01	-6.563826158e-04	7.932101536e-12
-5.000000000e-04	2.321385672e-01	-6.540264668e-04	8.437207553e-12
-6.000000000e-04	2.321385756e-01	-6.516703176e-04	4.086111899e-11
-7.000000000e-04	2.321385838e-01	-6.493141679e-04	1.225223600e-11
-8.000000000e-04	2.321385920e-01	-6.469580180e-04	1.144089185e-11
-9.000000000e-04	2.321386002e-01	-6.446018677e-04	1.040627194e-11
-1.000000000e-03	2.321386082e-01	-6.422457171e-04	9.489859917e-12
-1.100000000e-03	2.321386162e-01	-6.398895661e-04	2.883348713e-11
-1.200000000e-03	2.321386241e-01	-6.375334148e-04	9.596584874e-12
-1.300000000e-03	2.321386319e-01	-6.351772632e-04	8.025569376e-12
-1.400000000e-03	2.321386397e-01	-6.328211113e-04	1.410822495e-11
-1.500000000e-03	2.321386474e-01	-6.304649591e-04	8.764136757e-12
-1.600000000e-03	2.321386550e-01	-6.281088065e-04	8.314572438e-12
-1.700000000e-03	2.321386626e-01	-6.257526537e-04	6.762032159e-12
-1.800000000e-03	2.321386701e-01	-6.233965005e-04	2.353391389e-10
-1.900000000e-03	2.321386775e-01	-6.210403470e-04	3.668132225e-11
-2.000000000e-03	2.321386848e-01	-6.186841933e-04	2.037634394e-11
-2.100000000e-03	2.321386921e-01	-6.163280392e-04	3.281968206e-11
-2.200000000e-03	2.321386993e-01	-6.139718849e-04	7.709183641e-12
-2.300000000e-03	2.321387064e-01	-6.116157303e-04	1.451716496e-11
-2.400000000e-03	2.321387134e-01	-6.092595754e-04	1.087745421e-11
-2.500000000e-03	2.321387204e-01	-6.069034202e-04	2.004082074e-11
-2.600000000e-03	2.321387273e-01	-6.045472647e-04	2.942699101e-11
-2.700000000e-03	2.321387342e-01	-6.021911090e-04	1.113304877e-11
-2.800000000e-03	2.321387409e-01	-5.998349530e-04	7.288331561e-12
-2.900000000e-03	2.321387476e-01	-5.974787967e-04	1.494382812e-11
-3.000000000e-03	2.321387542e-01	-5.951226402e-04	1.444553531e-11
-3.100000000e-03	2.321387608e-01	-5.927664834e-04	7.399848787e-12
-3.200000000e-03	2.321387673e-01	-5.904103264e-04	8.121221938e-12
-3.300000000e-03	2.321387737e-01	-5.880541691e-04	7.599884601e-12
-3.400000000e-03	2.321387800e-01	-5.856980116e-04	1.147737667e-11
-3.500000000e-03	2.321387863e-01	-5.833418538e-04	1.762423506e-11
-3.600000000e-03	2.321387924e-01	-5.809856958e-04	1.351907353e-11
-3.700000000e-03	2.321387986e-01	-5.786295376e-04	1.011707849e-11
-3.800000000e-03	2.321388046e-01	-5.762733791e-04	1.266365354e-11
-3.900000000e-03	2.321388106e-01	-5.739172204e-04	1.774366935e-11
-4.000000000e-03	2.321388165e-01	-5.715610615e-04	8.324234944e-12
-4.100000000e-03	2.321388223e-01	-5.692049024e-04	2.523047743e-11
-4.200000000e-03	2.321388281e-01	-5.668487430e-04	2.743797374e-11
-4.300000000e-03	2.321388338e-01	-5.644925834e-04	1.927518395e-11
-4.400000000e-03	2.321388394e-01	-5.621364237e-04	5.660302858e-12
-4.500000000e-03	2.321388449e-01	-5.597802637e-04	4.118103761e-11
-4.600000000e-03	2.321388504e-01	-5.574241035e-04	1.569698414e-11
-4.700000000e-03	2.321388558e-01	-5.550679431e-04	2.275439434e-11
-4.800000000e-03	2.321388611e-01	-5.527117825e-04	1.054250025e-11
-4.900000000e-03	2.321388664e-01	-5.503556217e-04	1.013131579e-11
-5.000000000e-03	2.321388716e-01	-5.479994608e-04	2.101243488e-11
-5.100000000e-03	2.321388767e-01	-5.456432996e-04	9.751353332e-12
-5.200000000e-03	2.321388817e-01	-5.432871383e-04	1.202274427e-11
-5.300000000e-03	2.321388867e-01	-5.409309768e-04	1.089063621e-11
-5.400000000e-03	2.321388916e-01	-5.385748151e-04	2.568120236e-11
-5.500000000e-03	2.321388964e-01	-5.362186533e-04	8.142345628e-12
-5.600000000e-03	2.321389012e-01	-5.338624913e-04	1.009080892e-11
-5.700000000e-03	2.321389059e-01	-5.315063291e-04	1.940685074e-11
-5.800000000e-03	2.321389105e-01	-5.291501668e-04	4.311218964e-12
-5.900000000e-03	2.321389150e-01	-5.267940043e-04	7.246800584e-12
-6.000000000e-03	2.321389195e-01	-5.244378417e-04	2.553235717e-11
-6.100000000e-03	2.321389239e-01	-5.220816789e-04	8.739686196e-12
-6.200000000e-03	2.321389282e-01	-5.197255160e-04	9.020101138e-12
-6.300000000e-03	2.321389325e-01	-5.173693529e-04	9.650001965e-12
-6.400000000e-03	2.321389366e-01	-5.150131897e-04	1.130185407e-11
-6.500000000e-03	2.321389408e-01	-5.126570264e-04	5.382790315e-12
-6.600000000e-03	2.321389448e-01	-5.103008629e-04	2.025835321e-11
-6.700000000e-03	2.321389488e-01	-5.079446993e-04	4.317394261e-11
-6.800000000e-03	2.321389527e-01	-5.055885356e-04	8.674635907e-12
-6.900000000e-03	2.321389565e-01	-5.032323718e-04	1.129038960e-11
-7.000000000e-03	2.321389602e-01	-5.008762079e-04	1.414867786e-11
-7.100000000e-03	2.321389639e-01	-4.985200438e-04	1.157161260e-11
-7.200000000e-03	2.321389675e-01	-4.961638796e-04	2.398834026e-11
-7.300000000e-03	2.321389711e-01	-4.938077154e-04	1.711953357e-11
-7.400000000e-03	2.321389745e-01	-4.914515510e-04	1.334909910e-11
-7.500000000e-03	2.321389779e-01	-4.890953866e-04	8.111306589e-12
-7.600000000e-03	2.321389812e-01	-4.867392220e-04	1.477681241e-11
-7.700000000e-03	2.321389845e-01	-4.843830574e-04	1.095237158e-11
-7.800000000e-03	2.321389877e-01	-4.820268926e-04	8.666478715e-12
-7.900000000e-03	2.321389908e-01	-4.796707278e-04	5.548580715e-11
-8.000000000e-03	2.321389938e-01	-4.773145629e-04	1.786636460e-11
-8.100000000e-03	2.321389968e-01	-4.749583980e-04	1.223455998e-11
-8.200000000e-03	2.321389997e-01	-4.726022329e-04	1.109574324e-11
-8.300000000e-03	2.321390025e-01	-4.702460678e-04	7.984060197e-12
-8.400000000e-03	2.321390052e-01	-4.678899027e-04	1.015759631e-11
-8.500000000e-03	2.321390079e-01	-4.655337374e-04	9.882858857e-12
-8.600000000e-03	2.321390105e-01	-4.631775721e-04	1.552254807e-11
-8.700000000e-03	2.321390130e-01	-4.608214068e-04	6.594616791e-12
-8.800000000e-03	2.321390155e-01	-4.584652414e-04	1.487665910e-11
-8.900000000e-03	2.321390179e-01	-4.561090760e-04	1.236706545e-11
-9.000000000e-03	2.321390202e-01	-4.537529105e-04	9.316678691e-11
-9.100000000e-03	2.321390224e-01	-4.513967450e-04	2.597913428e-11
-9.200000000e-03	2.321390246e-01	-4.490405795e-04	1.157690681e-11
-9.300000000e-03	2.321390267e-01	-4.466844139e-04	8.570407603e-12
-9.400000000e-03	2.321390288e-01	-4.443282483e-04	2.238401196e-11
-9.500000000e-03	2.321390307e-01	-4.419720827e-04	1.086353016e-11
-9.600000000e-03	2.321390326e-01	-4.396159170e-04	1.274668084e-11
-9.700000000e-03	2.321390344e-01	-4.372597514e-04	5.005982421e-11
-9.800000000e-03	2.321390362e-01	-4.349035857e-04	7.378988381e-11
-9.900000000e-03	2.321390378e-01	-4.325474200e-04	9.385589222e-12
-1.000000000e-02	2.321390394e-01	-4.301912543e-04	1.387244330e-11
-1.010000000e-02	2.321390410e-01	-4.278350886e-04	1.285643616e-11
-1.020000000e-02	2.321390424e-01	-4.254789229e-04	2.607790816e-11
-1.030000000e-02	2.321390438e-01	-4.231227572e-04	1.046064584e-10
-1.040000000e-02	2.321390451e-01	-4.207665915e-04	1.541162056e-11
-1.050000000e-02	2.321390464e-01	-4.184104259e-04	7.964674142e-12
-1.060000000e-02	2.321390475e-01	-4.160542602e-04	2.206425700e-11
-1.070000000e-02	2.321390486e-01	-4.136980946e-04	1.086369167e-11
-1.080000000e-02	2.321390497e-01	-4.113419290e-04	9.651371331e-12
-1.090000000e-02	2.321390506e-01	-4.089857634e-04	1.654270766e-11
-1.100000000e-02	2.321390515e-01	-4.066295979e-04	3.204416545e-11
-1.110000000e-02	2.321390523e-01	-4.042734324e-04	3.051689813e-11
-1.120000000e-02	2.321390530e-01	-4.019172669e-04	2.578158122e-11
-1.130000000e-02	2.321390537e-01	-3.995611014e-04	1.448617287e-11
-1.140000000e-02	2.321390543e-01	-3.972049361e-04	6.878076535e-12
-1.150000000e-02	2.321390548e-01	-3.948487707e-04	7.677692355e-12
-1.160000000e-02	2.321390553e-01	-3.924926054e-04	1.701857421e-11
-1.170000000e-02	2.321390557e-01	-3.901364402e-04	5.447827350e-11
-1.180000000e-02	2.321390560e-01	-3.877802750e-04	2.129115966e-11
-1.190000000e-02	2.321390562e-01	-3.854241099e-04	3.198082751e-11
-1.200000000e-02	2.321390564e-01	-3.830679449e-04	6.223922141e-11
-1.210000000e-02	2.321390565e-01	-3.807117799e-04	1.593663551e-11
-1.220000000e-02	2.321390565e-01	-3.783556150e-04	9.011085858e-12
-1.230000000e-02	2.321390564e-01	-3.759994502e-04	1.107335958e-11
-1.240000000e-02	2.321390563e-01	-3.736432855e-04	2.811138246e-11
-1.250000000e-02	2.321390561e-01	-3.712871208e-04	2.245388688e-11
-1.260000000e-02	2.321390559e-01	-3.689309563e-04	1.026554276e-11
-1.270000000e-02	2.321390555e-01	-3.665747918e-04	1.013119619e-11
-1.280000000e-02	2.321390551e-01	-3.642186274e-04	9.569739557e-11
-1.290000000e-02	2.321390547e-01	-3.618624631e-04	1.232691153e-11
-1.300000000e-02	2.321390541e-01	-3.595062990e-04	1.198381710e-11
-1.310000000e-02	2.321390535e-01	-3.571501349e-04	1.971425282e-11
-1.320000000e-02	2.321390528e-01	-3.547939710e-04	1.672529571e-11
-1.330000000e-02	2.321390520e-01	-3.524378071e-04	2.557378229e-11
-1.340000000e-02	2.321390512e-01	-3.500816434e-04	6.945906440e-12
-1.350000000e-02	2.321390503e-01	-3.477254798e-04	9.068232003e-12
-1.360000000e-02	2.321390493e-01	-3.453693163e-04	4.999923489e-12
-1.370000000e-02	2.321390482e-01	-3.430131530e-04	1.255262734e-11
-1.380000000e-02	2.321390471e-01	-3.406569898e-04	9.906397481e-12
-1.390000000e-02	2.321390459e-01	-3.383008267e-04	7.172930468e-12
-1.400000000e-02	2.321390446e-01	-3.359446638e-04	1.961256485e-11
-1.410000000e-02	2.321390433e-01	-3.335885010e-04	7.246346665e-12
-1.420000000e-02	2.321390419e-01	-3.312323383e-04	1.731748980e-11
-1.430000000e-02	2.321390404e-01	-3.288761758e-04	1.143185796e-11
-1.440000000e-02	2.321390389e-01	-3.265200135e-04	1.247297049e-11
-1.450000000e-02	2.321390372e-01	-3.241638513e-04	1.502761951e-11
-1.460000000e-02	2.321390355e-01	-3.218076893e-04	1.123641129e-11
-1.470000000e-02	2.321390338e-01	-3.194515274e-04	1.077214506e-11
-1.480000000e-02	2.321390319e-01	-3.170953658e-04	8.110231221e-12
-1.490000000e-02	2.321390300e-01	-3.147392043e-04	1.551843411e-11
-1.500000000e-02	2.321390280e-01	-3.123830429e-04	8.921019214e-12
-1.510000000e-02	2.321390260e-01	-3.100268818e-04	1.254621903e-11
-1.520000000e-02	2.321390238e-01	-3.076707208e-04	8.649698090e-12
-1.530000000e-02	2.321390216e-01	-3.053145600e-04	1.072231261e-11
-1.540000000e-02	2.321390194e-01	-3.029583994e-04	7.616268340e-12
-1.550000000e-02	2.321390170e-01	-3.006022390e-04	2.073141633e-11
-1.560000000e-02	2.321390146e-01	-2.982460788e-04	7.446930643e-12
-1.570000000e-02	2.321390121e-01	-2.958899188e-04	2.713054931e-11
-1.580000000e-02	2.321390096e-01	-2.935337590e-04	8.254666904e-12
-1.590000000e-02	2.321390069e-01	-2.911775994e-04	1.365245333e-11
-1.600000000e-02	2.321390042e-01	-2.888214400e-04	1.619433638e-11
-1.610000000e-02	2.321390015e-01	-2.864652809e-04	8.597185883e-12
-1.620000000e-02	2.321389986e-01	-2.841091219e-04	5.890718519e-11
-1.630000000e-02	2.321389957e-01	-2.817529632e-04	8.600488787e-12
-1.640000000e-02	2.321389927e-01	-2.793968047e-04	3.423312959e-11
-1.650000000e-02	2.321389896e-01	-2.770406465e-04	1.565197547e-11
-1.660000000e-02	2.321389865e-01	-2.746844885e-04	2.410090819e-11
-1.670000000e-02	2.321389833e-01	-2.723283307e-04	1.085916016e-11
-1.680000000e-02	2.321389800e-01	-2.699721731e-04	1.447347090e-11
-1.690000000e-02	2.321389767e-01	-2.676160158e-04	2.651012004e-11
-1.700000000e-02	2.321389733e-01	-2.652598588e-04	2.579363166e-11
-1.710000000e-02	2.321389698e-01	-2.629037020e-04	2.373566896e-11
-1.720000000e-02	2.321389662e-01	-2.605475454e-04	6.083838185e-12
-1.730000000e-02	2.321389626e-01	-2.581913892e-04	9.779415547e-12
-1.740000000e-02	2.321389589e-01	-2.558352331e-04	1.397289749e-11
-1.750000000e-02	2.321389551e-01	-2.534790774e-04	1.097005389e-11
-1.760000000e-02	2.321389512e-01	-2.511229219e-04	5.335099165e-11
-1.770000000e-02	2.321389473e-01	-2.487667667e-04	1.513201934e-11
-1.780000000e-02	2.321389433e-01	-2.464106118e-04	8.958322492e-12
-1.790000000e-02	2.321389393e-01	-2.440544571e-04	7.690348991e-12
-1.800000000e-02	2.321389351e-01	-2.416983028e-04	1.325015247e-11
-1.810000000e-02	2.321389309e-01	-2.393421487e-04	1.078490944e-11
-1.820000000e-02	2.321389266e-01	-2.369859949e-04	3.527494593e-11
-1.830000000e-02	2.321389223e-01	-2.346298414e-04	1.950875479e-11
-1.840000000e-02	2.321389179e-01	-2.322736883e-04	1.023737505e-11
-1.850000000e-02	2.321389134e-01	-2.299175354e-04	6.157290715e-12
-1.860000000e-02	2.321389088e-01	-2.275613828e-04	1.477602430e-11
-1.870000000e-02	2.321389042e-01	-2.252052305e-04	1.717475853e-11
-1.880000000e-02	2.321388995e-01	-2.228490786e-04	7.499876976e-11
-1.890000000e-02	2.321388947e-01	-2.204929270e-04	2.474498130e-11
-1.900000000e-02	2.321388898e-01	-2.181367757e-04	2.565587593e-11
-1.910000000e-02	2.321388849e-01	-2.157806247e-04	8.702661530e-12
-1.920000000e-02	2.321388799e-01	-2.134244740e-04	1.133050390e-11
-1.930000000e-02	2.321388748e-01	-2.110683237e-04	2.154593083e-11
-1.940000000e-02	2.321388697e-01	-2.087121737e-04	3.532843782e-11
-1.950000000e-02	2.321388645e-01	-2.063560241e-04	7.963724225e-12
-1.960000000e-02	2.321388592e-01	-2.039998748e-04	1.243615966e-11
-1.970000000e-02	2.321388538e-01	-2.016437258e-04	7.361751141e-12
-1.980000000e-02	2.321388484e-01	-1.992875772e-04	2.163788812e-11
-1.990000000e-02	2.321388429e-01	-1.969314290e-04	4.715916908e-11
-2.000000000e-02	2.321388373e-01	-1.945752811e-04	2.545874714e-11
-2.010000000e-02	2.321388317e-01	-1.922191335e-04	8.538404644e-12
-2.020000000e-02	2.321388260e-01	-1.898629864e-04	9.938678598e-12
-2.030000000e-02	2.321388202e-01	-1.875068396e-04	9.919479714e-12
-2.040000000e-02	2.321388143e-01	-1.851506932e-04	4.376331242e-11
-2.050000000e-02	2.321388084e-01	-1.827945471e-04	9.463611563e-12
-2.060000000e-02	2.321388024e-01	-1.804384014e-04	1.677846080e-11
-2.070000000e-02	2.321387963e-01	-1.780822562e-04	6.576692649e-12
-2.080000000e-02	2.321387902e-01	-1.757261113e-04	7.162549726e-12
-2.090000000e-02	2.321387840e-01	-1.733699667e-04	3.135479805e-11
-2.100000000e-02	2.321387777e-01	-1.710138226e-04	2.203414246e-11
-2.110000000e-02	2.321387713e-01	-1.686576789e-04	1.355303836e-11
-2.120000000e-02	2.321387649e-01	-1.663015356e-04	1.409805583e-11
-2.130000000e-02	2.321387584e-01	-1.639453927e-04	1.359463584e-11
-2.140000000e-02	2.321387518e-01	-1.615892502e-04	8.355559433e-12
-2.150000000e-02	2.321387452e-01	-1.592331081e-04	1.837481035e-11
-2.160000000e-02	2.321387385e-01	-1.568769664e-04	2.191319062e-11
-2.170000000e-02	2.321387317e-01	-1.545208252e-04	3.419998057e-11
-2.180000000e-02	2.321387248e-01	-1.521646844e-04	1.309435847e-11
-2.190000000e-02	2.321387179e-01	-1.498085440e-04	2.206987855e-11
-2.200000000e-02	2.321387109e-01	-1.474524040e-04	1.130872925e-11
-2.210000000e-02	2.321387038e-01	-1.450962645e-04	8.096184621e-12
-2.220000000e-02	2.321386967e-01	-1.427401254e-04	5.975888215e-12
-2.230000000e-02	2.321386894e-01	-1.403839867e-04	1.412442963e-11
-2.240000000e-02	2.321386821e-01	-1.380278485e-04	8.707913433e-12
-2.250000000e-02	2.321386748e-01	-1.356717107e-04	9.295247667e-12
-2.260000000e-02	2.321386673e-01	-1.333155734e-04	1.005817368e-11
-2.270000000e-02	2.321386598e-01	-1.309594366e-04	1.451198189e-11
-2.280000000e-02	2.321386523e-01	-1.286033002e-04	8.386285880e-11
-2.290000000e-02	2.321386446e-01	-1.262471642e-04	2.490763136e-11
-2.300000000e-02	2.321386369e-01	-1.238910288e-04	3.984743652e-11
-2.310000000e-02	2.321386291e-01	-1.215348938e-04	1.412974120e-11
-2.320000000e-02	2.321386212e-01	-1.191787593e-04	1.198952675e-11
-2.330000000e-02	2.321386133e-01	-1.168226252e-04	2.356281603e-11
-2.340000000e-02	2.321386053e-01	-1.144664917e-04	8.382181426e-12
-2.350000000e-02	2.321385972e-01	-1.121103586e-04	6.894879828e-12
-2.360000000e-02	2.321385891e-01	-1.097542260e-04	1.598281494e-11
-2.370000000e-02	2.321385808e-01	-1.073980939e-04	1.709971140e-11
-2.380000000e-02	2.321385725e-01	-1.050419623e-04	3.331461773e-11
-2.390000000e-02	2.321385642e-01	-1.026858312e-04	1.077548550e-11
-2.400000000e-02	2.321385557e-01	-1.003297006e-04	6.674026157e-11
-2.410000000e-02	2.321385472e-01	-9.797357055e-05	1.524472119e-11
-2.420000000e-02	2.321385386e-01	-9.561744097e-05	5.238878148e-12
-2.430000000e-02	2.321385300e-01	-9.326131191e-05	4.602986767e-12
-2.440000000e-02	2.321385213e-01	-9.090518337e-05	2.846002380e-11
-2.450000000e-02	2.321385125e-01	-8.854905534e-05	1.051314387e-11
-2.460000000e-02	2.321385036e-01	-8.619292785e-05	3.777976336e-11
-2.470000000e-02	2.321384947e-01	-8.383680088e-05	6.737498942e-12
-2.480000000e-02	2.321384856e-01	-8.148067444e-05	9.511418042e-12
-2.490000000e-02	2.321384766e-01	-7.912454854e-05	2.290065105e-11
-2.500000000e-02	2.321384674e-01	-7.676842318e-05	1.968051607e-11
-2.510000000e-02	2.321384582e-01	-7.441229837e-05	1.883550924e-11
-2.520000000e-02	2.321384489e-01	-7.205617410e-05	1.052255221e-11
-2.530000000e-02	2.321384395e-01	-6.970005037e-05	4.215742313e-11
-2.540000000e-02	2.321384301e-01	-6.734392721e-05	1.540660321e-11
-2.550000000e-02	2.321384206e-01	-6.498780461e-05	1.171483370e-11
-2.560000000e-02	2.321384110e-01	-6.263168256e-05	2.926078730e-11
-2.570000000e-02	2.321384013e-01	-6.027556109e-05	1.051024644e-10
-2.580000000e-02	2.321383916e-01	-5.791944017e-05	1.698218185e-11
-2.590000000e-02	2.321383818e-01	-5.556331983e-05	1.253765500e-11
-2.600000000e-02	2.321383719e-01	-5.320720007e-05	5.064578378e-11
-2.610000000e-02	2.321383620e-01	-5.085108089e-05	1.480449565e-11
-2.620000000e-02	2.321383519e-01	-4.849496229e-05	1.261792632e-11
-2.630000000e-02	2.321383419e-01	-4.613884427e-05	1.432225605e-11
-2.640000000e-02	2.321383317e-01	-4.378272685e-05	8.954029069e-12
-2.650000000e-02	2.321383215e-01	-4.142661002e-05	1.271696855e-11
-2.660000000e-02	2.321383112e-01	-3.907049379e-05	1.181735259e-11
-2.670000000e-02	2.321383008e-01	-3.671437816e-05	2.894766093e-11
-2.680000000e-02	2.321382903e-01	-3.435826314e-05	1.386957489e-11
-2.690000000e-02	2.321382798e-01	-3.200214872e-05	8.083163491e-12
-2.700000000e-02	2.321382692e-01	-2.964603492e-05	1.746759648e-11
-2.710000000e-02	2.321382586e-01	-2.728992174e-05	9.431051302e-12
-2.720000000e-02	2.321382478e-01	-2.493380917e-05	1.588265388e-11
-2.730000000e-02	2.321382370e-01	-2.257769723e-05	2.545816612e-11
-2.740000000e-02	2.321382262e-01	-2.022158591e-05	3.101207236e-11
-2.750000000e-02	2.321382152e-01	-1.786547522e-05	1.366204573e-11
-2.760000000e-02	2.321382042e-01	-1.550936517e-05	1.777366576e-11
-2.770000000e-02	2.321381931e-01	-1.315325576e-05	3.798373704e-11
-2.780000000e-02	2.321381819e-01	-1.079714699e-05	1.314421843e-11
-2.790000000e-02	2.321381707e-01	-8.441038858e-06	4.280704890e-11
-2.800000000e-02	2.321381594e-01	-6.084931382e-06	8.113404602e-12
-2.810000000e-02	2.321381480e-01	-3.728824557e-06	1.291472541e-11
-2.820000000e-02	2.321381366e-01	-1.372718382e-06	3.912630532e-11
-2.830000000e-02	2.321381250e-01	9.833871248e-07	1.015484674e-11
-2.840000000e-02	2.321381135e-01	3.339491970e-06	1.912134899e-11
-2.850000000e-02	2.321381018e-01	5.695596151e-06	1.088595673e-11
-2.860000000e-02	2.321380900e-01	8.051699660e-06	7.727859396e-12
-2.870000000e-02	2.321380782e-01	1.040780249e-05	5.498729377e-11
-2.880000000e-02	2.321380664e-01	1.276390465e-05	1.466473225e-11
-2.890000000e-02	2.321380544e-01	1.512000613e-05	1.341867386e-11
-2.900000000e-02	2.321380424e-01	1.747610692e-05	1.180376608e-11
-2.910000000e-02	2.321380303e-01	1.983220702e-05	2.049079761e-11
-2.920000000e-02	2.321380181e-01	2.218830643e-05	8.543399281e-12
-2.930000000e-02	2.321380059e-01	2.454440515e-05	9.035975585e-12
-2.940000000e-02	2.321379936e-01	2.690050316e-05	1.056482335e-11
-2.950000000e-02	2.321379812e-01	2.925660047e-05	1.462461248e-11
-2.960000000e-02	2.321379687e-01	3.161269707e-05	5.379151612e-12
-2.970000000e-02	2.321379562e-01	3.396879297e-05	1.521572992e-11
-2.980000000e-02	2.321379436e-01	3.632488814e-05	1.747205362e-11
-2.990000000e-02	2.321379309e-01	3.868098261e-05	1.035903429e-11
-3.000000000e-02	2.321379182e-01	4.103707634e-05	2.005167866e-11
