# Im(epsi1)     Re(omega/c)      Im(omega/c)      Eq(det).Opt det CON kz, R=0.5 \mum, mu_c=0.3, Re(epsi1)=3.90solve_det_conkz_vs_kz.py
0.000000000e+00	2.321458549e-01	-6.658343726e-04	1.551923403e-11
-1.000000000e-04	2.321458635e-01	-6.634781723e-04	6.392432182e-12
-2.000000000e-04	2.321458722e-01	-6.611219716e-04	1.097549967e-11
-3.000000000e-04	2.321458807e-01	-6.587657706e-04	9.062123176e-12
-4.000000000e-04	2.321458892e-01	-6.564095692e-04	1.492280107e-11
-5.000000000e-04	2.321458976e-01	-6.540533675e-04	1.402858832e-11
-6.000000000e-04	2.321459060e-01	-6.516971654e-04	1.075198465e-11
-7.000000000e-04	2.321459142e-01	-6.493409629e-04	9.324716118e-12
-8.000000000e-04	2.321459224e-01	-6.469847601e-04	7.529621891e-12
-9.000000000e-04	2.321459306e-01	-6.446285570e-04	6.011103955e-12
-1.000000000e-03	2.321459386e-01	-6.422723536e-04	3.967450723e-11
-1.100000000e-03	2.321459466e-01	-6.399161498e-04	1.745554531e-11
-1.200000000e-03	2.321459545e-01	-6.375599457e-04	7.099736580e-12
-1.300000000e-03	2.321459624e-01	-6.352037413e-04	1.216914123e-11
-1.400000000e-03	2.321459701e-01	-6.328475365e-04	1.780275909e-11
-1.500000000e-03	2.321459778e-01	-6.304913315e-04	1.191005406e-11
-1.600000000e-03	2.321459854e-01	-6.281351261e-04	7.942639657e-12
-1.700000000e-03	2.321459930e-01	-6.257789204e-04	7.020160758e-12
-1.800000000e-03	2.321460005e-01	-6.234227145e-04	2.426225542e-11
-1.900000000e-03	2.321460079e-01	-6.210665082e-04	9.253913214e-11
-2.000000000e-03	2.321460152e-01	-6.187103016e-04	5.415561596e-12
-2.100000000e-03	2.321460225e-01	-6.163540948e-04	8.052585086e-12
-2.200000000e-03	2.321460297e-01	-6.139978876e-04	2.363936542e-11
-2.300000000e-03	2.321460368e-01	-6.116416802e-04	2.014202269e-11
-2.400000000e-03	2.321460439e-01	-6.092854724e-04	1.199566924e-11
-2.500000000e-03	2.321460508e-01	-6.069292644e-04	1.360783405e-11
-2.600000000e-03	2.321460577e-01	-6.045730561e-04	1.049585312e-11
-2.700000000e-03	2.321460646e-01	-6.022168476e-04	8.139862200e-12
-2.800000000e-03	2.321460713e-01	-5.998606388e-04	1.869970335e-11
-2.900000000e-03	2.321460780e-01	-5.975044297e-04	1.003820021e-11
-3.000000000e-03	2.321460847e-01	-5.951482204e-04	8.088375338e-12
-3.100000000e-03	2.321460912e-01	-5.927920108e-04	1.207324404e-11
-3.200000000e-03	2.321460977e-01	-5.904358009e-04	2.502796657e-11
-3.300000000e-03	2.321461041e-01	-5.880795908e-04	5.225030610e-12
-3.400000000e-03	2.321461104e-01	-5.857233805e-04	1.367374459e-11
-3.500000000e-03	2.321461167e-01	-5.833671699e-04	2.119672834e-11
-3.600000000e-03	2.321461229e-01	-5.810109591e-04	1.101000010e-11
-3.700000000e-03	2.321461290e-01	-5.786547480e-04	6.563050959e-12
-3.800000000e-03	2.321461350e-01	-5.762985367e-04	3.800721513e-11
-3.900000000e-03	2.321461410e-01	-5.739423252e-04	3.053913522e-11
-4.000000000e-03	2.321461469e-01	-5.715861135e-04	1.432334954e-11
-4.100000000e-03	2.321461527e-01	-5.692299015e-04	1.705444073e-11
-4.200000000e-03	2.321461585e-01	-5.668736893e-04	1.522328677e-11
-4.300000000e-03	2.321461642e-01	-5.645174769e-04	6.467249829e-12
-4.400000000e-03	2.321461698e-01	-5.621612643e-04	3.844173902e-11
-4.500000000e-03	2.321461754e-01	-5.598050515e-04	8.036862444e-11
-4.600000000e-03	2.321461808e-01	-5.574488385e-04	1.122644408e-11
-4.700000000e-03	2.321461862e-01	-5.550926253e-04	1.544423800e-11
-4.800000000e-03	2.321461916e-01	-5.527364119e-04	2.625707775e-11
-4.900000000e-03	2.321461968e-01	-5.503801983e-04	9.238694228e-12
-5.000000000e-03	2.321462020e-01	-5.480239846e-04	1.030671870e-11
-5.100000000e-03	2.321462071e-01	-5.456677706e-04	8.132853876e-12
-5.200000000e-03	2.321462122e-01	-5.433115565e-04	7.399058388e-12
-5.300000000e-03	2.321462171e-01	-5.409553421e-04	1.016406009e-11
-5.400000000e-03	2.321462220e-01	-5.385991276e-04	2.222073079e-11
-5.500000000e-03	2.321462269e-01	-5.362429130e-04	1.294388099e-11
-5.600000000e-03	2.321462316e-01	-5.338866982e-04	9.075604198e-12
-5.700000000e-03	2.321462363e-01	-5.315304832e-04	1.970954615e-11
-5.800000000e-03	2.321462409e-01	-5.291742680e-04	6.934634457e-12
-5.900000000e-03	2.321462455e-01	-5.268180527e-04	1.319856683e-11
-6.000000000e-03	2.321462499e-01	-5.244618373e-04	1.070970262e-11
-6.100000000e-03	2.321462543e-01	-5.221056217e-04	2.335627764e-11
-6.200000000e-03	2.321462586e-01	-5.197494059e-04	3.604139988e-12
-6.300000000e-03	2.321462629e-01	-5.173931901e-04	9.589448377e-12
-6.400000000e-03	2.321462671e-01	-5.150369740e-04	2.512953784e-11
-6.500000000e-03	2.321462712e-01	-5.126807579e-04	3.119743098e-11
-6.600000000e-03	2.321462752e-01	-5.103245416e-04	1.235089379e-11
-6.700000000e-03	2.321462792e-01	-5.079683252e-04	1.080099632e-11
-6.800000000e-03	2.321462831e-01	-5.056121087e-04	1.809724979e-11
-6.900000000e-03	2.321462869e-01	-5.032558920e-04	2.432251347e-11
-7.000000000e-03	2.321462907e-01	-5.008996753e-04	1.563358039e-11
-7.100000000e-03	2.321462943e-01	-4.985434584e-04	1.853963047e-11
-7.200000000e-03	2.321462980e-01	-4.961872414e-04	1.687213758e-11
-7.300000000e-03	2.321463015e-01	-4.938310243e-04	1.969236435e-11
-7.400000000e-03	2.321463050e-01	-4.914748071e-04	6.574761741e-12
-7.500000000e-03	2.321463084e-01	-4.891185898e-04	3.569382925e-11
-7.600000000e-03	2.321463117e-01	-4.867623725e-04	1.218990067e-11
-7.700000000e-03	2.321463149e-01	-4.844061550e-04	6.278938030e-12
-7.800000000e-03	2.321463181e-01	-4.820499375e-04	2.564487955e-11
-7.900000000e-03	2.321463212e-01	-4.796937198e-04	2.028560188e-11
-8.000000000e-03	2.321463242e-01	-4.773375021e-04	5.010816081e-11
-8.100000000e-03	2.321463272e-01	-4.749812843e-04	1.709913654e-11
-8.200000000e-03	2.321463301e-01	-4.726250665e-04	1.107594855e-11
-8.300000000e-03	2.321463329e-01	-4.702688486e-04	3.638256726e-11
-8.400000000e-03	2.321463357e-01	-4.679126306e-04	1.140690962e-11
-8.500000000e-03	2.321463383e-01	-4.655564125e-04	9.387684176e-12
-8.600000000e-03	2.321463409e-01	-4.632001944e-04	1.630525154e-11
-8.700000000e-03	2.321463435e-01	-4.608439763e-04	1.733907871e-11
-8.800000000e-03	2.321463459e-01	-4.584877581e-04	7.959697408e-12
-8.900000000e-03	2.321463483e-01	-4.561315398e-04	8.300931104e-12
-9.000000000e-03	2.321463507e-01	-4.537753215e-04	1.530864654e-11
-9.100000000e-03	2.321463529e-01	-4.514191032e-04	1.441843679e-11
-9.200000000e-03	2.321463551e-01	-4.490628848e-04	9.236385985e-12
-9.300000000e-03	2.321463572e-01	-4.467066664e-04	7.007484532e-12
-9.400000000e-03	2.321463592e-01	-4.443504480e-04	3.186347920e-11
-9.500000000e-03	2.321463612e-01	-4.419942296e-04	1.218937526e-11
-9.600000000e-03	2.321463631e-01	-4.396380111e-04	7.429629318e-12
-9.700000000e-03	2.321463649e-01	-4.372817926e-04	8.784658910e-12
-9.800000000e-03	2.321463666e-01	-4.349255741e-04	4.258062763e-11
-9.900000000e-03	2.321463683e-01	-4.325693556e-04	9.816101741e-12
-1.000000000e-02	2.321463699e-01	-4.302131371e-04	9.958524691e-12
-1.010000000e-02	2.321463714e-01	-4.278569186e-04	3.023564154e-11
-1.020000000e-02	2.321463729e-01	-4.255007001e-04	8.949649763e-12
-1.030000000e-02	2.321463743e-01	-4.231444816e-04	9.446572885e-12
-1.040000000e-02	2.321463756e-01	-4.207882631e-04	1.069960225e-11
-1.050000000e-02	2.321463768e-01	-4.184320446e-04	8.052989705e-12
-1.060000000e-02	2.321463780e-01	-4.160758261e-04	1.753049022e-11
-1.070000000e-02	2.321463791e-01	-4.137196077e-04	1.563767392e-11
-1.080000000e-02	2.321463801e-01	-4.113633892e-04	1.398446020e-11
-1.090000000e-02	2.321463811e-01	-4.090071708e-04	1.087381881e-11
-1.100000000e-02	2.321463819e-01	-4.066509525e-04	1.445166194e-11
-1.110000000e-02	2.321463828e-01	-4.042947341e-04	7.607622577e-12
-1.120000000e-02	2.321463835e-01	-4.019385158e-04	9.381212191e-12
-1.130000000e-02	2.321463842e-01	-3.995822976e-04	2.999162947e-11
-1.140000000e-02	2.321463848e-01	-3.972260794e-04	3.149595138e-11
-1.150000000e-02	2.321463853e-01	-3.948698612e-04	1.595337069e-11
-1.160000000e-02	2.321463857e-01	-3.925136431e-04	1.727424702e-11
-1.170000000e-02	2.321463861e-01	-3.901574251e-04	2.330231864e-11
-1.180000000e-02	2.321463864e-01	-3.878012071e-04	1.275215312e-11
-1.190000000e-02	2.321463867e-01	-3.854449892e-04	5.406372136e-12
-1.200000000e-02	2.321463868e-01	-3.830887713e-04	2.426663352e-11
-1.210000000e-02	2.321463869e-01	-3.807325535e-04	2.454518324e-11
-1.220000000e-02	2.321463870e-01	-3.783763358e-04	4.873818395e-11
-1.230000000e-02	2.321463869e-01	-3.760201182e-04	2.877880392e-11
-1.240000000e-02	2.321463868e-01	-3.736639006e-04	1.620838722e-11
-1.250000000e-02	2.321463866e-01	-3.713076831e-04	1.053718277e-11
-1.260000000e-02	2.321463863e-01	-3.689514657e-04	8.788501819e-12
-1.270000000e-02	2.321463860e-01	-3.665952485e-04	1.706805673e-11
-1.280000000e-02	2.321463856e-01	-3.642390313e-04	1.292234560e-11
-1.290000000e-02	2.321463851e-01	-3.618828142e-04	1.162528657e-11
-1.300000000e-02	2.321463846e-01	-3.595265972e-04	6.131541286e-11
-1.310000000e-02	2.321463839e-01	-3.571703803e-04	1.767632108e-11
-1.320000000e-02	2.321463832e-01	-3.548141635e-04	8.411295042e-12
-1.330000000e-02	2.321463825e-01	-3.524579469e-04	9.588324231e-12
-1.340000000e-02	2.321463816e-01	-3.501017303e-04	1.513932605e-11
-1.350000000e-02	2.321463807e-01	-3.477455139e-04	3.396378006e-11
-1.360000000e-02	2.321463798e-01	-3.453892976e-04	6.947848066e-12
-1.370000000e-02	2.321463787e-01	-3.430330815e-04	8.293056498e-12
-1.380000000e-02	2.321463776e-01	-3.406768654e-04	1.219677075e-11
-1.390000000e-02	2.321463764e-01	-3.383206495e-04	4.035640188e-12
-1.400000000e-02	2.321463751e-01	-3.359644338e-04	9.221788031e-12
-1.410000000e-02	2.321463738e-01	-3.336082182e-04	6.187921988e-12
-1.420000000e-02	2.321463724e-01	-3.312520027e-04	1.516042170e-11
-1.430000000e-02	2.321463709e-01	-3.288957874e-04	1.437411044e-11
-1.440000000e-02	2.321463693e-01	-3.265395722e-04	7.376809937e-12
-1.450000000e-02	2.321463677e-01	-3.241833572e-04	9.115526829e-12
-1.460000000e-02	2.321463660e-01	-3.218271424e-04	9.837552557e-12
-1.470000000e-02	2.321463642e-01	-3.194709277e-04	8.602712120e-12
-1.480000000e-02	2.321463624e-01	-3.171147132e-04	1.310877411e-11
-1.490000000e-02	2.321463605e-01	-3.147584989e-04	8.773302387e-12
-1.500000000e-02	2.321463585e-01	-3.124022847e-04	1.486870458e-11
-1.510000000e-02	2.321463564e-01	-3.100460707e-04	2.608184082e-11
-1.520000000e-02	2.321463543e-01	-3.076898569e-04	1.509388601e-11
-1.530000000e-02	2.321463521e-01	-3.053336433e-04	1.319899779e-11
-1.540000000e-02	2.321463498e-01	-3.029774299e-04	9.355892066e-12
-1.550000000e-02	2.321463475e-01	-3.006212167e-04	1.283732806e-11
-1.560000000e-02	2.321463451e-01	-2.982650037e-04	1.104830340e-11
-1.570000000e-02	2.321463426e-01	-2.959087909e-04	1.317764682e-11
-1.580000000e-02	2.321463400e-01	-2.935525782e-04	1.185086074e-11
-1.590000000e-02	2.321463374e-01	-2.911963658e-04	1.364359749e-11
-1.600000000e-02	2.321463347e-01	-2.888401536e-04	6.678104996e-12
-1.610000000e-02	2.321463319e-01	-2.864839417e-04	1.235145891e-11
-1.620000000e-02	2.321463291e-01	-2.841277299e-04	1.689202739e-11
-1.630000000e-02	2.321463262e-01	-2.817715184e-04	2.613610779e-11
-1.640000000e-02	2.321463232e-01	-2.794153071e-04	7.883584893e-12
-1.650000000e-02	2.321463201e-01	-2.770590960e-04	1.490159043e-11
-1.660000000e-02	2.321463170e-01	-2.747028851e-04	3.800118613e-11
-1.670000000e-02	2.321463138e-01	-2.723466745e-04	6.444145957e-12
-1.680000000e-02	2.321463105e-01	-2.699904642e-04	6.284870654e-12
-1.690000000e-02	2.321463072e-01	-2.676342540e-04	8.487961590e-12
-1.700000000e-02	2.321463037e-01	-2.652780442e-04	1.028476014e-11
-1.710000000e-02	2.321463003e-01	-2.629218345e-04	3.268813883e-11
-1.720000000e-02	2.321462967e-01	-2.605656252e-04	1.730737700e-11
-1.730000000e-02	2.321462931e-01	-2.582094161e-04	5.021046700e-11
-1.740000000e-02	2.321462894e-01	-2.558532072e-04	2.706734168e-11
-1.750000000e-02	2.321462856e-01	-2.534969987e-04	1.648281156e-11
-1.760000000e-02	2.321462817e-01	-2.511407904e-04	1.931906636e-11
-1.770000000e-02	2.321462778e-01	-2.487845824e-04	1.586325527e-11
-1.780000000e-02	2.321462738e-01	-2.464283746e-04	1.309865486e-11
-1.790000000e-02	2.321462697e-01	-2.440721671e-04	2.951997800e-11
-1.800000000e-02	2.321462656e-01	-2.417159600e-04	8.998099755e-12
-1.810000000e-02	2.321462614e-01	-2.393597531e-04	1.098026297e-11
-1.820000000e-02	2.321462571e-01	-2.370035465e-04	5.762777152e-12
-1.830000000e-02	2.321462528e-01	-2.346473402e-04	1.218056683e-11
-1.840000000e-02	2.321462484e-01	-2.322911342e-04	2.208613652e-11
-1.850000000e-02	2.321462439e-01	-2.299349285e-04	4.355999305e-11
-1.860000000e-02	2.321462393e-01	-2.275787231e-04	1.183871947e-11
-1.870000000e-02	2.321462347e-01	-2.252225180e-04	5.689170215e-11
-1.880000000e-02	2.321462299e-01	-2.228663132e-04	2.358480147e-11
-1.890000000e-02	2.321462252e-01	-2.205101088e-04	4.806259647e-11
-1.900000000e-02	2.321462203e-01	-2.181539046e-04	9.564351716e-12
-1.910000000e-02	2.321462154e-01	-2.157977008e-04	3.207558788e-11
-1.920000000e-02	2.321462104e-01	-2.134414973e-04	1.525342638e-11
-1.930000000e-02	2.321462053e-01	-2.110852942e-04	6.336719055e-12
-1.940000000e-02	2.321462002e-01	-2.087290914e-04	1.771696109e-11
-1.950000000e-02	2.321461950e-01	-2.063728889e-04	1.646934397e-11
-1.960000000e-02	2.321461897e-01	-2.040166868e-04	3.146779278e-11
-1.970000000e-02	2.321461843e-01	-2.016604850e-04	6.984281122e-11
-1.980000000e-02	2.321461789e-01	-1.993042836e-04	2.705925529e-11
-1.990000000e-02	2.321461734e-01	-1.969480825e-04	1.267832712e-11
-2.000000000e-02	2.321461678e-01	-1.945918818e-04	1.724790042e-11
-2.010000000e-02	2.321461622e-01	-1.922356815e-04	1.173486313e-11
-2.020000000e-02	2.321461565e-01	-1.898794815e-04	1.272050068e-11
-2.030000000e-02	2.321461507e-01	-1.875232819e-04	1.443989595e-11
-2.040000000e-02	2.321461448e-01	-1.851670826e-04	1.558903288e-11
-2.050000000e-02	2.321461389e-01	-1.828108837e-04	1.193935365e-11
-2.060000000e-02	2.321461329e-01	-1.804546853e-04	1.649850003e-11
-2.070000000e-02	2.321461268e-01	-1.780984872e-04	1.578010617e-11
-2.080000000e-02	2.321461207e-01	-1.757422894e-04	7.488443013e-12
-2.090000000e-02	2.321461145e-01	-1.733860921e-04	1.461663708e-11
-2.100000000e-02	2.321461082e-01	-1.710298952e-04	2.582961175e-11
-2.110000000e-02	2.321461018e-01	-1.686736986e-04	1.960767123e-11
-2.120000000e-02	2.321460954e-01	-1.663175025e-04	6.170884220e-12
-2.130000000e-02	2.321460889e-01	-1.639613068e-04	4.114971512e-11
-2.140000000e-02	2.321460823e-01	-1.616051114e-04	1.087618144e-11
-2.150000000e-02	2.321460757e-01	-1.592489165e-04	2.293447425e-11
-2.160000000e-02	2.321460690e-01	-1.568927220e-04	1.706498251e-11
-2.170000000e-02	2.321460622e-01	-1.545365280e-04	1.525210877e-11
-2.180000000e-02	2.321460553e-01	-1.521803343e-04	1.939173338e-11
-2.190000000e-02	2.321460484e-01	-1.498241411e-04	5.845408409e-11
-2.200000000e-02	2.321460414e-01	-1.474679483e-04	3.425735167e-11
-2.210000000e-02	2.321460343e-01	-1.451117560e-04	1.406965387e-11
-2.220000000e-02	2.321460272e-01	-1.427555640e-04	1.346470584e-11
-2.230000000e-02	2.321460199e-01	-1.403993726e-04	3.676550222e-11
-2.240000000e-02	2.321460126e-01	-1.380431815e-04	1.317166336e-11
-2.250000000e-02	2.321460053e-01	-1.356869909e-04	5.866840819e-12
-2.260000000e-02	2.321459978e-01	-1.333308008e-04	1.229210038e-10
-2.270000000e-02	2.321459903e-01	-1.309746111e-04	1.158138133e-11
-2.280000000e-02	2.321459828e-01	-1.286184219e-04	4.892345575e-11
-2.290000000e-02	2.321459751e-01	-1.262622332e-04	1.222875832e-11
-2.300000000e-02	2.321459674e-01	-1.239060449e-04	2.028550006e-11
-2.310000000e-02	2.321459596e-01	-1.215498571e-04	2.598427050e-11
-2.320000000e-02	2.321459517e-01	-1.191936697e-04	8.151582733e-12
-2.330000000e-02	2.321459438e-01	-1.168374829e-04	1.112362158e-11
-2.340000000e-02	2.321459358e-01	-1.144812965e-04	1.006050261e-11
-2.350000000e-02	2.321459277e-01	-1.121251106e-04	1.208185819e-11
-2.360000000e-02	2.321459196e-01	-1.097689252e-04	5.691812960e-12
-2.370000000e-02	2.321459113e-01	-1.074127403e-04	1.068034425e-11
-2.380000000e-02	2.321459030e-01	-1.050565558e-04	1.078753945e-11
-2.390000000e-02	2.321458947e-01	-1.027003719e-04	3.402321172e-11
-2.400000000e-02	2.321458862e-01	-1.003441885e-04	1.705507757e-11
-2.410000000e-02	2.321458777e-01	-9.798800561e-05	7.252013829e-12
-2.420000000e-02	2.321458691e-01	-9.563182321e-05	7.582189294e-12
-2.430000000e-02	2.321458605e-01	-9.327564133e-05	2.204688296e-11
-2.440000000e-02	2.321458518e-01	-9.091945996e-05	1.231113148e-11
-2.450000000e-02	2.321458430e-01	-8.856327912e-05	1.548970606e-11
-2.460000000e-02	2.321458341e-01	-8.620709880e-05	1.213169206e-11
-2.470000000e-02	2.321458252e-01	-8.385091901e-05	8.774033362e-12
-2.480000000e-02	2.321458161e-01	-8.149473975e-05	2.565666639e-11
-2.490000000e-02	2.321458071e-01	-7.913856103e-05	1.414093648e-11
-2.500000000e-02	2.321457979e-01	-7.678238285e-05	5.288181034e-12
-2.510000000e-02	2.321457887e-01	-7.442620521e-05	1.329529943e-11
-2.520000000e-02	2.321457794e-01	-7.207002811e-05	1.653104208e-11
-2.530000000e-02	2.321457700e-01	-6.971385157e-05	1.352004550e-11
-2.540000000e-02	2.321457606e-01	-6.735767559e-05	1.838879708e-11
-2.550000000e-02	2.321457511e-01	-6.500150016e-05	8.478007062e-12
-2.560000000e-02	2.321457415e-01	-6.264532529e-05	5.631399582e-12
-2.570000000e-02	2.321457318e-01	-6.028915099e-05	1.080173415e-11
-2.580000000e-02	2.321457221e-01	-5.793297725e-05	7.967832202e-12
-2.590000000e-02	2.321457123e-01	-5.557680409e-05	1.427621002e-11
-2.600000000e-02	2.321457024e-01	-5.322063151e-05	1.707306934e-11
-2.610000000e-02	2.321456925e-01	-5.086445950e-05	1.777436204e-11
-2.620000000e-02	2.321456825e-01	-4.850828808e-05	1.638256416e-11
-2.630000000e-02	2.321456724e-01	-4.615211725e-05	7.938503904e-11
-2.640000000e-02	2.321456622e-01	-4.379594700e-05	7.876285392e-12
-2.650000000e-02	2.321456520e-01	-4.143977735e-05	1.055600601e-11
-2.660000000e-02	2.321456417e-01	-3.908360830e-05	1.682730975e-11
-2.670000000e-02	2.321456313e-01	-3.672743985e-05	2.689922522e-11
-2.680000000e-02	2.321456209e-01	-3.437127200e-05	1.774469930e-11
-2.690000000e-02	2.321456103e-01	-3.201510476e-05	1.427483499e-11
-2.700000000e-02	2.321455997e-01	-2.965893814e-05	1.080539030e-11
-2.710000000e-02	2.321455891e-01	-2.730277213e-05	9.044431439e-12
-2.720000000e-02	2.321455784e-01	-2.494660674e-05	1.716190497e-11
-2.730000000e-02	2.321455675e-01	-2.259044198e-05	1.212005055e-11
-2.740000000e-02	2.321455567e-01	-2.023427784e-05	1.644719644e-11
-2.750000000e-02	2.321455457e-01	-1.787811433e-05	1.103188441e-11
-2.760000000e-02	2.321455347e-01	-1.552195146e-05	1.361616156e-11
-2.770000000e-02	2.321455236e-01	-1.316578922e-05	1.803485466e-11
-2.780000000e-02	2.321455124e-01	-1.080962763e-05	1.384239132e-11
-2.790000000e-02	2.321455012e-01	-8.453466676e-06	1.377582364e-11
-2.800000000e-02	2.321454899e-01	-6.097306374e-06	5.627627276e-12
-2.810000000e-02	2.321454785e-01	-3.741146726e-06	5.030245853e-12
-2.820000000e-02	2.321454671e-01	-1.384987734e-06	1.552075505e-11
-2.830000000e-02	2.321454556e-01	9.711705993e-07	1.017380980e-11
-2.840000000e-02	2.321454440e-01	3.327328269e-06	5.816467704e-12
-2.850000000e-02	2.321454323e-01	5.683485272e-06	2.747503023e-12
-2.860000000e-02	2.321454206e-01	8.039641603e-06	9.985806283e-12
-2.870000000e-02	2.321454088e-01	1.039579726e-05	7.650167919e-12
-2.880000000e-02	2.321453969e-01	1.275195224e-05	8.125737851e-12
-2.890000000e-02	2.321453849e-01	1.510810654e-05	1.561389051e-11
-2.900000000e-02	2.321453729e-01	1.746426015e-05	2.304406360e-11
-2.910000000e-02	2.321453608e-01	1.982041308e-05	8.256575842e-12
-2.920000000e-02	2.321453486e-01	2.217656531e-05	1.281045520e-11
-2.930000000e-02	2.321453364e-01	2.453271685e-05	1.503181563e-11
-2.940000000e-02	2.321453241e-01	2.688886768e-05	1.441597834e-11
-2.950000000e-02	2.321453117e-01	2.924501782e-05	1.001142742e-11
-2.960000000e-02	2.321452993e-01	3.160116724e-05	1.459052097e-11
-2.970000000e-02	2.321452867e-01	3.395731596e-05	9.141405716e-12
-2.980000000e-02	2.321452741e-01	3.631346396e-05	8.394129555e-12
-2.990000000e-02	2.321452615e-01	3.866961124e-05	1.877201742e-11
-3.000000000e-02	2.321452487e-01	4.102575781e-05	1.798935230e-11
