# Im(epsi1)     Re(omega/c)      Im(omega/c)      Eq(det).Opt det CON kz, R=0.5 \mum, mu_c=0.3, Re(epsi1)=3.90solve_det_conkz_vs_kz.py
0.000000000e+00	2.321665505e-01	-6.659110552e-04	2.379139362e-11
-1.000000000e-04	2.321665592e-01	-6.635547057e-04	2.288781603e-11
-2.000000000e-04	2.321665678e-01	-6.611983559e-04	4.154925198e-12
-3.000000000e-04	2.321665764e-01	-6.588420057e-04	1.135399075e-11
-4.000000000e-04	2.321665849e-01	-6.564856551e-04	1.283224387e-11
-5.000000000e-04	2.321665933e-01	-6.541293042e-04	1.717980755e-11
-6.000000000e-04	2.321666016e-01	-6.517729529e-04	9.954993503e-12
-7.000000000e-04	2.321666099e-01	-6.494166013e-04	1.221469928e-11
-8.000000000e-04	2.321666181e-01	-6.470602493e-04	7.232309344e-12
-9.000000000e-04	2.321666262e-01	-6.447038971e-04	9.503075934e-12
-1.000000000e-03	2.321666343e-01	-6.423475444e-04	4.442006164e-11
-1.100000000e-03	2.321666423e-01	-6.399911915e-04	5.954122743e-12
-1.200000000e-03	2.321666502e-01	-6.376348382e-04	5.038403371e-12
-1.300000000e-03	2.321666580e-01	-6.352784846e-04	1.488260181e-11
-1.400000000e-03	2.321666658e-01	-6.329221307e-04	1.303065566e-11
-1.500000000e-03	2.321666735e-01	-6.305657765e-04	1.999660457e-11
-1.600000000e-03	2.321666811e-01	-6.282094219e-04	5.155435700e-11
-1.700000000e-03	2.321666887e-01	-6.258530671e-04	1.231808261e-11
-1.800000000e-03	2.321666962e-01	-6.234967119e-04	1.420535596e-11
-1.900000000e-03	2.321667036e-01	-6.211403565e-04	1.766419000e-11
-2.000000000e-03	2.321667109e-01	-6.187840007e-04	2.376055867e-11
-2.100000000e-03	2.321667182e-01	-6.164276447e-04	1.331222048e-11
-2.200000000e-03	2.321667254e-01	-6.140712883e-04	4.670257314e-11
-2.300000000e-03	2.321667325e-01	-6.117149317e-04	5.471098852e-11
-2.400000000e-03	2.321667396e-01	-6.093585748e-04	1.185439498e-11
-2.500000000e-03	2.321667465e-01	-6.070022176e-04	3.388223178e-11
-2.600000000e-03	2.321667534e-01	-6.046458602e-04	2.411986432e-11
-2.700000000e-03	2.321667603e-01	-6.022895025e-04	4.507294620e-11
-2.800000000e-03	2.321667670e-01	-5.999331445e-04	9.189721416e-12
-2.900000000e-03	2.321667737e-01	-5.975767862e-04	2.590341244e-11
-3.000000000e-03	2.321667804e-01	-5.952204277e-04	9.967712848e-12
-3.100000000e-03	2.321667869e-01	-5.928640689e-04	7.712714317e-12
-3.200000000e-03	2.321667934e-01	-5.905077099e-04	1.020537617e-11
-3.300000000e-03	2.321667998e-01	-5.881513506e-04	1.569232658e-11
-3.400000000e-03	2.321668061e-01	-5.857949911e-04	6.519073804e-12
-3.500000000e-03	2.321668124e-01	-5.834386313e-04	3.725054845e-12
-3.600000000e-03	2.321668186e-01	-5.810822713e-04	2.396761802e-11
-3.700000000e-03	2.321668247e-01	-5.787259111e-04	3.555859620e-12
-3.800000000e-03	2.321668308e-01	-5.763695506e-04	1.195374254e-11
-3.900000000e-03	2.321668367e-01	-5.740131899e-04	1.396285403e-11
-4.000000000e-03	2.321668426e-01	-5.716568290e-04	4.758840440e-11
-4.100000000e-03	2.321668485e-01	-5.693004679e-04	1.684815633e-11
-4.200000000e-03	2.321668542e-01	-5.669441065e-04	1.835948967e-11
-4.300000000e-03	2.321668599e-01	-5.645877450e-04	1.186038855e-11
-4.400000000e-03	2.321668655e-01	-5.622313832e-04	7.087710672e-11
-4.500000000e-03	2.321668711e-01	-5.598750212e-04	7.699118634e-12
-4.600000000e-03	2.321668766e-01	-5.575186590e-04	5.033305689e-11
-4.700000000e-03	2.321668820e-01	-5.551622967e-04	3.476042733e-11
-4.800000000e-03	2.321668873e-01	-5.528059341e-04	1.679968060e-11
-4.900000000e-03	2.321668925e-01	-5.504495713e-04	2.058035406e-11
-5.000000000e-03	2.321668977e-01	-5.480932084e-04	1.149787229e-11
-5.100000000e-03	2.321669029e-01	-5.457368452e-04	1.566740144e-11
-5.200000000e-03	2.321669079e-01	-5.433804819e-04	2.191084817e-11
-5.300000000e-03	2.321669129e-01	-5.410241184e-04	1.756909546e-12
-5.400000000e-03	2.321669178e-01	-5.386677547e-04	9.422340455e-12
-5.500000000e-03	2.321669226e-01	-5.363113909e-04	8.749601403e-12
-5.600000000e-03	2.321669274e-01	-5.339550269e-04	5.111438869e-12
-5.700000000e-03	2.321669320e-01	-5.315986627e-04	1.237158265e-11
-5.800000000e-03	2.321669367e-01	-5.292422984e-04	8.246274079e-12
-5.900000000e-03	2.321669412e-01	-5.268859339e-04	6.248744733e-12
-6.000000000e-03	2.321669457e-01	-5.245295693e-04	2.042827709e-11
-6.100000000e-03	2.321669501e-01	-5.221732045e-04	1.986768354e-11
-6.200000000e-03	2.321669544e-01	-5.198168396e-04	2.036961360e-11
-6.300000000e-03	2.321669586e-01	-5.174604745e-04	2.619756425e-11
-6.400000000e-03	2.321669628e-01	-5.151041093e-04	1.558504715e-11
-6.500000000e-03	2.321669669e-01	-5.127477440e-04	1.536488067e-12
-6.600000000e-03	2.321669710e-01	-5.103913785e-04	1.748520003e-11
-6.700000000e-03	2.321669750e-01	-5.080350130e-04	6.427985838e-12
-6.800000000e-03	2.321669788e-01	-5.056786473e-04	2.326610737e-11
-6.900000000e-03	2.321669827e-01	-5.033222814e-04	1.981990870e-11
-7.000000000e-03	2.321669864e-01	-5.009659155e-04	9.607214658e-12
-7.100000000e-03	2.321669901e-01	-4.986095494e-04	1.416435615e-11
-7.200000000e-03	2.321669937e-01	-4.962531833e-04	1.384488888e-11
-7.300000000e-03	2.321669973e-01	-4.938968170e-04	3.537950759e-12
-7.400000000e-03	2.321670007e-01	-4.915404507e-04	8.660193433e-12
-7.500000000e-03	2.321670041e-01	-4.891840842e-04	1.473388314e-11
-7.600000000e-03	2.321670074e-01	-4.868277176e-04	1.628420935e-11
-7.700000000e-03	2.321670107e-01	-4.844713510e-04	1.585744230e-11
-7.800000000e-03	2.321670139e-01	-4.821149843e-04	1.422115706e-11
-7.900000000e-03	2.321670170e-01	-4.797586175e-04	1.722548080e-11
-8.000000000e-03	2.321670200e-01	-4.774022506e-04	5.680715832e-12
-8.100000000e-03	2.321670230e-01	-4.750458836e-04	2.191416339e-11
-8.200000000e-03	2.321670259e-01	-4.726895166e-04	2.161149464e-11
-8.300000000e-03	2.321670287e-01	-4.703331495e-04	1.399540890e-11
-8.400000000e-03	2.321670314e-01	-4.679767823e-04	2.267046460e-11
-8.500000000e-03	2.321670341e-01	-4.656204151e-04	1.669961375e-11
-8.600000000e-03	2.321670367e-01	-4.632640478e-04	1.878959947e-11
-8.700000000e-03	2.321670393e-01	-4.609076805e-04	1.792897490e-11
-8.800000000e-03	2.321670417e-01	-4.585513131e-04	1.036174516e-11
-8.900000000e-03	2.321670441e-01	-4.561949457e-04	8.311061948e-12
-9.000000000e-03	2.321670464e-01	-4.538385782e-04	1.706851465e-11
-9.100000000e-03	2.321670487e-01	-4.514822107e-04	3.308577099e-11
-9.200000000e-03	2.321670509e-01	-4.491258431e-04	2.123025971e-11
-9.300000000e-03	2.321670530e-01	-4.467694756e-04	6.283392274e-12
-9.400000000e-03	2.321670550e-01	-4.444131080e-04	2.383698247e-11
-9.500000000e-03	2.321670570e-01	-4.420567403e-04	1.655949540e-11
-9.600000000e-03	2.321670588e-01	-4.397003727e-04	1.651809329e-11
-9.700000000e-03	2.321670607e-01	-4.373440050e-04	6.505150833e-11
-9.800000000e-03	2.321670624e-01	-4.349876373e-04	4.414263984e-11
-9.900000000e-03	2.321670641e-01	-4.326312697e-04	1.159353716e-11
-1.000000000e-02	2.321670657e-01	-4.302749020e-04	1.330657995e-11
-1.010000000e-02	2.321670672e-01	-4.279185343e-04	4.587798280e-12
-1.020000000e-02	2.321670687e-01	-4.255621666e-04	3.166679344e-11
-1.030000000e-02	2.321670701e-01	-4.232057989e-04	5.832201672e-12
-1.040000000e-02	2.321670714e-01	-4.208494312e-04	1.477883211e-11
-1.050000000e-02	2.321670726e-01	-4.184930636e-04	1.593212135e-11
-1.060000000e-02	2.321670738e-01	-4.161366959e-04	8.295653508e-12
-1.070000000e-02	2.321670749e-01	-4.137803283e-04	5.562277942e-12
-1.080000000e-02	2.321670759e-01	-4.114239607e-04	9.901264695e-12
-1.090000000e-02	2.321670769e-01	-4.090675931e-04	6.300014610e-12
-1.100000000e-02	2.321670778e-01	-4.067112255e-04	1.224481404e-11
-1.110000000e-02	2.321670786e-01	-4.043548580e-04	1.219637675e-11
-1.120000000e-02	2.321670793e-01	-4.019984906e-04	1.308350763e-11
-1.130000000e-02	2.321670800e-01	-3.996421231e-04	2.083918758e-11
-1.140000000e-02	2.321670806e-01	-3.972857557e-04	6.837304587e-11
-1.150000000e-02	2.321670811e-01	-3.949293884e-04	3.804945242e-12
-1.160000000e-02	2.321670816e-01	-3.925730211e-04	1.497823727e-11
-1.170000000e-02	2.321670819e-01	-3.902166539e-04	1.029402867e-11
-1.180000000e-02	2.321670823e-01	-3.878602867e-04	1.262954403e-11
-1.190000000e-02	2.321670825e-01	-3.855039196e-04	3.079584135e-12
-1.200000000e-02	2.321670827e-01	-3.831475526e-04	8.372533982e-12
-1.210000000e-02	2.321670828e-01	-3.807911856e-04	7.828600374e-12
-1.220000000e-02	2.321670828e-01	-3.784348187e-04	8.904352519e-12
-1.230000000e-02	2.321670827e-01	-3.760784519e-04	1.990021740e-11
-1.240000000e-02	2.321670826e-01	-3.737220851e-04	5.833092565e-12
-1.250000000e-02	2.321670824e-01	-3.713657185e-04	2.334612809e-11
-1.260000000e-02	2.321670822e-01	-3.690093519e-04	2.321194561e-11
-1.270000000e-02	2.321670818e-01	-3.666529855e-04	8.320057791e-12
-1.280000000e-02	2.321670814e-01	-3.642966191e-04	9.167482681e-12
-1.290000000e-02	2.321670809e-01	-3.619402528e-04	3.966281196e-11
-1.300000000e-02	2.321670804e-01	-3.595838866e-04	8.571188168e-12
-1.310000000e-02	2.321670798e-01	-3.572275206e-04	1.440174926e-11
-1.320000000e-02	2.321670791e-01	-3.548711546e-04	3.600938478e-11
-1.330000000e-02	2.321670783e-01	-3.525147888e-04	9.097488439e-12
-1.340000000e-02	2.321670775e-01	-3.501584231e-04	1.374015773e-11
-1.350000000e-02	2.321670766e-01	-3.478020575e-04	8.906686441e-12
-1.360000000e-02	2.321670756e-01	-3.454456920e-04	2.577300445e-11
-1.370000000e-02	2.321670745e-01	-3.430893266e-04	3.330668176e-11
-1.380000000e-02	2.321670734e-01	-3.407329614e-04	4.536372939e-12
-1.390000000e-02	2.321670722e-01	-3.383765964e-04	3.683703005e-11
-1.400000000e-02	2.321670710e-01	-3.360202314e-04	8.005674188e-12
-1.410000000e-02	2.321670696e-01	-3.336638666e-04	4.460106903e-12
-1.420000000e-02	2.321670682e-01	-3.313075020e-04	2.621263300e-11
-1.430000000e-02	2.321670667e-01	-3.289511375e-04	1.146145512e-10
-1.440000000e-02	2.321670652e-01	-3.265947731e-04	8.574235395e-12
-1.450000000e-02	2.321670635e-01	-3.242384090e-04	2.719983005e-11
-1.460000000e-02	2.321670618e-01	-3.218820449e-04	1.320397028e-11
-1.470000000e-02	2.321670601e-01	-3.195256811e-04	7.487138466e-11
-1.480000000e-02	2.321670582e-01	-3.171693174e-04	1.263117787e-11
-1.490000000e-02	2.321670563e-01	-3.148129539e-04	1.346623359e-11
-1.500000000e-02	2.321670543e-01	-3.124565905e-04	4.293578737e-12
-1.510000000e-02	2.321670523e-01	-3.101002274e-04	4.004376290e-11
-1.520000000e-02	2.321670502e-01	-3.077438644e-04	2.955101890e-11
-1.530000000e-02	2.321670480e-01	-3.053875016e-04	2.712666685e-11
-1.540000000e-02	2.321670457e-01	-3.030311390e-04	9.984618004e-12
-1.550000000e-02	2.321670434e-01	-3.006747766e-04	2.272819495e-11
-1.560000000e-02	2.321670409e-01	-2.983184144e-04	2.383570738e-11
-1.570000000e-02	2.321670385e-01	-2.959620524e-04	1.143009588e-11
-1.580000000e-02	2.321670359e-01	-2.936056906e-04	1.028727905e-13
-1.590000000e-02	2.321670333e-01	-2.912493290e-04	8.298607835e-12
-1.600000000e-02	2.321670306e-01	-2.888929676e-04	2.490145119e-11
-1.610000000e-02	2.321670278e-01	-2.865366065e-04	1.632449196e-11
-1.620000000e-02	2.321670249e-01	-2.841802455e-04	7.191230866e-12
-1.630000000e-02	2.321670220e-01	-2.818238848e-04	1.757906034e-11
-1.640000000e-02	2.321670190e-01	-2.794675243e-04	2.195008837e-11
-1.650000000e-02	2.321670160e-01	-2.771111641e-04	1.001891830e-11
-1.660000000e-02	2.321670129e-01	-2.747548040e-04	2.113037471e-11
-1.670000000e-02	2.321670097e-01	-2.723984442e-04	1.297957928e-11
-1.680000000e-02	2.321670064e-01	-2.700420847e-04	1.438582520e-11
-1.690000000e-02	2.321670030e-01	-2.676857254e-04	1.083171938e-11
-1.700000000e-02	2.321669996e-01	-2.653293663e-04	1.038498898e-11
-1.710000000e-02	2.321669961e-01	-2.629730075e-04	1.410693372e-11
-1.720000000e-02	2.321669926e-01	-2.606166490e-04	2.483911039e-11
-1.730000000e-02	2.321669889e-01	-2.582602907e-04	3.693739633e-11
-1.740000000e-02	2.321669852e-01	-2.559039327e-04	1.395017431e-11
-1.750000000e-02	2.321669814e-01	-2.535475749e-04	3.184581004e-11
-1.760000000e-02	2.321669776e-01	-2.511912175e-04	5.535944069e-12
-1.770000000e-02	2.321669737e-01	-2.488348602e-04	8.832766525e-12
-1.780000000e-02	2.321669697e-01	-2.464785033e-04	8.773386090e-12
-1.790000000e-02	2.321669656e-01	-2.441221467e-04	3.248897751e-11
-1.800000000e-02	2.321669615e-01	-2.417657903e-04	1.761778513e-11
-1.810000000e-02	2.321669573e-01	-2.394094342e-04	2.333634626e-11
-1.820000000e-02	2.321669530e-01	-2.370530784e-04	2.332497618e-11
-1.830000000e-02	2.321669487e-01	-2.346967230e-04	7.704977169e-12
-1.840000000e-02	2.321669442e-01	-2.323403678e-04	1.268500626e-11
-1.850000000e-02	2.321669397e-01	-2.299840129e-04	9.017572644e-12
-1.860000000e-02	2.321669352e-01	-2.276276583e-04	9.667316928e-12
-1.870000000e-02	2.321669305e-01	-2.252713040e-04	1.241790181e-11
-1.880000000e-02	2.321669258e-01	-2.229149501e-04	1.674240023e-11
-1.890000000e-02	2.321669211e-01	-2.205585964e-04	2.216521084e-11
-1.900000000e-02	2.321669162e-01	-2.182022431e-04	1.545292063e-11
-1.910000000e-02	2.321669113e-01	-2.158458901e-04	9.998485748e-12
-1.920000000e-02	2.321669063e-01	-2.134895375e-04	6.842014035e-12
-1.930000000e-02	2.321669012e-01	-2.111331852e-04	1.340875385e-11
-1.940000000e-02	2.321668961e-01	-2.087768332e-04	1.823390774e-11
-1.950000000e-02	2.321668909e-01	-2.064204815e-04	4.407535051e-11
-1.960000000e-02	2.321668856e-01	-2.040641302e-04	1.540704806e-11
-1.970000000e-02	2.321668802e-01	-2.017077793e-04	3.156390743e-11
-1.980000000e-02	2.321668748e-01	-1.993514286e-04	2.747823895e-11
-1.990000000e-02	2.321668693e-01	-1.969950784e-04	1.464456606e-11
-2.000000000e-02	2.321668637e-01	-1.946387285e-04	3.937472209e-11
-2.010000000e-02	2.321668581e-01	-1.922823790e-04	1.807814491e-11
-2.020000000e-02	2.321668524e-01	-1.899260298e-04	7.621027478e-12
-2.030000000e-02	2.321668466e-01	-1.875696810e-04	1.138645572e-11
-2.040000000e-02	2.321668407e-01	-1.852133326e-04	1.109645231e-11
-2.050000000e-02	2.321668348e-01	-1.828569845e-04	1.900468743e-11
-2.060000000e-02	2.321668288e-01	-1.805006368e-04	1.923365664e-11
-2.070000000e-02	2.321668227e-01	-1.781442895e-04	3.952095485e-11
-2.080000000e-02	2.321668166e-01	-1.757879426e-04	7.761081682e-12
-2.090000000e-02	2.321668104e-01	-1.734315961e-04	2.971142991e-11
-2.100000000e-02	2.321668041e-01	-1.710752500e-04	1.762382450e-11
-2.110000000e-02	2.321667977e-01	-1.687189043e-04	7.226154537e-10
-2.120000000e-02	2.321667913e-01	-1.663625590e-04	2.557664765e-11
-2.130000000e-02	2.321667848e-01	-1.640062140e-04	1.227214885e-11
-2.140000000e-02	2.321667782e-01	-1.616498695e-04	1.033599201e-11
-2.150000000e-02	2.321667716e-01	-1.592935254e-04	1.399249789e-11
-2.160000000e-02	2.321667649e-01	-1.569371818e-04	6.476944041e-12
-2.170000000e-02	2.321667581e-01	-1.545808385e-04	7.382240018e-12
-2.180000000e-02	2.321667512e-01	-1.522244957e-04	1.785965646e-11
-2.190000000e-02	2.321667443e-01	-1.498681533e-04	1.549857868e-11
-2.200000000e-02	2.321667373e-01	-1.475118113e-04	1.860350788e-11
-2.210000000e-02	2.321667302e-01	-1.451554697e-04	1.622695229e-11
-2.220000000e-02	2.321667231e-01	-1.427991286e-04	1.334279788e-11
-2.230000000e-02	2.321667159e-01	-1.404427880e-04	2.040159920e-11
-2.240000000e-02	2.321667086e-01	-1.380864478e-04	1.696632372e-11
-2.250000000e-02	2.321667012e-01	-1.357301080e-04	2.463766416e-11
-2.260000000e-02	2.321666938e-01	-1.333737687e-04	9.707940138e-12
-2.270000000e-02	2.321666863e-01	-1.310174298e-04	1.412582219e-11
-2.280000000e-02	2.321666787e-01	-1.286610914e-04	5.687360681e-12
-2.290000000e-02	2.321666710e-01	-1.263047535e-04	9.560538344e-11
-2.300000000e-02	2.321666633e-01	-1.239484160e-04	1.126484890e-11
-2.310000000e-02	2.321666555e-01	-1.215920790e-04	1.836087235e-11
-2.320000000e-02	2.321666477e-01	-1.192357425e-04	5.074676768e-12
-2.330000000e-02	2.321666397e-01	-1.168794064e-04	9.900453750e-12
-2.340000000e-02	2.321666317e-01	-1.145230709e-04	4.949163533e-11
-2.350000000e-02	2.321666236e-01	-1.121667358e-04	1.613785813e-11
-2.360000000e-02	2.321666155e-01	-1.098104012e-04	2.533918408e-11
-2.370000000e-02	2.321666073e-01	-1.074540671e-04	9.249464887e-12
-2.380000000e-02	2.321665990e-01	-1.050977335e-04	1.122470167e-11
-2.390000000e-02	2.321665906e-01	-1.027414004e-04	4.873483175e-12
-2.400000000e-02	2.321665822e-01	-1.003850678e-04	1.400117561e-11
-2.410000000e-02	2.321665737e-01	-9.802873569e-05	1.709521792e-11
-2.420000000e-02	2.321665651e-01	-9.567240411e-05	1.174216385e-11
-2.430000000e-02	2.321665564e-01	-9.331607304e-05	2.391424182e-11
-2.440000000e-02	2.321665477e-01	-9.095974249e-05	1.403284737e-11
-2.450000000e-02	2.321665389e-01	-8.860341246e-05	1.495769691e-11
-2.460000000e-02	2.321665300e-01	-8.624708295e-05	1.787759948e-11
-2.470000000e-02	2.321665211e-01	-8.389075397e-05	6.834674692e-12
-2.480000000e-02	2.321665121e-01	-8.153442553e-05	1.781350618e-11
-2.490000000e-02	2.321665030e-01	-7.917809762e-05	1.509240951e-11
-2.500000000e-02	2.321664938e-01	-7.682177025e-05	1.411498271e-11
-2.510000000e-02	2.321664846e-01	-7.446544343e-05	2.254407945e-11
-2.520000000e-02	2.321664753e-01	-7.210911715e-05	3.062523946e-11
-2.530000000e-02	2.321664660e-01	-6.975279142e-05	1.219852992e-11
-2.540000000e-02	2.321664565e-01	-6.739646625e-05	1.278433398e-11
-2.550000000e-02	2.321664470e-01	-6.504014164e-05	2.651841812e-11
-2.560000000e-02	2.321664374e-01	-6.268381758e-05	5.553474987e-11
-2.570000000e-02	2.321664278e-01	-6.032749409e-05	8.047932342e-12
-2.580000000e-02	2.321664180e-01	-5.797117117e-05	1.330132369e-11
-2.590000000e-02	2.321664082e-01	-5.561484883e-05	6.919723579e-11
-2.600000000e-02	2.321663984e-01	-5.325852705e-05	1.405178756e-11
-2.610000000e-02	2.321663884e-01	-5.090220586e-05	1.833364284e-11
-2.620000000e-02	2.321663784e-01	-4.854588525e-05	1.812430114e-11
-2.630000000e-02	2.321663683e-01	-4.618956523e-05	2.936276855e-11
-2.640000000e-02	2.321663582e-01	-4.383324580e-05	1.379748542e-11
-2.650000000e-02	2.321663479e-01	-4.147692696e-05	1.799654448e-11
-2.660000000e-02	2.321663376e-01	-3.912060872e-05	1.220151204e-11
-2.670000000e-02	2.321663272e-01	-3.676429109e-05	1.162519910e-11
-2.680000000e-02	2.321663168e-01	-3.440797405e-05	7.147259768e-12
-2.690000000e-02	2.321663063e-01	-3.205165763e-05	9.406355912e-12
-2.700000000e-02	2.321662957e-01	-2.969534182e-05	1.492037988e-11
-2.710000000e-02	2.321662850e-01	-2.733902662e-05	1.069142339e-11
-2.720000000e-02	2.321662743e-01	-2.498271204e-05	1.297547430e-11
-2.730000000e-02	2.321662635e-01	-2.262639810e-05	4.163377955e-10
-2.740000000e-02	2.321662526e-01	-2.027008477e-05	8.933198914e-12
-2.750000000e-02	2.321662417e-01	-1.791377207e-05	1.355375673e-11
-2.760000000e-02	2.321662307e-01	-1.555746001e-05	1.406972790e-11
-2.770000000e-02	2.321662196e-01	-1.320114859e-05	7.893659100e-12
-2.780000000e-02	2.321662084e-01	-1.084483780e-05	1.271638512e-11
-2.790000000e-02	2.321661972e-01	-8.488527666e-06	1.974525979e-11
-2.800000000e-02	2.321661859e-01	-6.132218179e-06	1.085521161e-11
-2.810000000e-02	2.321661745e-01	-3.775909343e-06	2.875454570e-11
-2.820000000e-02	2.321661630e-01	-1.419601163e-06	1.712232246e-11
-2.830000000e-02	2.321661515e-01	9.367063574e-07	1.082643618e-11
-2.840000000e-02	2.321661399e-01	3.293013214e-06	2.134077284e-11
-2.850000000e-02	2.321661283e-01	5.649319405e-06	3.668587067e-12
-2.860000000e-02	2.321661165e-01	8.005624925e-06	1.300233037e-11
-2.870000000e-02	2.321661047e-01	1.036192977e-05	2.455519392e-11
-2.880000000e-02	2.321660928e-01	1.271823394e-05	8.953633252e-12
-2.890000000e-02	2.321660809e-01	1.507453742e-05	1.342970058e-11
-2.900000000e-02	2.321660689e-01	1.743084023e-05	6.191779583e-12
-2.910000000e-02	2.321660568e-01	1.978714234e-05	2.432027207e-11
-2.920000000e-02	2.321660446e-01	2.214344376e-05	2.100318106e-11
-2.930000000e-02	2.321660324e-01	2.449974448e-05	1.147562957e-11
-2.940000000e-02	2.321660201e-01	2.685604451e-05	3.231816927e-12
-2.950000000e-02	2.321660077e-01	2.921234383e-05	1.120276956e-11
-2.960000000e-02	2.321659952e-01	3.156864244e-05	1.347131936e-10
-2.970000000e-02	2.321659827e-01	3.392494035e-05	1.516474574e-11
-2.980000000e-02	2.321659701e-01	3.628123754e-05	1.860518044e-11
-2.990000000e-02	2.321659574e-01	3.863753401e-05	1.651672736e-11
-3.000000000e-02	2.321659447e-01	4.099382976e-05	6.064963335e-11
