# Im(epsi1)     Re(omega/c)      Im(omega/c)      Eq(det).Opt det CON kz, R=0.5 \mum, mu_c=0.3, Re(epsi1)=3.90solve_det_conkz_vs_kz.py
0.000000000e+00	2.321455856e-01	-6.658333748e-04	1.730036002e-11
-1.000000000e-04	2.321455943e-01	-6.634771765e-04	7.546346075e-12
-2.000000000e-04	2.321456029e-01	-6.611209777e-04	8.806203215e-12
-3.000000000e-04	2.321456115e-01	-6.587647786e-04	1.016517515e-11
-4.000000000e-04	2.321456199e-01	-6.564085792e-04	2.617661358e-11
-5.000000000e-04	2.321456284e-01	-6.540523794e-04	1.933861019e-11
-6.000000000e-04	2.321456367e-01	-6.516961792e-04	4.775929382e-12
-7.000000000e-04	2.321456450e-01	-6.493399787e-04	8.204924175e-12
-8.000000000e-04	2.321456532e-01	-6.469837779e-04	1.070912892e-11
-9.000000000e-04	2.321456613e-01	-6.446275767e-04	1.151933027e-11
-1.000000000e-03	2.321456693e-01	-6.422713752e-04	1.150102606e-11
-1.100000000e-03	2.321456773e-01	-6.399151733e-04	9.068340942e-12
-1.200000000e-03	2.321456852e-01	-6.375589712e-04	1.429641921e-11
-1.300000000e-03	2.321456931e-01	-6.352027687e-04	8.621379136e-12
-1.400000000e-03	2.321457008e-01	-6.328465659e-04	5.163084875e-12
-1.500000000e-03	2.321457085e-01	-6.304903628e-04	1.006034996e-11
-1.600000000e-03	2.321457162e-01	-6.281341594e-04	5.411222196e-11
-1.700000000e-03	2.321457237e-01	-6.257779556e-04	1.391315460e-11
-1.800000000e-03	2.321457312e-01	-6.234217516e-04	2.545878065e-11
-1.900000000e-03	2.321457386e-01	-6.210655473e-04	5.785733281e-12
-2.000000000e-03	2.321457459e-01	-6.187093426e-04	3.600384672e-11
-2.100000000e-03	2.321457532e-01	-6.163531377e-04	2.544841106e-11
-2.200000000e-03	2.321457604e-01	-6.139969325e-04	1.104339211e-11
-2.300000000e-03	2.321457675e-01	-6.116407270e-04	1.873051015e-11
-2.400000000e-03	2.321457746e-01	-6.092845212e-04	2.020022034e-11
-2.500000000e-03	2.321457816e-01	-6.069283151e-04	6.413441154e-12
-2.600000000e-03	2.321457885e-01	-6.045721088e-04	8.923119926e-12
-2.700000000e-03	2.321457953e-01	-6.022159022e-04	1.247013884e-11
-2.800000000e-03	2.321458021e-01	-5.998596953e-04	4.331443160e-11
-2.900000000e-03	2.321458088e-01	-5.975034882e-04	1.158739996e-11
-3.000000000e-03	2.321458154e-01	-5.951472808e-04	1.266183634e-11
-3.100000000e-03	2.321458219e-01	-5.927910731e-04	3.939586338e-11
-3.200000000e-03	2.321458284e-01	-5.904348652e-04	6.716632094e-12
-3.300000000e-03	2.321458348e-01	-5.880786570e-04	1.234880214e-11
-3.400000000e-03	2.321458411e-01	-5.857224486e-04	1.129612889e-10
-3.500000000e-03	2.321458474e-01	-5.833662400e-04	9.209290862e-12
-3.600000000e-03	2.321458536e-01	-5.810100311e-04	4.004294731e-11
-3.700000000e-03	2.321458597e-01	-5.786538220e-04	8.255281929e-11
-3.800000000e-03	2.321458658e-01	-5.762976127e-04	5.052523826e-11
-3.900000000e-03	2.321458717e-01	-5.739414031e-04	2.678381808e-11
-4.000000000e-03	2.321458776e-01	-5.715851933e-04	9.960678827e-12
-4.100000000e-03	2.321458835e-01	-5.692289833e-04	1.183468785e-11
-4.200000000e-03	2.321458892e-01	-5.668727730e-04	1.413591836e-11
-4.300000000e-03	2.321458949e-01	-5.645165626e-04	7.973191684e-12
-4.400000000e-03	2.321459005e-01	-5.621603519e-04	1.041568372e-11
-4.500000000e-03	2.321459061e-01	-5.598041410e-04	9.408459886e-12
-4.600000000e-03	2.321459116e-01	-5.574479300e-04	3.966974009e-11
-4.700000000e-03	2.321459170e-01	-5.550917187e-04	2.452082816e-11
-4.800000000e-03	2.321459223e-01	-5.527355073e-04	1.293786995e-11
-4.900000000e-03	2.321459275e-01	-5.503792956e-04	6.069279930e-11
-5.000000000e-03	2.321459327e-01	-5.480230838e-04	2.625001747e-11
-5.100000000e-03	2.321459378e-01	-5.456668717e-04	2.313295701e-11
-5.200000000e-03	2.321459429e-01	-5.433106596e-04	6.238635595e-11
-5.300000000e-03	2.321459479e-01	-5.409544472e-04	9.742902118e-12
-5.400000000e-03	2.321459528e-01	-5.385982346e-04	9.407333098e-12
-5.500000000e-03	2.321459576e-01	-5.362420219e-04	9.364109450e-12
-5.600000000e-03	2.321459623e-01	-5.338858090e-04	1.329148736e-11
-5.700000000e-03	2.321459670e-01	-5.315295960e-04	1.631067211e-11
-5.800000000e-03	2.321459716e-01	-5.291733828e-04	8.632432734e-12
-5.900000000e-03	2.321459762e-01	-5.268171694e-04	7.358329885e-12
-6.000000000e-03	2.321459806e-01	-5.244609559e-04	1.396688062e-11
-6.100000000e-03	2.321459850e-01	-5.221047422e-04	6.778940554e-12
-6.200000000e-03	2.321459894e-01	-5.197485284e-04	1.566059921e-11
-6.300000000e-03	2.321459936e-01	-5.173923145e-04	1.605482639e-11
-6.400000000e-03	2.321459978e-01	-5.150361004e-04	1.321599708e-11
-6.500000000e-03	2.321460019e-01	-5.126798862e-04	1.180590684e-11
-6.600000000e-03	2.321460060e-01	-5.103236719e-04	5.063908355e-11
-6.700000000e-03	2.321460099e-01	-5.079674574e-04	8.129569743e-12
-6.800000000e-03	2.321460138e-01	-5.056112428e-04	9.618976033e-11
-6.900000000e-03	2.321460176e-01	-5.032550281e-04	1.036327300e-11
-7.000000000e-03	2.321460214e-01	-5.008988133e-04	1.173998439e-11
-7.100000000e-03	2.321460251e-01	-4.985425983e-04	1.767589355e-11
-7.200000000e-03	2.321460287e-01	-4.961863833e-04	2.402740034e-11
-7.300000000e-03	2.321460322e-01	-4.938301682e-04	4.715483190e-11
-7.400000000e-03	2.321460357e-01	-4.914739529e-04	8.116315286e-12
-7.500000000e-03	2.321460391e-01	-4.891177376e-04	6.678489751e-11
-7.600000000e-03	2.321460424e-01	-4.867615221e-04	1.614399025e-11
-7.700000000e-03	2.321460456e-01	-4.844053066e-04	5.117483500e-11
-7.800000000e-03	2.321460488e-01	-4.820490910e-04	1.278450843e-11
-7.900000000e-03	2.321460519e-01	-4.796928753e-04	2.373823649e-11
-8.000000000e-03	2.321460550e-01	-4.773366596e-04	1.768025802e-11
-8.100000000e-03	2.321460579e-01	-4.749804437e-04	1.538962654e-11
-8.200000000e-03	2.321460608e-01	-4.726242278e-04	2.044163419e-11
-8.300000000e-03	2.321460636e-01	-4.702680118e-04	3.387344829e-11
-8.400000000e-03	2.321460664e-01	-4.679117958e-04	4.483810228e-12
-8.500000000e-03	2.321460691e-01	-4.655555797e-04	1.145579466e-11
-8.600000000e-03	2.321460717e-01	-4.631993635e-04	1.582491764e-11
-8.700000000e-03	2.321460742e-01	-4.608431473e-04	5.272784324e-12
-8.800000000e-03	2.321460767e-01	-4.584869310e-04	7.499495907e-12
-8.900000000e-03	2.321460791e-01	-4.561307147e-04	5.455024294e-12
-9.000000000e-03	2.321460814e-01	-4.537744984e-04	9.224189474e-12
-9.100000000e-03	2.321460836e-01	-4.514182820e-04	1.579735956e-11
-9.200000000e-03	2.321460858e-01	-4.490620655e-04	4.940946545e-11
-9.300000000e-03	2.321460879e-01	-4.467058491e-04	9.680053533e-12
-9.400000000e-03	2.321460899e-01	-4.443496326e-04	1.093600323e-11
-9.500000000e-03	2.321460919e-01	-4.419934161e-04	1.086680899e-11
-9.600000000e-03	2.321460938e-01	-4.396371996e-04	9.474575430e-12
-9.700000000e-03	2.321460956e-01	-4.372809830e-04	1.421691296e-11
-9.800000000e-03	2.321460973e-01	-4.349247665e-04	1.626840401e-11
-9.900000000e-03	2.321460990e-01	-4.325685499e-04	6.555837017e-12
-1.000000000e-02	2.321461006e-01	-4.302123333e-04	1.443749708e-11
-1.010000000e-02	2.321461021e-01	-4.278561168e-04	2.662782135e-11
-1.020000000e-02	2.321461036e-01	-4.254999002e-04	8.801825183e-12
-1.030000000e-02	2.321461050e-01	-4.231436836e-04	2.401254032e-11
-1.040000000e-02	2.321461063e-01	-4.207874671e-04	1.452692399e-11
-1.050000000e-02	2.321461075e-01	-4.184312505e-04	1.529292887e-11
-1.060000000e-02	2.321461087e-01	-4.160750340e-04	1.300952736e-11
-1.070000000e-02	2.321461098e-01	-4.137188175e-04	8.000441924e-12
-1.080000000e-02	2.321461108e-01	-4.113626010e-04	8.186603488e-12
-1.090000000e-02	2.321461118e-01	-4.090063845e-04	1.403540851e-11
-1.100000000e-02	2.321461127e-01	-4.066501681e-04	8.905915446e-12
-1.110000000e-02	2.321461135e-01	-4.042939517e-04	5.631172883e-11
-1.120000000e-02	2.321461142e-01	-4.019377354e-04	1.350516035e-11
-1.130000000e-02	2.321461149e-01	-3.995815191e-04	1.220003851e-11
-1.140000000e-02	2.321461155e-01	-3.972253028e-04	1.368365884e-11
-1.150000000e-02	2.321461160e-01	-3.948690866e-04	1.466982988e-11
-1.160000000e-02	2.321461165e-01	-3.925128704e-04	9.948608546e-12
-1.170000000e-02	2.321461169e-01	-3.901566543e-04	1.433908240e-11
-1.180000000e-02	2.321461172e-01	-3.878004382e-04	1.036590556e-11
-1.190000000e-02	2.321461174e-01	-3.854442223e-04	6.589863174e-12
-1.200000000e-02	2.321461176e-01	-3.830880063e-04	8.124909973e-12
-1.210000000e-02	2.321461177e-01	-3.807317905e-04	2.898116081e-11
-1.220000000e-02	2.321461177e-01	-3.783755747e-04	1.409817487e-11
-1.230000000e-02	2.321461176e-01	-3.760193590e-04	8.906870893e-12
-1.240000000e-02	2.321461175e-01	-3.736631434e-04	1.448644908e-11
-1.250000000e-02	2.321461173e-01	-3.713069279e-04	1.207445430e-11
-1.260000000e-02	2.321461171e-01	-3.689507124e-04	1.312191394e-11
-1.270000000e-02	2.321461167e-01	-3.665944971e-04	9.626572965e-12
-1.280000000e-02	2.321461163e-01	-3.642382818e-04	7.270642385e-12
-1.290000000e-02	2.321461158e-01	-3.618820667e-04	1.070570489e-11
-1.300000000e-02	2.321461153e-01	-3.595258516e-04	1.369494242e-11
-1.310000000e-02	2.321461147e-01	-3.571696367e-04	4.293376778e-11
-1.320000000e-02	2.321461140e-01	-3.548134218e-04	9.392510020e-11
-1.330000000e-02	2.321461132e-01	-3.524572071e-04	1.405269408e-11
-1.340000000e-02	2.321461124e-01	-3.501009925e-04	1.437306598e-11
-1.350000000e-02	2.321461115e-01	-3.477447781e-04	2.298111663e-11
-1.360000000e-02	2.321461105e-01	-3.453885637e-04	2.218237717e-11
-1.370000000e-02	2.321461094e-01	-3.430323495e-04	9.109240918e-12
-1.380000000e-02	2.321461083e-01	-3.406761354e-04	9.903020578e-12
-1.390000000e-02	2.321461071e-01	-3.383199214e-04	7.514565173e-12
-1.400000000e-02	2.321461058e-01	-3.359637076e-04	2.157472339e-11
-1.410000000e-02	2.321461045e-01	-3.336074940e-04	3.352968018e-11
-1.420000000e-02	2.321461031e-01	-3.312512804e-04	1.998160431e-11
-1.430000000e-02	2.321461016e-01	-3.288950671e-04	1.732070865e-10
-1.440000000e-02	2.321461001e-01	-3.265388538e-04	3.049623156e-11
-1.450000000e-02	2.321460984e-01	-3.241826408e-04	1.962086044e-11
-1.460000000e-02	2.321460967e-01	-3.218264279e-04	1.276737474e-11
-1.470000000e-02	2.321460950e-01	-3.194702151e-04	2.852391658e-11
-1.480000000e-02	2.321460931e-01	-3.171140026e-04	3.916496072e-11
-1.490000000e-02	2.321460912e-01	-3.147577902e-04	1.695103522e-11
-1.500000000e-02	2.321460892e-01	-3.124015780e-04	6.727613622e-12
-1.510000000e-02	2.321460872e-01	-3.100453659e-04	2.458532045e-11
-1.520000000e-02	2.321460850e-01	-3.076891541e-04	8.848708086e-12
-1.530000000e-02	2.321460828e-01	-3.053329424e-04	2.019204806e-11
-1.540000000e-02	2.321460806e-01	-3.029767309e-04	7.735378360e-12
-1.550000000e-02	2.321460782e-01	-3.006205197e-04	1.260449694e-11
-1.560000000e-02	2.321460758e-01	-2.982643086e-04	1.583941709e-11
-1.570000000e-02	2.321460733e-01	-2.959080977e-04	9.066699258e-12
-1.580000000e-02	2.321460708e-01	-2.935518870e-04	5.636341035e-12
-1.590000000e-02	2.321460681e-01	-2.911956766e-04	1.193191088e-11
-1.600000000e-02	2.321460654e-01	-2.888394663e-04	2.116038859e-11
-1.610000000e-02	2.321460627e-01	-2.864832563e-04	2.966139340e-11
-1.620000000e-02	2.321460598e-01	-2.841270464e-04	3.304234037e-11
-1.630000000e-02	2.321460569e-01	-2.817708368e-04	3.125352463e-11
-1.640000000e-02	2.321460539e-01	-2.794146275e-04	1.305935358e-11
-1.650000000e-02	2.321460508e-01	-2.770584183e-04	8.718099830e-12
-1.660000000e-02	2.321460477e-01	-2.747022094e-04	1.790284520e-11
-1.670000000e-02	2.321460445e-01	-2.723460008e-04	6.349774100e-12
-1.680000000e-02	2.321460412e-01	-2.699897923e-04	1.669962126e-11
-1.690000000e-02	2.321460379e-01	-2.676335842e-04	1.185872875e-11
-1.700000000e-02	2.321460345e-01	-2.652773762e-04	6.718051309e-12
-1.710000000e-02	2.321460310e-01	-2.629211686e-04	9.729265037e-12
-1.720000000e-02	2.321460274e-01	-2.605649611e-04	7.619957643e-12
-1.730000000e-02	2.321460238e-01	-2.582087540e-04	3.205854749e-11
-1.740000000e-02	2.321460201e-01	-2.558525471e-04	7.822042992e-12
-1.750000000e-02	2.321460163e-01	-2.534963404e-04	9.650611116e-12
-1.760000000e-02	2.321460124e-01	-2.511401341e-04	8.432328188e-12
-1.770000000e-02	2.321460085e-01	-2.487839280e-04	1.064572014e-11
-1.780000000e-02	2.321460045e-01	-2.464277222e-04	4.829723089e-12
-1.790000000e-02	2.321460005e-01	-2.440715167e-04	1.040895926e-11
-1.800000000e-02	2.321459963e-01	-2.417153114e-04	1.291688386e-11
-1.810000000e-02	2.321459921e-01	-2.393591065e-04	8.457944135e-12
-1.820000000e-02	2.321459878e-01	-2.370029018e-04	1.184785708e-11
-1.830000000e-02	2.321459835e-01	-2.346466975e-04	9.559270424e-12
-1.840000000e-02	2.321459791e-01	-2.322904934e-04	2.445076980e-11
-1.850000000e-02	2.321459746e-01	-2.299342896e-04	1.116399227e-11
-1.860000000e-02	2.321459700e-01	-2.275780862e-04	1.233526959e-11
-1.870000000e-02	2.321459654e-01	-2.252218830e-04	7.885944017e-12
-1.880000000e-02	2.321459607e-01	-2.228656802e-04	9.772679788e-12
-1.890000000e-02	2.321459559e-01	-2.205094777e-04	1.289003533e-11
-1.900000000e-02	2.321459510e-01	-2.181532755e-04	5.000191210e-12
-1.910000000e-02	2.321459461e-01	-2.157970736e-04	4.031503413e-11
-1.920000000e-02	2.321459411e-01	-2.134408721e-04	1.340372109e-11
-1.930000000e-02	2.321459360e-01	-2.110846709e-04	3.265202772e-11
-1.940000000e-02	2.321459309e-01	-2.087284700e-04	1.050899940e-11
-1.950000000e-02	2.321459257e-01	-2.063722695e-04	8.867951623e-12
-1.960000000e-02	2.321459204e-01	-2.040160693e-04	7.386292313e-12
-1.970000000e-02	2.321459151e-01	-2.016598695e-04	2.250630030e-11
-1.980000000e-02	2.321459096e-01	-1.993036700e-04	8.792432431e-12
-1.990000000e-02	2.321459041e-01	-1.969474709e-04	1.109839123e-11
-2.000000000e-02	2.321458986e-01	-1.945912721e-04	5.649888777e-12
-2.010000000e-02	2.321458929e-01	-1.922350737e-04	1.076111221e-11
-2.020000000e-02	2.321458872e-01	-1.898788756e-04	5.011583113e-11
-2.030000000e-02	2.321458814e-01	-1.875226780e-04	1.701068754e-11
-2.040000000e-02	2.321458756e-01	-1.851664807e-04	1.413787237e-11
-2.050000000e-02	2.321458696e-01	-1.828102837e-04	9.487164837e-12
-2.060000000e-02	2.321458636e-01	-1.804540872e-04	3.532921492e-11
-2.070000000e-02	2.321458576e-01	-1.780978910e-04	2.564075684e-11
-2.080000000e-02	2.321458514e-01	-1.757416952e-04	1.904142869e-11
-2.090000000e-02	2.321458452e-01	-1.733854999e-04	1.092896349e-11
-2.100000000e-02	2.321458389e-01	-1.710293049e-04	1.303327474e-11
-2.110000000e-02	2.321458326e-01	-1.686731103e-04	5.857187523e-11
-2.120000000e-02	2.321458261e-01	-1.663169161e-04	1.050967547e-11
-2.130000000e-02	2.321458196e-01	-1.639607223e-04	2.413041282e-11
-2.140000000e-02	2.321458130e-01	-1.616045289e-04	1.278930342e-10
-2.150000000e-02	2.321458064e-01	-1.592483359e-04	9.337517188e-12
-2.160000000e-02	2.321457997e-01	-1.568921434e-04	1.889503244e-11
-2.170000000e-02	2.321457929e-01	-1.545359512e-04	1.451426126e-11
-2.180000000e-02	2.321457860e-01	-1.521797595e-04	2.630560159e-11
-2.190000000e-02	2.321457791e-01	-1.498235683e-04	1.680910735e-11
-2.200000000e-02	2.321457721e-01	-1.474673774e-04	3.601913287e-11
-2.210000000e-02	2.321457650e-01	-1.451111870e-04	7.422454925e-12
-2.220000000e-02	2.321457579e-01	-1.427549970e-04	1.203628087e-11
-2.230000000e-02	2.321457507e-01	-1.403988075e-04	1.785083428e-11
-2.240000000e-02	2.321457434e-01	-1.380426184e-04	1.244504627e-11
-2.250000000e-02	2.321457360e-01	-1.356864297e-04	4.010526179e-11
-2.260000000e-02	2.321457286e-01	-1.333302415e-04	3.147213751e-11
-2.270000000e-02	2.321457211e-01	-1.309740538e-04	4.067005536e-11
-2.280000000e-02	2.321457135e-01	-1.286178665e-04	1.268434219e-11
-2.290000000e-02	2.321457058e-01	-1.262616797e-04	1.851566717e-11
-2.300000000e-02	2.321456981e-01	-1.239054934e-04	1.024333714e-11
-2.310000000e-02	2.321456903e-01	-1.215493075e-04	7.381222694e-12
-2.320000000e-02	2.321456825e-01	-1.191931221e-04	4.202576631e-11
-2.330000000e-02	2.321456745e-01	-1.168369372e-04	1.501898728e-11
-2.340000000e-02	2.321456665e-01	-1.144807527e-04	1.383569512e-11
-2.350000000e-02	2.321456584e-01	-1.121245688e-04	1.317444557e-11
-2.360000000e-02	2.321456503e-01	-1.097683853e-04	8.565469828e-12
-2.370000000e-02	2.321456421e-01	-1.074122024e-04	1.852002405e-11
-2.380000000e-02	2.321456338e-01	-1.050560199e-04	1.308908746e-11
-2.390000000e-02	2.321456254e-01	-1.026998379e-04	2.017243259e-11
-2.400000000e-02	2.321456170e-01	-1.003436564e-04	2.352353828e-11
-2.410000000e-02	2.321456084e-01	-9.798747545e-05	1.087477509e-11
-2.420000000e-02	2.321455999e-01	-9.563129499e-05	2.425669715e-11
-2.430000000e-02	2.321455912e-01	-9.327511505e-05	1.049298234e-11
-2.440000000e-02	2.321455825e-01	-9.091893563e-05	1.008201524e-11
-2.450000000e-02	2.321455737e-01	-8.856275672e-05	8.891128119e-12
-2.460000000e-02	2.321455648e-01	-8.620657834e-05	2.922509708e-11
-2.470000000e-02	2.321455559e-01	-8.385040050e-05	9.103340956e-12
-2.480000000e-02	2.321455469e-01	-8.149422318e-05	1.089136576e-11
-2.490000000e-02	2.321455378e-01	-7.913804640e-05	8.027574426e-12
-2.500000000e-02	2.321455286e-01	-7.678187016e-05	7.493375384e-12
-2.510000000e-02	2.321455194e-01	-7.442569446e-05	3.834070803e-11
-2.520000000e-02	2.321455101e-01	-7.206951930e-05	2.378576041e-10
-2.530000000e-02	2.321455007e-01	-6.971334471e-05	5.822690148e-11
-2.540000000e-02	2.321454913e-01	-6.735717066e-05	2.188658351e-11
-2.550000000e-02	2.321454818e-01	-6.500099717e-05	8.656136692e-12
-2.560000000e-02	2.321454722e-01	-6.264482424e-05	9.380248573e-12
-2.570000000e-02	2.321454625e-01	-6.028865188e-05	5.958598127e-12
-2.580000000e-02	2.321454528e-01	-5.793248009e-05	2.125131220e-11
-2.590000000e-02	2.321454430e-01	-5.557630886e-05	5.561610285e-11
-2.600000000e-02	2.321454331e-01	-5.322013822e-05	1.497204947e-11
-2.610000000e-02	2.321454232e-01	-5.086396816e-05	3.073790079e-11
-2.620000000e-02	2.321454132e-01	-4.850779868e-05	3.352373831e-11
-2.630000000e-02	2.321454031e-01	-4.615162978e-05	9.063693224e-12
-2.640000000e-02	2.321453929e-01	-4.379546148e-05	6.934598049e-12
-2.650000000e-02	2.321453827e-01	-4.143929377e-05	2.763239538e-11
-2.660000000e-02	2.321453724e-01	-3.908312666e-05	2.524850196e-11
-2.670000000e-02	2.321453620e-01	-3.672696015e-05	2.404115504e-11
-2.680000000e-02	2.321453516e-01	-3.437079424e-05	1.199448732e-11
-2.690000000e-02	2.321453411e-01	-3.201462894e-05	1.343308877e-11
-2.700000000e-02	2.321453305e-01	-2.965846426e-05	1.294884285e-11
-2.710000000e-02	2.321453198e-01	-2.730230019e-05	1.035309690e-11
-2.720000000e-02	2.321453091e-01	-2.494613674e-05	1.249144892e-11
-2.730000000e-02	2.321452983e-01	-2.258997392e-05	1.693259803e-11
-2.740000000e-02	2.321452874e-01	-2.023381172e-05	8.123900346e-12
-2.750000000e-02	2.321452764e-01	-1.787765015e-05	1.274758786e-11
-2.760000000e-02	2.321452654e-01	-1.552148922e-05	2.496358820e-11
-2.770000000e-02	2.321452543e-01	-1.316532892e-05	1.158340057e-11
-2.780000000e-02	2.321452432e-01	-1.080916927e-05	2.675381419e-11
-2.790000000e-02	2.321452319e-01	-8.453010261e-06	2.065852196e-11
-2.800000000e-02	2.321452206e-01	-6.096851900e-06	2.242951210e-11
-2.810000000e-02	2.321452093e-01	-3.740694194e-06	2.056257694e-11
-2.820000000e-02	2.321451978e-01	-1.384537141e-06	9.538761781e-12
-2.830000000e-02	2.321451863e-01	9.716192524e-07	1.476043303e-11
-2.840000000e-02	2.321451747e-01	3.327774981e-06	1.251387467e-11
-2.850000000e-02	2.321451630e-01	5.683930042e-06	1.256451708e-11
-2.860000000e-02	2.321451513e-01	8.040084434e-06	1.150738046e-11
-2.870000000e-02	2.321451395e-01	1.039623815e-05	1.629392324e-11
-2.880000000e-02	2.321451276e-01	1.275239119e-05	1.316542350e-11
-2.890000000e-02	2.321451156e-01	1.510854355e-05	3.586449488e-11
-2.900000000e-02	2.321451036e-01	1.746469522e-05	7.643538470e-12
-2.910000000e-02	2.321450915e-01	1.982084621e-05	6.652606076e-12
-2.920000000e-02	2.321450794e-01	2.217699650e-05	8.586533651e-11
-2.930000000e-02	2.321450671e-01	2.453314610e-05	4.510136865e-11
-2.940000000e-02	2.321450548e-01	2.688929499e-05	8.798744677e-12
-2.950000000e-02	2.321450424e-01	2.924544318e-05	1.834447749e-11
-2.960000000e-02	2.321450300e-01	3.160159067e-05	7.613512737e-12
-2.970000000e-02	2.321450174e-01	3.395773744e-05	1.099290808e-11
-2.980000000e-02	2.321450049e-01	3.631388350e-05	1.320884754e-11
-2.990000000e-02	2.321449922e-01	3.867002885e-05	8.951388503e-12
-3.000000000e-02	2.321449794e-01	4.102617347e-05	1.041777498e-11
