# Im(epsi1)     Re(omega/c)      Im(omega/c)      Eq(det).Opt det CON kz, R=0.5 \mum, mu_c=0.3, Re(epsi1)=3.90solve_det_conkz_vs_kz.py
0.000000000e+00	2.321442920e-01	-6.658285814e-04	1.379492169e-11
-1.000000000e-04	2.321443007e-01	-6.634723923e-04	5.388644929e-12
-2.000000000e-04	2.321443093e-01	-6.611162029e-04	5.242571768e-11
-3.000000000e-04	2.321443179e-01	-6.587600131e-04	7.164901280e-12
-4.000000000e-04	2.321443264e-01	-6.564038230e-04	1.124797417e-11
-5.000000000e-04	2.321443348e-01	-6.540476325e-04	4.484317706e-11
-6.000000000e-04	2.321443431e-01	-6.516914417e-04	1.268337334e-11
-7.000000000e-04	2.321443514e-01	-6.493352505e-04	3.148305083e-11
-8.000000000e-04	2.321443596e-01	-6.469790590e-04	1.135713207e-11
-9.000000000e-04	2.321443677e-01	-6.446228671e-04	3.513681903e-11
-1.000000000e-03	2.321443758e-01	-6.422666749e-04	7.912387238e-12
-1.100000000e-03	2.321443838e-01	-6.399104824e-04	2.554924720e-11
-1.200000000e-03	2.321443917e-01	-6.375542896e-04	4.591219274e-11
-1.300000000e-03	2.321443995e-01	-6.351980964e-04	5.507225546e-11
-1.400000000e-03	2.321444073e-01	-6.328419029e-04	1.905350614e-11
-1.500000000e-03	2.321444150e-01	-6.304857091e-04	9.868871898e-12
-1.600000000e-03	2.321444226e-01	-6.281295150e-04	1.953496387e-11
-1.700000000e-03	2.321444301e-01	-6.257733206e-04	2.645078504e-11
-1.800000000e-03	2.321444376e-01	-6.234171259e-04	7.854096704e-12
-1.900000000e-03	2.321444450e-01	-6.210609309e-04	7.319544199e-12
-2.000000000e-03	2.321444524e-01	-6.187047356e-04	4.350056677e-11
-2.100000000e-03	2.321444596e-01	-6.163485400e-04	1.392629784e-11
-2.200000000e-03	2.321444668e-01	-6.139923441e-04	2.588760039e-11
-2.300000000e-03	2.321444740e-01	-6.116361479e-04	1.557131961e-10
-2.400000000e-03	2.321444810e-01	-6.092799514e-04	8.054889847e-12
-2.500000000e-03	2.321444880e-01	-6.069237547e-04	2.420267881e-11
-2.600000000e-03	2.321444949e-01	-6.045675577e-04	7.981559752e-11
-2.700000000e-03	2.321445017e-01	-6.022113604e-04	8.112535269e-12
-2.800000000e-03	2.321445085e-01	-5.998551628e-04	1.412210292e-11
-2.900000000e-03	2.321445152e-01	-5.974989650e-04	7.237363402e-12
-3.000000000e-03	2.321445218e-01	-5.951427669e-04	1.978862936e-11
-3.100000000e-03	2.321445283e-01	-5.927865686e-04	1.660823239e-11
-3.200000000e-03	2.321445348e-01	-5.904303700e-04	1.168329511e-11
-3.300000000e-03	2.321445412e-01	-5.880741712e-04	1.717054331e-11
-3.400000000e-03	2.321445476e-01	-5.857179721e-04	6.386846860e-12
-3.500000000e-03	2.321445538e-01	-5.833617728e-04	8.535240590e-12
-3.600000000e-03	2.321445600e-01	-5.810055732e-04	7.790611783e-12
-3.700000000e-03	2.321445661e-01	-5.786493734e-04	7.657353578e-12
-3.800000000e-03	2.321445722e-01	-5.762931734e-04	1.129293104e-11
-3.900000000e-03	2.321445782e-01	-5.739369731e-04	6.496304016e-12
-4.000000000e-03	2.321445841e-01	-5.715807727e-04	1.459090581e-11
-4.100000000e-03	2.321445899e-01	-5.692245720e-04	1.249510948e-11
-4.200000000e-03	2.321445956e-01	-5.668683711e-04	7.230537079e-12
-4.300000000e-03	2.321446013e-01	-5.645121699e-04	2.940591696e-11
-4.400000000e-03	2.321446070e-01	-5.621559686e-04	9.185663047e-12
-4.500000000e-03	2.321446125e-01	-5.597997670e-04	9.318163522e-12
-4.600000000e-03	2.321446180e-01	-5.574435653e-04	1.215894321e-11
-4.700000000e-03	2.321446234e-01	-5.550873634e-04	2.366120001e-11
-4.800000000e-03	2.321446287e-01	-5.527311612e-04	1.762978122e-11
-4.900000000e-03	2.321446340e-01	-5.503749589e-04	1.497400892e-11
-5.000000000e-03	2.321446391e-01	-5.480187564e-04	1.083567252e-11
-5.100000000e-03	2.321446443e-01	-5.456625537e-04	1.084367705e-11
-5.200000000e-03	2.321446493e-01	-5.433063508e-04	2.185240216e-11
-5.300000000e-03	2.321446543e-01	-5.409501477e-04	1.483110849e-11
-5.400000000e-03	2.321446592e-01	-5.385939445e-04	6.167814026e-11
-5.500000000e-03	2.321446640e-01	-5.362377411e-04	1.978228371e-11
-5.600000000e-03	2.321446688e-01	-5.338815376e-04	1.358796049e-11
-5.700000000e-03	2.321446734e-01	-5.315253338e-04	3.143239687e-11
-5.800000000e-03	2.321446781e-01	-5.291691299e-04	1.412482951e-11
-5.900000000e-03	2.321446826e-01	-5.268129259e-04	1.414483459e-11
-6.000000000e-03	2.321446871e-01	-5.244567217e-04	1.551982635e-11
-6.100000000e-03	2.321446915e-01	-5.221005174e-04	8.778151138e-12
-6.200000000e-03	2.321446958e-01	-5.197443129e-04	8.618539117e-12
-6.300000000e-03	2.321447000e-01	-5.173881083e-04	1.349708869e-11
-6.400000000e-03	2.321447042e-01	-5.150319035e-04	1.254312422e-11
-6.500000000e-03	2.321447083e-01	-5.126756986e-04	9.821685459e-12
-6.600000000e-03	2.321447124e-01	-5.103194936e-04	1.825850133e-11
-6.700000000e-03	2.321447163e-01	-5.079632885e-04	1.436172691e-11
-6.800000000e-03	2.321447202e-01	-5.056070832e-04	1.010094755e-11
-6.900000000e-03	2.321447241e-01	-5.032508778e-04	3.214533876e-11
-7.000000000e-03	2.321447278e-01	-5.008946723e-04	1.771692821e-11
-7.100000000e-03	2.321447315e-01	-4.985384667e-04	7.459656990e-12
-7.200000000e-03	2.321447351e-01	-4.961822610e-04	9.413733163e-12
-7.300000000e-03	2.321447386e-01	-4.938260552e-04	8.272614696e-12
-7.400000000e-03	2.321447421e-01	-4.914698492e-04	1.455888026e-11
-7.500000000e-03	2.321447455e-01	-4.891136432e-04	1.092585544e-11
-7.600000000e-03	2.321447488e-01	-4.867574371e-04	1.897566064e-11
-7.700000000e-03	2.321447521e-01	-4.844012309e-04	1.148280381e-11
-7.800000000e-03	2.321447552e-01	-4.820450246e-04	2.175773492e-11
-7.900000000e-03	2.321447584e-01	-4.796888183e-04	1.229577314e-11
-8.000000000e-03	2.321447614e-01	-4.773326118e-04	3.956487166e-11
-8.100000000e-03	2.321447643e-01	-4.749764053e-04	2.460906392e-11
-8.200000000e-03	2.321447672e-01	-4.726201987e-04	5.619232669e-11
-8.300000000e-03	2.321447701e-01	-4.702639920e-04	1.306561237e-11
-8.400000000e-03	2.321447728e-01	-4.679077853e-04	1.171564019e-11
-8.500000000e-03	2.321447755e-01	-4.655515785e-04	2.174287800e-11
-8.600000000e-03	2.321447781e-01	-4.631953717e-04	4.032263530e-11
-8.700000000e-03	2.321447806e-01	-4.608391648e-04	2.329238141e-11
-8.800000000e-03	2.321447831e-01	-4.584829578e-04	9.174626445e-12
-8.900000000e-03	2.321447855e-01	-4.561267509e-04	1.923902087e-11
-9.000000000e-03	2.321447878e-01	-4.537705438e-04	4.634842779e-11
-9.100000000e-03	2.321447900e-01	-4.514143368e-04	1.438517480e-11
-9.200000000e-03	2.321447922e-01	-4.490581297e-04	1.257963141e-11
-9.300000000e-03	2.321447943e-01	-4.467019225e-04	6.639235421e-12
-9.400000000e-03	2.321447963e-01	-4.443457154e-04	1.305189674e-11
-9.500000000e-03	2.321447983e-01	-4.419895082e-04	1.582884423e-11
-9.600000000e-03	2.321448002e-01	-4.396333010e-04	3.101506555e-11
-9.700000000e-03	2.321448020e-01	-4.372770938e-04	1.199592229e-11
-9.800000000e-03	2.321448038e-01	-4.349208865e-04	2.328352328e-11
-9.900000000e-03	2.321448054e-01	-4.325646793e-04	1.388771757e-11
-1.000000000e-02	2.321448070e-01	-4.302084720e-04	2.023979477e-11
-1.010000000e-02	2.321448086e-01	-4.278522648e-04	1.243980222e-11
-1.020000000e-02	2.321448100e-01	-4.254960575e-04	1.407879208e-11
-1.030000000e-02	2.321448114e-01	-4.231398503e-04	4.128468033e-12
-1.040000000e-02	2.321448127e-01	-4.207836430e-04	1.223460876e-11
-1.050000000e-02	2.321448140e-01	-4.184274358e-04	3.213077532e-11
-1.060000000e-02	2.321448151e-01	-4.160712286e-04	7.517715992e-12
-1.070000000e-02	2.321448162e-01	-4.137150214e-04	2.497402495e-11
-1.080000000e-02	2.321448172e-01	-4.113588143e-04	1.430842294e-11
-1.090000000e-02	2.321448182e-01	-4.090026071e-04	1.940347324e-11
-1.100000000e-02	2.321448191e-01	-4.066464000e-04	1.111819085e-11
-1.110000000e-02	2.321448199e-01	-4.042901929e-04	7.033903051e-12
-1.120000000e-02	2.321448206e-01	-4.019339859e-04	6.095638643e-12
-1.130000000e-02	2.321448213e-01	-3.995777789e-04	1.176974217e-11
-1.140000000e-02	2.321448219e-01	-3.972215720e-04	1.055742649e-11
-1.150000000e-02	2.321448224e-01	-3.948653651e-04	2.159729891e-11
-1.160000000e-02	2.321448229e-01	-3.925091582e-04	9.211570194e-12
-1.170000000e-02	2.321448233e-01	-3.901529514e-04	1.919878954e-11
-1.180000000e-02	2.321448236e-01	-3.877967447e-04	7.929963359e-12
-1.190000000e-02	2.321448238e-01	-3.854405381e-04	2.859243860e-11
-1.200000000e-02	2.321448240e-01	-3.830843315e-04	1.393745437e-11
-1.210000000e-02	2.321448241e-01	-3.807281249e-04	1.037674371e-11
-1.220000000e-02	2.321448241e-01	-3.783719185e-04	7.813580157e-12
-1.230000000e-02	2.321448240e-01	-3.760157121e-04	3.991033351e-11
-1.240000000e-02	2.321448239e-01	-3.736595058e-04	1.526381169e-11
-1.250000000e-02	2.321448237e-01	-3.713032996e-04	1.451537942e-11
-1.260000000e-02	2.321448235e-01	-3.689470935e-04	6.211272414e-12
-1.270000000e-02	2.321448231e-01	-3.665908875e-04	2.794289047e-11
-1.280000000e-02	2.321448227e-01	-3.642346815e-04	7.287295148e-12
-1.290000000e-02	2.321448223e-01	-3.618784757e-04	6.638249385e-12
-1.300000000e-02	2.321448217e-01	-3.595222700e-04	1.010206622e-11
-1.310000000e-02	2.321448211e-01	-3.571660643e-04	1.035778099e-11
-1.320000000e-02	2.321448204e-01	-3.548098588e-04	1.407536409e-11
-1.330000000e-02	2.321448196e-01	-3.524536534e-04	3.638202527e-11
-1.340000000e-02	2.321448188e-01	-3.500974482e-04	2.052684645e-11
-1.350000000e-02	2.321448179e-01	-3.477412430e-04	8.032978090e-12
-1.360000000e-02	2.321448169e-01	-3.453850380e-04	3.204882350e-11
-1.370000000e-02	2.321448158e-01	-3.430288331e-04	3.127262111e-11
-1.380000000e-02	2.321448147e-01	-3.406726283e-04	1.875258707e-11
-1.390000000e-02	2.321448135e-01	-3.383164237e-04	5.903992172e-12
-1.400000000e-02	2.321448123e-01	-3.359602192e-04	8.674935020e-12
-1.410000000e-02	2.321448109e-01	-3.336040148e-04	2.889407488e-11
-1.420000000e-02	2.321448095e-01	-3.312478106e-04	1.450199396e-11
-1.430000000e-02	2.321448080e-01	-3.288916066e-04	6.159581382e-12
-1.440000000e-02	2.321448065e-01	-3.265354027e-04	1.254405839e-11
-1.450000000e-02	2.321448048e-01	-3.241791989e-04	7.584475684e-11
-1.460000000e-02	2.321448031e-01	-3.218229954e-04	9.372843722e-12
-1.470000000e-02	2.321448014e-01	-3.194667920e-04	7.567612100e-12
-1.480000000e-02	2.321447995e-01	-3.171105887e-04	6.573495416e-12
-1.490000000e-02	2.321447976e-01	-3.147543856e-04	9.861210801e-12
-1.500000000e-02	2.321447956e-01	-3.123981827e-04	3.517225695e-11
-1.510000000e-02	2.321447936e-01	-3.100419800e-04	1.725373017e-11
-1.520000000e-02	2.321447914e-01	-3.076857775e-04	1.056421717e-11
-1.530000000e-02	2.321447892e-01	-3.053295752e-04	1.104095731e-11
-1.540000000e-02	2.321447870e-01	-3.029733730e-04	5.287970284e-11
-1.550000000e-02	2.321447846e-01	-3.006171710e-04	1.563202280e-11
-1.560000000e-02	2.321447822e-01	-2.982609693e-04	3.207110464e-11
-1.570000000e-02	2.321447797e-01	-2.959047677e-04	1.905347089e-11
-1.580000000e-02	2.321447772e-01	-2.935485664e-04	1.668267498e-11
-1.590000000e-02	2.321447745e-01	-2.911923652e-04	1.495313364e-11
-1.600000000e-02	2.321447718e-01	-2.888361643e-04	1.217680556e-11
-1.610000000e-02	2.321447691e-01	-2.864799636e-04	1.463388313e-11
-1.620000000e-02	2.321447662e-01	-2.841237631e-04	8.651697061e-12
-1.630000000e-02	2.321447633e-01	-2.817675628e-04	2.333623520e-11
-1.640000000e-02	2.321447603e-01	-2.794113628e-04	1.518173574e-11
-1.650000000e-02	2.321447573e-01	-2.770551629e-04	1.887325756e-11
-1.660000000e-02	2.321447541e-01	-2.746989634e-04	9.337998026e-12
-1.670000000e-02	2.321447509e-01	-2.723427640e-04	2.385417628e-11
-1.680000000e-02	2.321447476e-01	-2.699865649e-04	1.533012007e-11
-1.690000000e-02	2.321447443e-01	-2.676303661e-04	9.256337023e-12
-1.700000000e-02	2.321447409e-01	-2.652741674e-04	2.095687767e-11
-1.710000000e-02	2.321447374e-01	-2.629179691e-04	9.200923381e-12
-1.720000000e-02	2.321447338e-01	-2.605617710e-04	1.331872825e-11
-1.730000000e-02	2.321447302e-01	-2.582055732e-04	1.291344895e-11
-1.740000000e-02	2.321447265e-01	-2.558493756e-04	2.406165454e-11
-1.750000000e-02	2.321447227e-01	-2.534931783e-04	2.138806899e-11
-1.760000000e-02	2.321447189e-01	-2.511369812e-04	1.026188497e-11
-1.770000000e-02	2.321447149e-01	-2.487807845e-04	2.807422295e-11
-1.780000000e-02	2.321447109e-01	-2.464245880e-04	1.593029215e-11
-1.790000000e-02	2.321447069e-01	-2.440683918e-04	1.398038346e-11
-1.800000000e-02	2.321447027e-01	-2.417121959e-04	1.941699117e-11
-1.810000000e-02	2.321446985e-01	-2.393560002e-04	2.547384437e-11
-1.820000000e-02	2.321446943e-01	-2.369998049e-04	1.186438345e-11
-1.830000000e-02	2.321446899e-01	-2.346436098e-04	9.818044219e-12
-1.840000000e-02	2.321446855e-01	-2.322874151e-04	6.007624966e-12
-1.850000000e-02	2.321446810e-01	-2.299312207e-04	4.462145720e-11
-1.860000000e-02	2.321446764e-01	-2.275750265e-04	5.568788853e-12
-1.870000000e-02	2.321446718e-01	-2.252188327e-04	6.690253496e-11
-1.880000000e-02	2.321446671e-01	-2.228626392e-04	7.026548237e-12
-1.890000000e-02	2.321446623e-01	-2.205064460e-04	2.111859015e-11
-1.900000000e-02	2.321446574e-01	-2.181502531e-04	1.161358566e-11
-1.910000000e-02	2.321446525e-01	-2.157940606e-04	1.744486476e-11
-1.920000000e-02	2.321446475e-01	-2.134378684e-04	1.113425364e-11
-1.930000000e-02	2.321446425e-01	-2.110816765e-04	1.861867702e-11
-1.940000000e-02	2.321446373e-01	-2.087254850e-04	8.514739388e-11
-1.950000000e-02	2.321446321e-01	-2.063692938e-04	1.255318140e-11
-1.960000000e-02	2.321446268e-01	-2.040131029e-04	2.500916860e-11
-1.970000000e-02	2.321446215e-01	-2.016569124e-04	1.438811394e-11
-1.980000000e-02	2.321446160e-01	-1.993007222e-04	1.937944503e-11
-1.990000000e-02	2.321446105e-01	-1.969445324e-04	1.171549123e-11
-2.000000000e-02	2.321446050e-01	-1.945883430e-04	2.024517173e-11
-2.010000000e-02	2.321445993e-01	-1.922321539e-04	1.327956083e-11
-2.020000000e-02	2.321445936e-01	-1.898759652e-04	9.914209563e-12
-2.030000000e-02	2.321445878e-01	-1.875197768e-04	7.983795306e-12
-2.040000000e-02	2.321445820e-01	-1.851635888e-04	8.045864977e-12
-2.050000000e-02	2.321445760e-01	-1.828074012e-04	1.331898603e-11
-2.060000000e-02	2.321445700e-01	-1.804512140e-04	9.991021836e-12
-2.070000000e-02	2.321445640e-01	-1.780950271e-04	9.901248633e-12
-2.080000000e-02	2.321445578e-01	-1.757388407e-04	1.581547493e-11
-2.090000000e-02	2.321445516e-01	-1.733826546e-04	3.652544981e-11
-2.100000000e-02	2.321445453e-01	-1.710264689e-04	1.482365856e-11
-2.110000000e-02	2.321445390e-01	-1.686702837e-04	1.496213723e-11
-2.120000000e-02	2.321445325e-01	-1.663140988e-04	8.799677241e-12
-2.130000000e-02	2.321445260e-01	-1.639579143e-04	1.783489011e-11
-2.140000000e-02	2.321445195e-01	-1.616017303e-04	1.293353931e-11
-2.150000000e-02	2.321445128e-01	-1.592455466e-04	1.572424289e-11
-2.160000000e-02	2.321445061e-01	-1.568893634e-04	1.220572865e-11
-2.170000000e-02	2.321444993e-01	-1.545331806e-04	1.325949577e-11
-2.180000000e-02	2.321444924e-01	-1.521769982e-04	3.892684177e-11
-2.190000000e-02	2.321444855e-01	-1.498208162e-04	1.787684173e-11
-2.200000000e-02	2.321444785e-01	-1.474646347e-04	1.256171394e-11
-2.210000000e-02	2.321444714e-01	-1.451084536e-04	1.670483402e-11
-2.220000000e-02	2.321444643e-01	-1.427522730e-04	1.962763910e-11
-2.230000000e-02	2.321444571e-01	-1.403960927e-04	1.066237377e-11
-2.240000000e-02	2.321444498e-01	-1.380399130e-04	8.739081918e-12
-2.250000000e-02	2.321444424e-01	-1.356837337e-04	1.802677037e-11
-2.260000000e-02	2.321444350e-01	-1.333275548e-04	1.109846681e-11
-2.270000000e-02	2.321444275e-01	-1.309713764e-04	1.057360292e-11
-2.280000000e-02	2.321444199e-01	-1.286151984e-04	6.899452123e-12
-2.290000000e-02	2.321444122e-01	-1.262590209e-04	9.993288342e-12
-2.300000000e-02	2.321444045e-01	-1.239028439e-04	2.081541486e-11
-2.310000000e-02	2.321443967e-01	-1.215466674e-04	1.585467094e-11
-2.320000000e-02	2.321443889e-01	-1.191904913e-04	9.060067003e-12
-2.330000000e-02	2.321443809e-01	-1.168343157e-04	2.161049890e-11
-2.340000000e-02	2.321443729e-01	-1.144781406e-04	1.253360742e-11
-2.350000000e-02	2.321443648e-01	-1.121219659e-04	2.204677704e-11
-2.360000000e-02	2.321443567e-01	-1.097657918e-04	8.482421380e-12
-2.370000000e-02	2.321443485e-01	-1.074096181e-04	1.753667621e-11
-2.380000000e-02	2.321443402e-01	-1.050534450e-04	6.762479288e-12
-2.390000000e-02	2.321443318e-01	-1.026972723e-04	6.078442015e-12
-2.400000000e-02	2.321443234e-01	-1.003411002e-04	2.822912407e-11
-2.410000000e-02	2.321443149e-01	-9.798492852e-05	1.062076646e-11
-2.420000000e-02	2.321443063e-01	-9.562875738e-05	2.473449352e-11
-2.430000000e-02	2.321442976e-01	-9.327258676e-05	6.472082239e-12
-2.440000000e-02	2.321442889e-01	-9.091641666e-05	1.170685461e-10
-2.450000000e-02	2.321442801e-01	-8.856024708e-05	9.684764136e-12
-2.460000000e-02	2.321442712e-01	-8.620407802e-05	1.558468948e-11
-2.470000000e-02	2.321442623e-01	-8.384790949e-05	1.025496625e-11
-2.480000000e-02	2.321442533e-01	-8.149174150e-05	2.113896483e-11
-2.490000000e-02	2.321442442e-01	-7.913557404e-05	1.927637597e-11
-2.500000000e-02	2.321442350e-01	-7.677940712e-05	7.971199353e-12
-2.510000000e-02	2.321442258e-01	-7.442324074e-05	1.954006801e-11
-2.520000000e-02	2.321442165e-01	-7.206707491e-05	1.506563951e-11
-2.530000000e-02	2.321442071e-01	-6.971090963e-05	1.127624339e-11
-2.540000000e-02	2.321441977e-01	-6.735474491e-05	1.574036779e-11
-2.550000000e-02	2.321441882e-01	-6.499858074e-05	2.582363551e-11
-2.560000000e-02	2.321441786e-01	-6.264241714e-05	1.907751503e-11
-2.570000000e-02	2.321441689e-01	-6.028625410e-05	5.795397436e-12
-2.580000000e-02	2.321441592e-01	-5.793009163e-05	5.813547056e-12
-2.590000000e-02	2.321441494e-01	-5.557392973e-05	6.893864481e-12
-2.600000000e-02	2.321441395e-01	-5.321776841e-05	7.121406871e-12
-2.610000000e-02	2.321441296e-01	-5.086160767e-05	4.330757850e-11
-2.620000000e-02	2.321441196e-01	-4.850544751e-05	1.170709419e-11
-2.630000000e-02	2.321441095e-01	-4.614928793e-05	8.727452440e-12
-2.640000000e-02	2.321440993e-01	-4.379312895e-05	1.218301256e-11
-2.650000000e-02	2.321440891e-01	-4.143697056e-05	1.199667974e-11
-2.660000000e-02	2.321440788e-01	-3.908081277e-05	2.998271333e-11
-2.670000000e-02	2.321440684e-01	-3.672465559e-05	1.032495677e-11
-2.680000000e-02	2.321440580e-01	-3.436849900e-05	4.047300706e-11
-2.690000000e-02	2.321440475e-01	-3.201234303e-05	1.088188211e-11
-2.700000000e-02	2.321440369e-01	-2.965618767e-05	1.609169064e-11
-2.710000000e-02	2.321440262e-01	-2.730003292e-05	3.114465960e-11
-2.720000000e-02	2.321440155e-01	-2.494387879e-05	9.275780023e-12
-2.730000000e-02	2.321440047e-01	-2.258772529e-05	2.052889699e-11
-2.740000000e-02	2.321439938e-01	-2.023157241e-05	7.764749285e-12
-2.750000000e-02	2.321439828e-01	-1.787542017e-05	1.073657558e-11
-2.760000000e-02	2.321439718e-01	-1.551926856e-05	5.907644771e-12
-2.770000000e-02	2.321439607e-01	-1.316311758e-05	1.733057494e-11
-2.780000000e-02	2.321439496e-01	-1.080696725e-05	1.061471017e-11
-2.790000000e-02	2.321439383e-01	-8.450817564e-06	1.183437661e-11
-2.800000000e-02	2.321439270e-01	-6.094668528e-06	2.136975639e-11
-2.810000000e-02	2.321439157e-01	-3.738520140e-06	1.387625346e-11
-2.820000000e-02	2.321439042e-01	-1.382372411e-06	7.689684421e-12
-2.830000000e-02	2.321438927e-01	9.737746584e-07	8.976725093e-12
-2.840000000e-02	2.321438811e-01	3.329921067e-06	1.189428585e-11
-2.850000000e-02	2.321438694e-01	5.686066806e-06	5.236600038e-12
-2.860000000e-02	2.321438577e-01	8.042211874e-06	2.688474038e-11
-2.870000000e-02	2.321438459e-01	1.039835627e-05	7.096734090e-12
-2.880000000e-02	2.321438340e-01	1.275449999e-05	5.885530934e-12
-2.890000000e-02	2.321438220e-01	1.511064302e-05	9.173685261e-12
-2.900000000e-02	2.321438100e-01	1.746678537e-05	2.469752856e-11
-2.910000000e-02	2.321437979e-01	1.982292704e-05	6.237666718e-12
-2.920000000e-02	2.321437858e-01	2.217906801e-05	1.327670059e-11
-2.930000000e-02	2.321437735e-01	2.453520828e-05	1.723171423e-11
-2.940000000e-02	2.321437612e-01	2.689134785e-05	1.318071076e-11
-2.950000000e-02	2.321437488e-01	2.924748672e-05	2.064436630e-11
-2.960000000e-02	2.321437364e-01	3.160362489e-05	1.926457055e-11
-2.970000000e-02	2.321437239e-01	3.395976234e-05	1.730639777e-11
-2.980000000e-02	2.321437113e-01	3.631589908e-05	1.112094743e-11
-2.990000000e-02	2.321436986e-01	3.867203510e-05	1.076872987e-11
-3.000000000e-02	2.321436858e-01	4.102817040e-05	8.274321711e-12
