# Im(epsi1)     Re(omega/c)      Im(omega/c)      Eq(det).Opt det CON kz, R=0.5 \mum, mu_c=0.3, Re(epsi1)=3.90solve_det_conkz_vs_kz.py
0.000000000e+00	2.321656214e-01	-6.659076126e-04	1.004711809e-11
-1.000000000e-04	2.321656301e-01	-6.635512698e-04	7.142071094e-12
-2.000000000e-04	2.321656387e-01	-6.611949267e-04	1.536394930e-11
-3.000000000e-04	2.321656473e-01	-6.588385832e-04	2.774482862e-11
-4.000000000e-04	2.321656558e-01	-6.564822393e-04	1.396997467e-11
-5.000000000e-04	2.321656642e-01	-6.541258951e-04	1.444889532e-11
-6.000000000e-04	2.321656725e-01	-6.517695505e-04	1.675654960e-11
-7.000000000e-04	2.321656808e-01	-6.494132056e-04	6.464432013e-12
-8.000000000e-04	2.321656890e-01	-6.470568603e-04	1.005069616e-11
-9.000000000e-04	2.321656971e-01	-6.447005147e-04	2.472637631e-11
-1.000000000e-03	2.321657052e-01	-6.423441688e-04	7.614948155e-12
-1.100000000e-03	2.321657132e-01	-6.399878226e-04	8.863781838e-12
-1.200000000e-03	2.321657211e-01	-6.376314760e-04	1.089949847e-11
-1.300000000e-03	2.321657289e-01	-6.352751291e-04	2.350748352e-11
-1.400000000e-03	2.321657367e-01	-6.329187819e-04	5.367072571e-12
-1.500000000e-03	2.321657444e-01	-6.305624343e-04	2.147183939e-11
-1.600000000e-03	2.321657520e-01	-6.282060865e-04	2.327174024e-11
-1.700000000e-03	2.321657596e-01	-6.258497383e-04	1.702916760e-11
-1.800000000e-03	2.321657670e-01	-6.234933899e-04	1.309952666e-11
-1.900000000e-03	2.321657744e-01	-6.211370411e-04	1.726678684e-11
-2.000000000e-03	2.321657818e-01	-6.187806921e-04	1.279216935e-11
-2.100000000e-03	2.321657891e-01	-6.164243427e-04	1.056839427e-11
-2.200000000e-03	2.321657962e-01	-6.140679931e-04	1.218476323e-11
-2.300000000e-03	2.321658034e-01	-6.117116432e-04	2.286609799e-11
-2.400000000e-03	2.321658104e-01	-6.093552930e-04	1.043044441e-10
-2.500000000e-03	2.321658174e-01	-6.069989425e-04	1.418715463e-11
-2.600000000e-03	2.321658243e-01	-6.046425918e-04	6.714710684e-12
-2.700000000e-03	2.321658311e-01	-6.022862407e-04	2.183865270e-11
-2.800000000e-03	2.321658379e-01	-5.999298894e-04	2.814049035e-11
-2.900000000e-03	2.321658446e-01	-5.975735379e-04	6.445590489e-12
-3.000000000e-03	2.321658512e-01	-5.952171861e-04	1.168507050e-11
-3.100000000e-03	2.321658578e-01	-5.928608340e-04	1.164860411e-11
-3.200000000e-03	2.321658643e-01	-5.905044817e-04	1.788889227e-11
-3.300000000e-03	2.321658707e-01	-5.881481291e-04	3.625144167e-11
-3.400000000e-03	2.321658770e-01	-5.857917763e-04	1.350362522e-11
-3.500000000e-03	2.321658833e-01	-5.834354232e-04	2.619641046e-11
-3.600000000e-03	2.321658895e-01	-5.810790699e-04	2.723733198e-11
-3.700000000e-03	2.321658956e-01	-5.787227164e-04	6.841015465e-11
-3.800000000e-03	2.321659016e-01	-5.763663626e-04	5.875550587e-12
-3.900000000e-03	2.321659076e-01	-5.740100086e-04	6.583712002e-12
-4.000000000e-03	2.321659135e-01	-5.716536544e-04	2.750990422e-12
-4.100000000e-03	2.321659193e-01	-5.692973000e-04	1.175032813e-11
-4.200000000e-03	2.321659251e-01	-5.669409453e-04	7.719068169e-12
-4.300000000e-03	2.321659308e-01	-5.645845904e-04	8.051389266e-12
-4.400000000e-03	2.321659364e-01	-5.622282354e-04	1.723710223e-11
-4.500000000e-03	2.321659419e-01	-5.598718801e-04	2.269720122e-11
-4.600000000e-03	2.321659474e-01	-5.575155246e-04	1.733261539e-11
-4.700000000e-03	2.321659528e-01	-5.551591689e-04	8.244082042e-12
-4.800000000e-03	2.321659582e-01	-5.528028130e-04	2.268566094e-11
-4.900000000e-03	2.321659634e-01	-5.504464570e-04	1.963532625e-11
-5.000000000e-03	2.321659686e-01	-5.480901007e-04	1.101353170e-11
-5.100000000e-03	2.321659737e-01	-5.457337443e-04	8.918841726e-12
-5.200000000e-03	2.321659788e-01	-5.433773876e-04	3.367561641e-11
-5.300000000e-03	2.321659837e-01	-5.410210308e-04	1.860090653e-11
-5.400000000e-03	2.321659886e-01	-5.386646739e-04	5.576660374e-12
-5.500000000e-03	2.321659935e-01	-5.363083167e-04	2.390339662e-11
-5.600000000e-03	2.321659982e-01	-5.339519594e-04	2.261880868e-11
-5.700000000e-03	2.321660029e-01	-5.315956020e-04	1.446322133e-11
-5.800000000e-03	2.321660075e-01	-5.292392443e-04	1.731398613e-11
-5.900000000e-03	2.321660121e-01	-5.268828866e-04	1.647094414e-11
-6.000000000e-03	2.321660165e-01	-5.245265286e-04	8.435463046e-12
-6.100000000e-03	2.321660209e-01	-5.221701706e-04	3.081373173e-11
-6.200000000e-03	2.321660253e-01	-5.198138123e-04	1.486174663e-11
-6.300000000e-03	2.321660295e-01	-5.174574540e-04	3.509795944e-11
-6.400000000e-03	2.321660337e-01	-5.151010955e-04	4.349041383e-11
-6.500000000e-03	2.321660378e-01	-5.127447368e-04	8.098824647e-12
-6.600000000e-03	2.321660418e-01	-5.103883781e-04	9.799675901e-12
-6.700000000e-03	2.321660458e-01	-5.080320192e-04	1.678228995e-11
-6.800000000e-03	2.321660497e-01	-5.056756602e-04	2.591644840e-11
-6.900000000e-03	2.321660535e-01	-5.033193011e-04	1.131533186e-11
-7.000000000e-03	2.321660573e-01	-5.009629418e-04	9.195095823e-12
-7.100000000e-03	2.321660610e-01	-4.986065825e-04	9.250659234e-12
-7.200000000e-03	2.321660646e-01	-4.962502230e-04	1.594637556e-11
-7.300000000e-03	2.321660681e-01	-4.938938634e-04	8.136041093e-12
-7.400000000e-03	2.321660716e-01	-4.915375038e-04	1.420015205e-11
-7.500000000e-03	2.321660750e-01	-4.891811440e-04	3.326764984e-11
-7.600000000e-03	2.321660783e-01	-4.868247842e-04	1.432784479e-11
-7.700000000e-03	2.321660816e-01	-4.844684242e-04	7.575798308e-12
-7.800000000e-03	2.321660847e-01	-4.821120642e-04	6.921274252e-11
-7.900000000e-03	2.321660878e-01	-4.797557041e-04	1.108159969e-11
-8.000000000e-03	2.321660909e-01	-4.773993439e-04	9.354166885e-12
-8.100000000e-03	2.321660938e-01	-4.750429836e-04	8.720689990e-12
-8.200000000e-03	2.321660967e-01	-4.726866233e-04	4.186218065e-11
-8.300000000e-03	2.321660996e-01	-4.703302629e-04	7.357238624e-12
-8.400000000e-03	2.321661023e-01	-4.679739024e-04	1.028984948e-11
-8.500000000e-03	2.321661050e-01	-4.656175419e-04	7.661168197e-12
-8.600000000e-03	2.321661076e-01	-4.632611813e-04	1.942108100e-11
-8.700000000e-03	2.321661101e-01	-4.609048207e-04	5.421174883e-12
-8.800000000e-03	2.321661126e-01	-4.585484600e-04	2.934433986e-12
-8.900000000e-03	2.321661150e-01	-4.561920993e-04	1.955350713e-11
-9.000000000e-03	2.321661173e-01	-4.538357385e-04	2.434796540e-11
-9.100000000e-03	2.321661195e-01	-4.514793777e-04	6.445669283e-12
-9.200000000e-03	2.321661217e-01	-4.491230169e-04	4.222519894e-11
-9.300000000e-03	2.321661238e-01	-4.467666560e-04	1.859084140e-11
-9.400000000e-03	2.321661259e-01	-4.444102951e-04	2.573971354e-11
-9.500000000e-03	2.321661278e-01	-4.420539341e-04	2.801882038e-11
-9.600000000e-03	2.321661297e-01	-4.396975732e-04	1.652159000e-11
-9.700000000e-03	2.321661315e-01	-4.373412122e-04	5.877072307e-12
-9.800000000e-03	2.321661333e-01	-4.349848513e-04	1.349258359e-11
-9.900000000e-03	2.321661349e-01	-4.326284903e-04	1.108215828e-11
-1.000000000e-02	2.321661365e-01	-4.302721293e-04	7.052311190e-12
-1.010000000e-02	2.321661381e-01	-4.279157683e-04	1.638769827e-11
-1.020000000e-02	2.321661395e-01	-4.255594073e-04	1.257615977e-11
-1.030000000e-02	2.321661409e-01	-4.232030463e-04	2.530639118e-10
-1.040000000e-02	2.321661422e-01	-4.208466853e-04	9.161446927e-12
-1.050000000e-02	2.321661435e-01	-4.184903244e-04	9.318865673e-12
-1.060000000e-02	2.321661446e-01	-4.161339634e-04	1.674410807e-11
-1.070000000e-02	2.321661457e-01	-4.137776025e-04	8.878055772e-11
-1.080000000e-02	2.321661468e-01	-4.114212416e-04	1.487561806e-11
-1.090000000e-02	2.321661477e-01	-4.090648807e-04	1.330762710e-11
-1.100000000e-02	2.321661486e-01	-4.067085198e-04	9.342459436e-12
-1.110000000e-02	2.321661494e-01	-4.043521590e-04	2.271374331e-11
-1.120000000e-02	2.321661502e-01	-4.019957983e-04	1.721392448e-11
-1.130000000e-02	2.321661508e-01	-3.996394375e-04	2.784137578e-11
-1.140000000e-02	2.321661514e-01	-3.972830768e-04	3.508711656e-11
-1.150000000e-02	2.321661520e-01	-3.949267162e-04	2.945198550e-11
-1.160000000e-02	2.321661524e-01	-3.925703556e-04	6.351880064e-12
-1.170000000e-02	2.321661528e-01	-3.902139951e-04	1.106302061e-11
-1.180000000e-02	2.321661531e-01	-3.878576346e-04	2.803653688e-11
-1.190000000e-02	2.321661534e-01	-3.855012742e-04	1.067462434e-11
-1.200000000e-02	2.321661535e-01	-3.831449138e-04	4.031463984e-11
-1.210000000e-02	2.321661536e-01	-3.807885536e-04	1.445539079e-11
-1.220000000e-02	2.321661536e-01	-3.784321934e-04	9.309673650e-12
-1.230000000e-02	2.321661536e-01	-3.760758333e-04	1.276273778e-11
-1.240000000e-02	2.321661535e-01	-3.737194732e-04	6.147436717e-11
-1.250000000e-02	2.321661533e-01	-3.713631133e-04	1.772709529e-11
-1.260000000e-02	2.321661530e-01	-3.690067534e-04	6.353649669e-12
-1.270000000e-02	2.321661527e-01	-3.666503936e-04	9.907750366e-12
-1.280000000e-02	2.321661523e-01	-3.642940340e-04	6.037366963e-12
-1.290000000e-02	2.321661518e-01	-3.619376744e-04	1.320073390e-11
-1.300000000e-02	2.321661513e-01	-3.595813149e-04	1.982386409e-11
-1.310000000e-02	2.321661506e-01	-3.572249555e-04	9.229514196e-12
-1.320000000e-02	2.321661499e-01	-3.548685963e-04	1.384708057e-11
-1.330000000e-02	2.321661492e-01	-3.525122372e-04	1.220267599e-11
-1.340000000e-02	2.321661483e-01	-3.501558781e-04	1.280196144e-11
-1.350000000e-02	2.321661474e-01	-3.477995192e-04	1.297771964e-11
-1.360000000e-02	2.321661465e-01	-3.454431605e-04	3.723545040e-11
-1.370000000e-02	2.321661454e-01	-3.430868018e-04	9.387451759e-12
-1.380000000e-02	2.321661443e-01	-3.407304433e-04	2.148667617e-11
-1.390000000e-02	2.321661431e-01	-3.383740849e-04	5.214152276e-12
-1.400000000e-02	2.321661418e-01	-3.360177267e-04	8.426263438e-12
-1.410000000e-02	2.321661405e-01	-3.336613686e-04	1.361609342e-11
-1.420000000e-02	2.321661391e-01	-3.313050106e-04	1.272466480e-11
-1.430000000e-02	2.321661376e-01	-3.289486529e-04	8.390164140e-12
-1.440000000e-02	2.321661360e-01	-3.265922952e-04	1.275567688e-11
-1.450000000e-02	2.321661344e-01	-3.242359377e-04	1.277175125e-11
-1.460000000e-02	2.321661327e-01	-3.218795804e-04	9.929647729e-12
-1.470000000e-02	2.321661309e-01	-3.195232232e-04	1.988082132e-11
-1.480000000e-02	2.321661291e-01	-3.171668663e-04	2.044899083e-11
-1.490000000e-02	2.321661272e-01	-3.148105094e-04	1.127598943e-11
-1.500000000e-02	2.321661252e-01	-3.124541528e-04	5.032995117e-11
-1.510000000e-02	2.321661232e-01	-3.100977963e-04	1.642613704e-11
-1.520000000e-02	2.321661210e-01	-3.077414401e-04	6.471121855e-12
-1.530000000e-02	2.321661188e-01	-3.053850840e-04	4.666910080e-11
-1.540000000e-02	2.321661166e-01	-3.030287281e-04	7.476886538e-12
-1.550000000e-02	2.321661142e-01	-3.006723724e-04	3.457934203e-11
-1.560000000e-02	2.321661118e-01	-2.983160169e-04	4.968099805e-11
-1.570000000e-02	2.321661093e-01	-2.959596616e-04	1.687137518e-11
-1.580000000e-02	2.321661068e-01	-2.936033065e-04	1.025194412e-11
-1.590000000e-02	2.321661041e-01	-2.912469516e-04	1.004450123e-11
-1.600000000e-02	2.321661014e-01	-2.888905969e-04	6.977052452e-11
-1.610000000e-02	2.321660987e-01	-2.865342424e-04	1.580420536e-11
-1.620000000e-02	2.321660958e-01	-2.841778882e-04	1.729261008e-11
-1.630000000e-02	2.321660929e-01	-2.818215342e-04	2.222830413e-11
-1.640000000e-02	2.321660899e-01	-2.794651804e-04	1.467241913e-11
-1.650000000e-02	2.321660868e-01	-2.771088268e-04	2.426143409e-11
-1.660000000e-02	2.321660837e-01	-2.747524735e-04	2.365451808e-11
-1.670000000e-02	2.321660805e-01	-2.723961204e-04	1.180390630e-11
-1.680000000e-02	2.321660772e-01	-2.700397676e-04	8.393251182e-12
-1.690000000e-02	2.321660739e-01	-2.676834149e-04	1.154877633e-11
-1.700000000e-02	2.321660705e-01	-2.653270626e-04	2.934716334e-11
-1.710000000e-02	2.321660670e-01	-2.629707105e-04	1.519445434e-11
-1.720000000e-02	2.321660634e-01	-2.606143587e-04	2.652128405e-11
-1.730000000e-02	2.321660598e-01	-2.582580071e-04	3.103227924e-11
-1.740000000e-02	2.321660561e-01	-2.559016557e-04	1.426599825e-11
-1.750000000e-02	2.321660523e-01	-2.535453047e-04	1.032371339e-11
-1.760000000e-02	2.321660485e-01	-2.511889539e-04	1.881322952e-11
-1.770000000e-02	2.321660445e-01	-2.488326034e-04	9.290626933e-12
-1.780000000e-02	2.321660405e-01	-2.464762532e-04	2.719320564e-11
-1.790000000e-02	2.321660365e-01	-2.441199032e-04	2.907034386e-11
-1.800000000e-02	2.321660324e-01	-2.417635535e-04	2.932398135e-11
-1.810000000e-02	2.321660281e-01	-2.394072042e-04	3.169466478e-11
-1.820000000e-02	2.321660239e-01	-2.370508551e-04	2.833588054e-11
-1.830000000e-02	2.321660195e-01	-2.346945063e-04	8.606609915e-12
-1.840000000e-02	2.321660151e-01	-2.323381578e-04	1.188997800e-11
-1.850000000e-02	2.321660106e-01	-2.299818096e-04	1.341890951e-11
-1.860000000e-02	2.321660060e-01	-2.276254617e-04	1.309925891e-11
-1.870000000e-02	2.321660014e-01	-2.252691142e-04	9.671570903e-12
-1.880000000e-02	2.321659967e-01	-2.229127669e-04	1.580560626e-11
-1.890000000e-02	2.321659919e-01	-2.205564200e-04	1.392321242e-11
-1.900000000e-02	2.321659871e-01	-2.182000734e-04	9.797364311e-12
-1.910000000e-02	2.321659821e-01	-2.158437271e-04	2.933382422e-11
-1.920000000e-02	2.321659771e-01	-2.134873811e-04	1.879126795e-11
-1.930000000e-02	2.321659721e-01	-2.111310355e-04	1.382706284e-11
-1.940000000e-02	2.321659669e-01	-2.087746902e-04	1.589353931e-11
-1.950000000e-02	2.321659617e-01	-2.064183453e-04	1.379823604e-11
-1.960000000e-02	2.321659564e-01	-2.040620006e-04	1.252215276e-11
-1.970000000e-02	2.321659511e-01	-2.017056564e-04	7.899464980e-12
-1.980000000e-02	2.321659457e-01	-1.993493125e-04	9.906102061e-12
-1.990000000e-02	2.321659402e-01	-1.969929689e-04	1.161493019e-11
-2.000000000e-02	2.321659346e-01	-1.946366257e-04	7.297803376e-12
-2.010000000e-02	2.321659290e-01	-1.922802829e-04	1.473493972e-11
-2.020000000e-02	2.321659232e-01	-1.899239404e-04	8.012130573e-12
-2.030000000e-02	2.321659175e-01	-1.875675983e-04	2.645075787e-11
-2.040000000e-02	2.321659116e-01	-1.852112566e-04	2.055880289e-11
-2.050000000e-02	2.321659057e-01	-1.828549152e-04	6.688259734e-12
-2.060000000e-02	2.321658997e-01	-1.804985743e-04	1.385849323e-11
-2.070000000e-02	2.321658936e-01	-1.781422337e-04	1.143036616e-11
-2.080000000e-02	2.321658875e-01	-1.757858935e-04	1.314872957e-11
-2.090000000e-02	2.321658812e-01	-1.734295536e-04	2.291546256e-11
-2.100000000e-02	2.321658750e-01	-1.710732142e-04	1.250872286e-11
-2.110000000e-02	2.321658686e-01	-1.687168752e-04	1.284014196e-11
-2.120000000e-02	2.321658622e-01	-1.663605366e-04	1.185190614e-11
-2.130000000e-02	2.321658557e-01	-1.640041984e-04	5.717989852e-12
-2.140000000e-02	2.321658491e-01	-1.616478606e-04	2.095283533e-11
-2.150000000e-02	2.321658424e-01	-1.592915232e-04	1.120061106e-11
-2.160000000e-02	2.321658357e-01	-1.569351862e-04	3.381936639e-11
-2.170000000e-02	2.321658289e-01	-1.545788496e-04	1.186258387e-11
-2.180000000e-02	2.321658221e-01	-1.522225135e-04	6.767986372e-12
-2.190000000e-02	2.321658152e-01	-1.498661778e-04	3.995514837e-11
-2.200000000e-02	2.321658081e-01	-1.475098425e-04	2.420624696e-11
-2.210000000e-02	2.321658011e-01	-1.451535077e-04	2.402233212e-11
-2.220000000e-02	2.321657939e-01	-1.427971733e-04	1.079537366e-11
-2.230000000e-02	2.321657867e-01	-1.404408393e-04	9.081795328e-12
-2.240000000e-02	2.321657794e-01	-1.380845058e-04	1.011341954e-11
-2.250000000e-02	2.321657721e-01	-1.357281727e-04	8.535199990e-12
-2.260000000e-02	2.321657646e-01	-1.333718401e-04	4.883975508e-11
-2.270000000e-02	2.321657571e-01	-1.310155079e-04	6.725332952e-12
-2.280000000e-02	2.321657495e-01	-1.286591762e-04	2.104042360e-11
-2.290000000e-02	2.321657419e-01	-1.263028450e-04	1.783151886e-11
-2.300000000e-02	2.321657342e-01	-1.239465142e-04	1.505784377e-11
-2.310000000e-02	2.321657264e-01	-1.215901839e-04	7.872305964e-12
-2.320000000e-02	2.321657185e-01	-1.192338541e-04	3.494851933e-11
-2.330000000e-02	2.321657106e-01	-1.168775247e-04	1.175524859e-11
-2.340000000e-02	2.321657026e-01	-1.145211959e-04	9.602651757e-12
-2.350000000e-02	2.321656945e-01	-1.121648675e-04	5.427051899e-12
-2.360000000e-02	2.321656863e-01	-1.098085396e-04	3.387828592e-11
-2.370000000e-02	2.321656781e-01	-1.074522122e-04	2.619869095e-11
-2.380000000e-02	2.321656698e-01	-1.050958853e-04	8.587275629e-12
-2.390000000e-02	2.321656615e-01	-1.027395589e-04	2.239607381e-11
-2.400000000e-02	2.321656530e-01	-1.003832330e-04	7.001117365e-12
-2.410000000e-02	2.321656445e-01	-9.802690760e-05	1.046433415e-11
-2.420000000e-02	2.321656359e-01	-9.567058271e-05	1.401703036e-11
-2.430000000e-02	2.321656273e-01	-9.331425834e-05	1.130156613e-11
-2.440000000e-02	2.321656186e-01	-9.095793449e-05	1.114408553e-11
-2.450000000e-02	2.321656098e-01	-8.860161116e-05	2.503849935e-11
-2.460000000e-02	2.321656009e-01	-8.624528836e-05	4.162089305e-11
-2.470000000e-02	2.321655920e-01	-8.388896608e-05	2.511709009e-11
-2.480000000e-02	2.321655829e-01	-8.153264433e-05	1.776167056e-11
-2.490000000e-02	2.321655739e-01	-7.917632313e-05	9.903354201e-12
-2.500000000e-02	2.321655647e-01	-7.682000246e-05	2.672967011e-11
-2.510000000e-02	2.321655555e-01	-7.446368233e-05	5.641705699e-12
-2.520000000e-02	2.321655462e-01	-7.210736275e-05	2.259940854e-11
-2.530000000e-02	2.321655368e-01	-6.975104373e-05	1.839139987e-11
-2.540000000e-02	2.321655274e-01	-6.739472525e-05	1.618365367e-11
-2.550000000e-02	2.321655179e-01	-6.503840734e-05	1.491316906e-11
-2.560000000e-02	2.321655083e-01	-6.268208998e-05	1.330239531e-11
-2.570000000e-02	2.321654986e-01	-6.032577319e-05	1.384058345e-11
-2.580000000e-02	2.321654889e-01	-5.796945697e-05	1.411520652e-11
-2.590000000e-02	2.321654791e-01	-5.561314132e-05	2.180061841e-11
-2.600000000e-02	2.321654692e-01	-5.325682625e-05	6.056404820e-12
-2.610000000e-02	2.321654593e-01	-5.090051176e-05	1.247634537e-11
-2.620000000e-02	2.321654493e-01	-4.854419785e-05	3.760956407e-12
-2.630000000e-02	2.321654392e-01	-4.618788453e-05	1.736691973e-11
-2.640000000e-02	2.321654290e-01	-4.383157179e-05	1.826681424e-11
-2.650000000e-02	2.321654188e-01	-4.147525966e-05	1.331604898e-11
-2.660000000e-02	2.321654085e-01	-3.911894812e-05	2.664234954e-11
-2.670000000e-02	2.321653981e-01	-3.676263718e-05	1.121968065e-11
-2.680000000e-02	2.321653877e-01	-3.440632685e-05	1.745578268e-11
-2.690000000e-02	2.321653771e-01	-3.205001712e-05	1.195510233e-11
-2.700000000e-02	2.321653666e-01	-2.969370801e-05	1.386544433e-11
-2.710000000e-02	2.321653559e-01	-2.733739951e-05	1.917713396e-11
-2.720000000e-02	2.321653452e-01	-2.498109164e-05	1.099362344e-11
-2.730000000e-02	2.321653344e-01	-2.262478438e-05	2.455865756e-11
-2.740000000e-02	2.321653235e-01	-2.026847776e-05	2.211162784e-11
-2.750000000e-02	2.321653125e-01	-1.791217176e-05	5.144829700e-11
-2.760000000e-02	2.321653015e-01	-1.555586640e-05	3.574133128e-11
-2.770000000e-02	2.321652904e-01	-1.319956167e-05	1.159187244e-11
-2.780000000e-02	2.321652793e-01	-1.084325759e-05	2.044835582e-11
-2.790000000e-02	2.321652680e-01	-8.486954155e-06	2.036344519e-11
-2.800000000e-02	2.321652567e-01	-6.130651365e-06	1.684938218e-11
-2.810000000e-02	2.321652453e-01	-3.774349229e-06	2.410383090e-11
-2.820000000e-02	2.321652339e-01	-1.418047749e-06	1.629641013e-11
-2.830000000e-02	2.321652224e-01	9.382530722e-07	1.734609675e-11
-2.840000000e-02	2.321652108e-01	3.294553230e-06	1.397297381e-11
-2.850000000e-02	2.321651991e-01	5.650852720e-06	2.019760743e-11
-2.860000000e-02	2.321651874e-01	8.007151538e-06	7.926457731e-11
-2.870000000e-02	2.321651756e-01	1.036344969e-05	2.471495760e-11
-2.880000000e-02	2.321651637e-01	1.271974715e-05	2.456676948e-11
-2.890000000e-02	2.321651517e-01	1.507604394e-05	1.088837181e-11
-2.900000000e-02	2.321651397e-01	1.743234004e-05	1.039101368e-11
-2.910000000e-02	2.321651276e-01	1.978863546e-05	7.324831789e-12
-2.920000000e-02	2.321651155e-01	2.214493018e-05	2.743568909e-11
-2.930000000e-02	2.321651032e-01	2.450122420e-05	1.498959398e-11
-2.940000000e-02	2.321650909e-01	2.685751753e-05	1.185985128e-11
-2.950000000e-02	2.321650785e-01	2.921381015e-05	7.117539799e-12
-2.960000000e-02	2.321650661e-01	3.157010206e-05	7.984133579e-12
-2.970000000e-02	2.321650536e-01	3.392639327e-05	8.412732466e-12
-2.980000000e-02	2.321650410e-01	3.628268376e-05	1.039042936e-11
-2.990000000e-02	2.321650283e-01	3.863897353e-05	1.347438453e-11
-3.000000000e-02	2.321650155e-01	4.099526258e-05	1.375641589e-11
