# Im(epsi1)     Re(omega/c)      Im(omega/c)      Eq(det).Opt det CON kz, R=0.5 \mum, mu_c=0.3, Re(epsi1)=3.90solve_det_conkz_vs_kz.py
0.000000000e+00	2.321499942e-01	-6.658497108e-04	1.773078560e-11
-1.000000000e-04	2.321500029e-01	-6.634934807e-04	8.051381337e-12
-2.000000000e-04	2.321500115e-01	-6.611372502e-04	3.723444443e-11
-3.000000000e-04	2.321500201e-01	-6.587810193e-04	1.227163293e-11
-4.000000000e-04	2.321500286e-01	-6.564247881e-04	2.311528341e-11
-5.000000000e-04	2.321500370e-01	-6.540685565e-04	1.169896954e-11
-6.000000000e-04	2.321500453e-01	-6.517123246e-04	1.389279306e-11
-7.000000000e-04	2.321500536e-01	-6.493560923e-04	7.058612098e-12
-8.000000000e-04	2.321500618e-01	-6.469998597e-04	2.516634875e-11
-9.000000000e-04	2.321500699e-01	-6.446436268e-04	1.899604066e-11
-1.000000000e-03	2.321500780e-01	-6.422873935e-04	3.507277735e-11
-1.100000000e-03	2.321500860e-01	-6.399311599e-04	1.776833391e-11
-1.200000000e-03	2.321500939e-01	-6.375749259e-04	1.149156929e-11
-1.300000000e-03	2.321501017e-01	-6.352186917e-04	7.833118880e-12
-1.400000000e-03	2.321501095e-01	-6.328624571e-04	1.449513717e-11
-1.500000000e-03	2.321501172e-01	-6.305062222e-04	2.810346058e-11
-1.600000000e-03	2.321501248e-01	-6.281499870e-04	1.166170743e-11
-1.700000000e-03	2.321501324e-01	-6.257937515e-04	8.337336664e-12
-1.800000000e-03	2.321501398e-01	-6.234375157e-04	1.107727817e-11
-1.900000000e-03	2.321501473e-01	-6.210812796e-04	6.068307016e-12
-2.000000000e-03	2.321501546e-01	-6.187250432e-04	2.409950238e-11
-2.100000000e-03	2.321501619e-01	-6.163688065e-04	9.656242821e-12
-2.200000000e-03	2.321501691e-01	-6.140125695e-04	1.419254228e-11
-2.300000000e-03	2.321501762e-01	-6.116563322e-04	5.263419167e-11
-2.400000000e-03	2.321501832e-01	-6.093000947e-04	2.372128440e-11
-2.500000000e-03	2.321501902e-01	-6.069438569e-04	2.253359025e-11
-2.600000000e-03	2.321501971e-01	-6.045876187e-04	3.061215901e-11
-2.700000000e-03	2.321502040e-01	-6.022313804e-04	1.697610410e-11
-2.800000000e-03	2.321502107e-01	-5.998751417e-04	1.262920027e-11
-2.900000000e-03	2.321502174e-01	-5.975189028e-04	9.796651122e-12
-3.000000000e-03	2.321502240e-01	-5.951626636e-04	1.514913539e-11
-3.100000000e-03	2.321502306e-01	-5.928064242e-04	1.121632076e-11
-3.200000000e-03	2.321502371e-01	-5.904501845e-04	1.090653029e-11
-3.300000000e-03	2.321502435e-01	-5.880939446e-04	6.697121978e-12
-3.400000000e-03	2.321502498e-01	-5.857377044e-04	8.970925017e-11
-3.500000000e-03	2.321502561e-01	-5.833814640e-04	9.563905309e-12
-3.600000000e-03	2.321502622e-01	-5.810252234e-04	4.654673116e-11
-3.700000000e-03	2.321502684e-01	-5.786689825e-04	9.686656131e-12
-3.800000000e-03	2.321502744e-01	-5.763127414e-04	2.488128718e-11
-3.900000000e-03	2.321502804e-01	-5.739565000e-04	3.124982397e-11
-4.000000000e-03	2.321502863e-01	-5.716002584e-04	1.375494544e-11
-4.100000000e-03	2.321502921e-01	-5.692440167e-04	1.059271546e-11
-4.200000000e-03	2.321502979e-01	-5.668877746e-04	2.186579251e-11
-4.300000000e-03	2.321503036e-01	-5.645315324e-04	1.486525479e-11
-4.400000000e-03	2.321503092e-01	-5.621752900e-04	5.354188557e-10
-4.500000000e-03	2.321503147e-01	-5.598190474e-04	3.389374287e-11
-4.600000000e-03	2.321503202e-01	-5.574628045e-04	1.752931799e-11
-4.700000000e-03	2.321503256e-01	-5.551065615e-04	1.910274007e-11
-4.800000000e-03	2.321503309e-01	-5.527503183e-04	1.455037637e-11
-4.900000000e-03	2.321503362e-01	-5.503940748e-04	1.536248086e-11
-5.000000000e-03	2.321503414e-01	-5.480378312e-04	1.954498141e-11
-5.100000000e-03	2.321503465e-01	-5.456815874e-04	1.915384768e-11
-5.200000000e-03	2.321503515e-01	-5.433253435e-04	7.586596819e-12
-5.300000000e-03	2.321503565e-01	-5.409690993e-04	8.295726248e-12
-5.400000000e-03	2.321503614e-01	-5.386128550e-04	9.927050338e-12
-5.500000000e-03	2.321503662e-01	-5.362566105e-04	1.033791977e-11
-5.600000000e-03	2.321503710e-01	-5.339003658e-04	1.217047884e-11
-5.700000000e-03	2.321503757e-01	-5.315441210e-04	7.636355059e-12
-5.800000000e-03	2.321503803e-01	-5.291878761e-04	2.083749315e-11
-5.900000000e-03	2.321503848e-01	-5.268316309e-04	1.534698615e-11
-6.000000000e-03	2.321503893e-01	-5.244753856e-04	1.117366412e-11
-6.100000000e-03	2.321503937e-01	-5.221191402e-04	1.993742584e-11
-6.200000000e-03	2.321503980e-01	-5.197628946e-04	1.164817864e-11
-6.300000000e-03	2.321504023e-01	-5.174066489e-04	3.023122073e-11
-6.400000000e-03	2.321504065e-01	-5.150504031e-04	2.190878656e-11
-6.500000000e-03	2.321504106e-01	-5.126941571e-04	2.851557437e-11
-6.600000000e-03	2.321504146e-01	-5.103379110e-04	2.225584956e-11
-6.700000000e-03	2.321504186e-01	-5.079816647e-04	7.314388293e-12
-6.800000000e-03	2.321504225e-01	-5.056254184e-04	9.487753512e-12
-6.900000000e-03	2.321504263e-01	-5.032691719e-04	1.714259473e-11
-7.000000000e-03	2.321504301e-01	-5.009129253e-04	1.901541084e-11
-7.100000000e-03	2.321504337e-01	-4.985566786e-04	7.981184176e-12
-7.200000000e-03	2.321504373e-01	-4.962004318e-04	1.440483989e-11
-7.300000000e-03	2.321504409e-01	-4.938441849e-04	1.254626414e-11
-7.400000000e-03	2.321504443e-01	-4.914879379e-04	1.661324679e-11
-7.500000000e-03	2.321504477e-01	-4.891316908e-04	1.355954571e-11
-7.600000000e-03	2.321504511e-01	-4.867754436e-04	1.719715105e-11
-7.700000000e-03	2.321504543e-01	-4.844191963e-04	1.071746069e-11
-7.800000000e-03	2.321504575e-01	-4.820629489e-04	1.434088781e-11
-7.900000000e-03	2.321504606e-01	-4.797067014e-04	4.568269039e-11
-8.000000000e-03	2.321504636e-01	-4.773504539e-04	8.768692036e-12
-8.100000000e-03	2.321504666e-01	-4.749942063e-04	1.497018282e-11
-8.200000000e-03	2.321504695e-01	-4.726379586e-04	9.215710587e-12
-8.300000000e-03	2.321504723e-01	-4.702817108e-04	2.050250661e-11
-8.400000000e-03	2.321504751e-01	-4.679254630e-04	6.411386190e-11
-8.500000000e-03	2.321504777e-01	-4.655692151e-04	3.297333209e-11
-8.600000000e-03	2.321504803e-01	-4.632129672e-04	1.836500418e-11
-8.700000000e-03	2.321504829e-01	-4.608567192e-04	1.341432563e-11
-8.800000000e-03	2.321504853e-01	-4.585004712e-04	2.699657550e-11
-8.900000000e-03	2.321504877e-01	-4.561442231e-04	1.098337701e-11
-9.000000000e-03	2.321504900e-01	-4.537879750e-04	1.307987606e-10
-9.100000000e-03	2.321504923e-01	-4.514317268e-04	2.174644729e-11
-9.200000000e-03	2.321504945e-01	-4.490754786e-04	1.310442538e-11
-9.300000000e-03	2.321504966e-01	-4.467192304e-04	1.482968319e-11
-9.400000000e-03	2.321504986e-01	-4.443629821e-04	7.230549778e-12
-9.500000000e-03	2.321505006e-01	-4.420067339e-04	1.105477571e-11
-9.600000000e-03	2.321505024e-01	-4.396504856e-04	3.990107761e-11
-9.700000000e-03	2.321505043e-01	-4.372942372e-04	8.681934760e-12
-9.800000000e-03	2.321505060e-01	-4.349379889e-04	1.927606200e-11
-9.900000000e-03	2.321505077e-01	-4.325817406e-04	2.548545351e-11
-1.000000000e-02	2.321505093e-01	-4.302254922e-04	8.008828401e-12
-1.010000000e-02	2.321505108e-01	-4.278692439e-04	3.017863523e-11
-1.020000000e-02	2.321505123e-01	-4.255129955e-04	1.235069677e-11
-1.030000000e-02	2.321505136e-01	-4.231567472e-04	7.841893026e-11
-1.040000000e-02	2.321505150e-01	-4.208004989e-04	1.241122532e-11
-1.050000000e-02	2.321505162e-01	-4.184442506e-04	6.936849467e-12
-1.060000000e-02	2.321505174e-01	-4.160880023e-04	1.097045888e-11
-1.070000000e-02	2.321505185e-01	-4.137317540e-04	1.037302727e-11
-1.080000000e-02	2.321505195e-01	-4.113755057e-04	3.949609285e-11
-1.090000000e-02	2.321505205e-01	-4.090192575e-04	1.661262375e-11
-1.100000000e-02	2.321505213e-01	-4.066630093e-04	1.723060611e-11
-1.110000000e-02	2.321505222e-01	-4.043067611e-04	8.218766297e-12
-1.120000000e-02	2.321505229e-01	-4.019505130e-04	7.830029621e-12
-1.130000000e-02	2.321505236e-01	-3.995942649e-04	1.820026766e-11
-1.140000000e-02	2.321505242e-01	-3.972380169e-04	1.238775494e-11
-1.150000000e-02	2.321505247e-01	-3.948817689e-04	1.404942459e-11
-1.160000000e-02	2.321505251e-01	-3.925255210e-04	2.477610712e-11
-1.170000000e-02	2.321505255e-01	-3.901692731e-04	1.800685773e-11
-1.180000000e-02	2.321505258e-01	-3.878130252e-04	8.740542284e-12
-1.190000000e-02	2.321505261e-01	-3.854567775e-04	2.749942520e-11
-1.200000000e-02	2.321505262e-01	-3.831005298e-04	1.111061686e-11
-1.210000000e-02	2.321505263e-01	-3.807442822e-04	7.659371056e-12
-1.220000000e-02	2.321505264e-01	-3.783880346e-04	1.464887735e-11
-1.230000000e-02	2.321505263e-01	-3.760317872e-04	3.629931547e-11
-1.240000000e-02	2.321505262e-01	-3.736755398e-04	2.666236420e-11
-1.250000000e-02	2.321505260e-01	-3.713192925e-04	3.156880894e-11
-1.260000000e-02	2.321505257e-01	-3.689630453e-04	7.149987094e-12
-1.270000000e-02	2.321505254e-01	-3.666067981e-04	1.723981424e-11
-1.280000000e-02	2.321505250e-01	-3.642505511e-04	2.117066062e-11
-1.290000000e-02	2.321505245e-01	-3.618943042e-04	1.164811138e-11
-1.300000000e-02	2.321505240e-01	-3.595380574e-04	1.602745941e-11
-1.310000000e-02	2.321505233e-01	-3.571818107e-04	1.138495300e-11
-1.320000000e-02	2.321505226e-01	-3.548255641e-04	9.520240427e-12
-1.330000000e-02	2.321505219e-01	-3.524693176e-04	2.651515986e-11
-1.340000000e-02	2.321505210e-01	-3.501130712e-04	6.642614718e-12
-1.350000000e-02	2.321505201e-01	-3.477568249e-04	1.114807972e-11
-1.360000000e-02	2.321505192e-01	-3.454005788e-04	2.556010907e-11
-1.370000000e-02	2.321505181e-01	-3.430443328e-04	3.289856706e-11
-1.380000000e-02	2.321505170e-01	-3.406880870e-04	5.093019954e-11
-1.390000000e-02	2.321505158e-01	-3.383318412e-04	1.843944658e-11
-1.400000000e-02	2.321505145e-01	-3.359755957e-04	5.551924032e-12
-1.410000000e-02	2.321505132e-01	-3.336193502e-04	8.903402184e-12
-1.420000000e-02	2.321505118e-01	-3.312631049e-04	1.726958463e-11
-1.430000000e-02	2.321505103e-01	-3.289068598e-04	1.548012944e-11
-1.440000000e-02	2.321505087e-01	-3.265506148e-04	7.953453935e-12
-1.450000000e-02	2.321505071e-01	-3.241943699e-04	1.065203661e-11
-1.460000000e-02	2.321505054e-01	-3.218381253e-04	1.106008827e-11
-1.470000000e-02	2.321505036e-01	-3.194818808e-04	8.636181983e-12
-1.480000000e-02	2.321505018e-01	-3.171256364e-04	1.544694310e-11
-1.490000000e-02	2.321504999e-01	-3.147693923e-04	1.317281959e-11
-1.500000000e-02	2.321504979e-01	-3.124131483e-04	1.336275632e-11
-1.510000000e-02	2.321504958e-01	-3.100569045e-04	5.427499939e-12
-1.520000000e-02	2.321504937e-01	-3.077006608e-04	1.914866812e-11
-1.530000000e-02	2.321504915e-01	-3.053444174e-04	1.254059428e-11
-1.540000000e-02	2.321504892e-01	-3.029881742e-04	1.539292392e-11
-1.550000000e-02	2.321504869e-01	-3.006319311e-04	7.687348807e-12
-1.560000000e-02	2.321504845e-01	-2.982756883e-04	2.206896112e-11
-1.570000000e-02	2.321504820e-01	-2.959194456e-04	8.989194445e-12
-1.580000000e-02	2.321504794e-01	-2.935632032e-04	2.133604201e-11
-1.590000000e-02	2.321504768e-01	-2.912069609e-04	1.684980059e-11
-1.600000000e-02	2.321504741e-01	-2.888507189e-04	1.131727721e-11
-1.610000000e-02	2.321504713e-01	-2.864944771e-04	7.939156606e-12
-1.620000000e-02	2.321504685e-01	-2.841382355e-04	1.362723907e-11
-1.630000000e-02	2.321504656e-01	-2.817819941e-04	1.050975117e-10
-1.640000000e-02	2.321504626e-01	-2.794257530e-04	9.335719552e-12
-1.650000000e-02	2.321504595e-01	-2.770695121e-04	3.005011102e-11
-1.660000000e-02	2.321504564e-01	-2.747132714e-04	3.916102747e-11
-1.670000000e-02	2.321504532e-01	-2.723570310e-04	1.695551188e-11
-1.680000000e-02	2.321504499e-01	-2.700007908e-04	2.007834160e-11
-1.690000000e-02	2.321504466e-01	-2.676445508e-04	3.214469083e-11
-1.700000000e-02	2.321504431e-01	-2.652883111e-04	1.789659917e-11
-1.710000000e-02	2.321504397e-01	-2.629320717e-04	1.314409126e-11
-1.720000000e-02	2.321504361e-01	-2.605758325e-04	8.740087632e-11
-1.730000000e-02	2.321504325e-01	-2.582195935e-04	9.872426656e-12
-1.740000000e-02	2.321504288e-01	-2.558633549e-04	8.140833036e-12
-1.750000000e-02	2.321504250e-01	-2.535071165e-04	4.581124729e-11
-1.760000000e-02	2.321504211e-01	-2.511508783e-04	1.176496866e-11
-1.770000000e-02	2.321504172e-01	-2.487946405e-04	7.178161896e-12
-1.780000000e-02	2.321504132e-01	-2.464384029e-04	1.293764471e-11
-1.790000000e-02	2.321504092e-01	-2.440821656e-04	1.923770282e-11
-1.800000000e-02	2.321504050e-01	-2.417259286e-04	9.732015387e-12
-1.810000000e-02	2.321504008e-01	-2.393696918e-04	1.003236386e-11
-1.820000000e-02	2.321503965e-01	-2.370134554e-04	2.771804157e-11
-1.830000000e-02	2.321503922e-01	-2.346572193e-04	6.775351609e-12
-1.840000000e-02	2.321503878e-01	-2.323009834e-04	1.346584107e-11
-1.850000000e-02	2.321503833e-01	-2.299447479e-04	1.118494631e-11
-1.860000000e-02	2.321503787e-01	-2.275885127e-04	1.429479522e-11
-1.870000000e-02	2.321503741e-01	-2.252322778e-04	5.749230213e-12
-1.880000000e-02	2.321503694e-01	-2.228760432e-04	1.417909237e-11
-1.890000000e-02	2.321503646e-01	-2.205198089e-04	9.575602818e-12
-1.900000000e-02	2.321503597e-01	-2.181635749e-04	1.259178547e-11
-1.910000000e-02	2.321503548e-01	-2.158073413e-04	5.555284091e-12
-1.920000000e-02	2.321503498e-01	-2.134511080e-04	1.319259968e-11
-1.930000000e-02	2.321503447e-01	-2.110948750e-04	2.173832437e-11
-1.940000000e-02	2.321503396e-01	-2.087386424e-04	1.640290293e-11
-1.950000000e-02	2.321503344e-01	-2.063824101e-04	1.786270803e-11
-1.960000000e-02	2.321503291e-01	-2.040261781e-04	1.035071789e-11
-1.970000000e-02	2.321503237e-01	-2.016699465e-04	9.132358250e-12
-1.980000000e-02	2.321503183e-01	-1.993137152e-04	6.935464885e-12
-1.990000000e-02	2.321503128e-01	-1.969574843e-04	1.663793312e-11
-2.000000000e-02	2.321503072e-01	-1.946012538e-04	1.461992662e-11
-2.010000000e-02	2.321503016e-01	-1.922450236e-04	1.972176273e-11
-2.020000000e-02	2.321502959e-01	-1.898887938e-04	9.935756091e-12
-2.030000000e-02	2.321502901e-01	-1.875325643e-04	5.600268668e-12
-2.040000000e-02	2.321502843e-01	-1.851763353e-04	1.065019237e-11
-2.050000000e-02	2.321502783e-01	-1.828201066e-04	1.394309464e-11
-2.060000000e-02	2.321502723e-01	-1.804638782e-04	3.757144575e-11
-2.070000000e-02	2.321502663e-01	-1.781076503e-04	7.701312785e-11
-2.080000000e-02	2.321502601e-01	-1.757514228e-04	8.964357124e-12
-2.090000000e-02	2.321502539e-01	-1.733951956e-04	1.195598730e-11
-2.100000000e-02	2.321502476e-01	-1.710389688e-04	7.823385062e-12
-2.110000000e-02	2.321502412e-01	-1.686827425e-04	2.020377726e-10
-2.120000000e-02	2.321502348e-01	-1.663265165e-04	1.591580439e-11
-2.130000000e-02	2.321502283e-01	-1.639702909e-04	1.139331473e-11
-2.140000000e-02	2.321502217e-01	-1.616140658e-04	1.294283282e-11
-2.150000000e-02	2.321502151e-01	-1.592578410e-04	9.930986996e-12
-2.160000000e-02	2.321502084e-01	-1.569016167e-04	1.133808434e-11
-2.170000000e-02	2.321502016e-01	-1.545453928e-04	3.199832920e-11
-2.180000000e-02	2.321501947e-01	-1.521891693e-04	8.366238494e-12
-2.190000000e-02	2.321501878e-01	-1.498329463e-04	1.841982335e-10
-2.200000000e-02	2.321501808e-01	-1.474767237e-04	7.522179068e-12
-2.210000000e-02	2.321501737e-01	-1.451205015e-04	6.376105929e-11
-2.220000000e-02	2.321501666e-01	-1.427642797e-04	1.103902924e-11
-2.230000000e-02	2.321501593e-01	-1.404080584e-04	1.303857250e-11
-2.240000000e-02	2.321501521e-01	-1.380518375e-04	4.431439464e-11
-2.250000000e-02	2.321501447e-01	-1.356956171e-04	1.460208128e-11
-2.260000000e-02	2.321501373e-01	-1.333393972e-04	7.385531140e-12
-2.270000000e-02	2.321501298e-01	-1.309831776e-04	9.725149704e-12
-2.280000000e-02	2.321501222e-01	-1.286269586e-04	9.402716568e-12
-2.290000000e-02	2.321501145e-01	-1.262707400e-04	1.179166642e-11
-2.300000000e-02	2.321501068e-01	-1.239145219e-04	1.854231666e-11
-2.310000000e-02	2.321500990e-01	-1.215583043e-04	1.474092790e-11
-2.320000000e-02	2.321500912e-01	-1.192020871e-04	8.176111115e-12
-2.330000000e-02	2.321500832e-01	-1.168458704e-04	1.906928137e-11
-2.340000000e-02	2.321500752e-01	-1.144896542e-04	1.018369233e-11
-2.350000000e-02	2.321500671e-01	-1.121334384e-04	7.782059774e-12
-2.360000000e-02	2.321500590e-01	-1.097772232e-04	1.817449879e-11
-2.370000000e-02	2.321500508e-01	-1.074210085e-04	7.167018258e-12
-2.380000000e-02	2.321500425e-01	-1.050647942e-04	9.087788380e-12
-2.390000000e-02	2.321500341e-01	-1.027085805e-04	8.807033270e-12
-2.400000000e-02	2.321500257e-01	-1.003523672e-04	1.023243756e-11
-2.410000000e-02	2.321500171e-01	-9.799615447e-05	6.996281055e-12
-2.420000000e-02	2.321500086e-01	-9.563994224e-05	2.320022846e-11
-2.430000000e-02	2.321499999e-01	-9.328373052e-05	2.274923422e-11
-2.440000000e-02	2.321499912e-01	-9.092751933e-05	1.619834502e-11
-2.450000000e-02	2.321499824e-01	-8.857130865e-05	8.465416678e-12
-2.460000000e-02	2.321499735e-01	-8.621509850e-05	1.612447698e-11
-2.470000000e-02	2.321499646e-01	-8.385888887e-05	1.374974304e-11
-2.480000000e-02	2.321499556e-01	-8.150267979e-05	1.759828960e-11
-2.490000000e-02	2.321499465e-01	-7.914647123e-05	1.671383664e-11
-2.500000000e-02	2.321499373e-01	-7.679026322e-05	1.087990250e-11
-2.510000000e-02	2.321499281e-01	-7.443405575e-05	1.281500433e-11
-2.520000000e-02	2.321499188e-01	-7.207784882e-05	1.297289762e-11
-2.530000000e-02	2.321499094e-01	-6.972164245e-05	9.527335935e-12
-2.540000000e-02	2.321499000e-01	-6.736543663e-05	8.396146933e-12
-2.550000000e-02	2.321498905e-01	-6.500923137e-05	3.997745979e-12
-2.560000000e-02	2.321498809e-01	-6.265302667e-05	3.118556646e-11
-2.570000000e-02	2.321498712e-01	-6.029682253e-05	1.069615984e-11
-2.580000000e-02	2.321498615e-01	-5.794061897e-05	1.251635221e-11
-2.590000000e-02	2.321498517e-01	-5.558441597e-05	7.089592216e-12
-2.600000000e-02	2.321498418e-01	-5.322821356e-05	4.951339298e-11
-2.610000000e-02	2.321498319e-01	-5.087201172e-05	8.327531001e-12
-2.620000000e-02	2.321498219e-01	-4.851581046e-05	2.402228588e-11
-2.630000000e-02	2.321498118e-01	-4.615960980e-05	1.008096333e-11
-2.640000000e-02	2.321498016e-01	-4.380340972e-05	6.116932441e-11
-2.650000000e-02	2.321497914e-01	-4.144721024e-05	5.383040239e-11
-2.660000000e-02	2.321497811e-01	-3.909101135e-05	1.461586030e-11
-2.670000000e-02	2.321497707e-01	-3.673481307e-05	9.809919514e-12
-2.680000000e-02	2.321497603e-01	-3.437861539e-05	1.294855559e-11
-2.690000000e-02	2.321497498e-01	-3.202241832e-05	1.293587138e-11
-2.700000000e-02	2.321497392e-01	-2.966622186e-05	1.940997990e-11
-2.710000000e-02	2.321497285e-01	-2.731002601e-05	2.465835090e-10
-2.720000000e-02	2.321497178e-01	-2.495383080e-05	6.872612192e-12
-2.730000000e-02	2.321497070e-01	-2.259763620e-05	1.105167538e-11
-2.740000000e-02	2.321496961e-01	-2.024144223e-05	4.312698024e-11
-2.750000000e-02	2.321496851e-01	-1.788524889e-05	1.036779677e-11
-2.760000000e-02	2.321496741e-01	-1.552905618e-05	9.132354382e-12
-2.770000000e-02	2.321496630e-01	-1.317286412e-05	2.046399774e-11
-2.780000000e-02	2.321496519e-01	-1.081667269e-05	2.754769635e-11
-2.790000000e-02	2.321496406e-01	-8.460481904e-06	2.182046470e-11
-2.800000000e-02	2.321496293e-01	-6.104291771e-06	6.948905839e-12
-2.810000000e-02	2.321496180e-01	-3.748102290e-06	7.068751460e-12
-2.820000000e-02	2.321496065e-01	-1.391913466e-06	1.606035573e-11
-2.830000000e-02	2.321495950e-01	9.642747014e-07	3.609230738e-11
-2.840000000e-02	2.321495834e-01	3.320462202e-06	7.612082379e-12
-2.850000000e-02	2.321495717e-01	5.676649037e-06	6.264713166e-12
-2.860000000e-02	2.321495600e-01	8.032835202e-06	7.741691784e-12
-2.870000000e-02	2.321495482e-01	1.038902069e-05	3.297841732e-11
-2.880000000e-02	2.321495363e-01	1.274520550e-05	3.780491546e-11
-2.890000000e-02	2.321495243e-01	1.510138964e-05	7.401100886e-12
-2.900000000e-02	2.321495123e-01	1.745757308e-05	4.418711413e-11
-2.910000000e-02	2.321495002e-01	1.981375584e-05	2.308503437e-11
-2.920000000e-02	2.321494881e-01	2.216993791e-05	1.334842465e-11
-2.930000000e-02	2.321494758e-01	2.452611927e-05	1.635063200e-11
-2.940000000e-02	2.321494635e-01	2.688229994e-05	1.314803351e-11
-2.950000000e-02	2.321494511e-01	2.923847991e-05	1.785342888e-11
-2.960000000e-02	2.321494387e-01	3.159465917e-05	9.814277111e-12
-2.970000000e-02	2.321494262e-01	3.395083772e-05	1.042731016e-11
-2.980000000e-02	2.321494136e-01	3.630701555e-05	9.353922614e-12
-2.990000000e-02	2.321494009e-01	3.866319267e-05	4.343566866e-11
-3.000000000e-02	2.321493881e-01	4.101936906e-05	1.369711769e-11
