# Im(epsi1)     Re(omega/c)      Im(omega/c)      Eq(det).Opt det CON kz, R=0.5 \mum, mu_c=0.3, Re(epsi1)=3.90solve_det_conkz_vs_kz.py
0.000000000e+00	2.321571041e-01	-6.658760547e-04	1.939246078e-11
-1.000000000e-04	2.321571128e-01	-6.635197733e-04	1.284085348e-10
-2.000000000e-04	2.321571214e-01	-6.611634915e-04	1.628615616e-11
-3.000000000e-04	2.321571300e-01	-6.588072094e-04	3.851603075e-11
-4.000000000e-04	2.321571385e-01	-6.564509269e-04	1.360664132e-11
-5.000000000e-04	2.321571469e-01	-6.540946441e-04	9.523754674e-12
-6.000000000e-04	2.321571552e-01	-6.517383610e-04	1.423904550e-11
-7.000000000e-04	2.321571635e-01	-6.493820774e-04	1.993798186e-10
-8.000000000e-04	2.321571717e-01	-6.470257936e-04	1.254647714e-11
-9.000000000e-04	2.321571798e-01	-6.446695094e-04	8.974019660e-12
-1.000000000e-03	2.321571879e-01	-6.423132249e-04	8.389407521e-12
-1.100000000e-03	2.321571958e-01	-6.399569400e-04	5.420765613e-12
-1.200000000e-03	2.321572038e-01	-6.376006549e-04	1.397967217e-11
-1.300000000e-03	2.321572116e-01	-6.352443694e-04	2.387767787e-11
-1.400000000e-03	2.321572194e-01	-6.328880835e-04	2.770477625e-12
-1.500000000e-03	2.321572271e-01	-6.305317974e-04	5.896431467e-12
-1.600000000e-03	2.321572347e-01	-6.281755110e-04	1.541082449e-11
-1.700000000e-03	2.321572422e-01	-6.258192242e-04	1.078383801e-11
-1.800000000e-03	2.321572497e-01	-6.234629372e-04	1.258109451e-11
-1.900000000e-03	2.321572571e-01	-6.211066498e-04	1.016868464e-11
-2.000000000e-03	2.321572645e-01	-6.187503622e-04	4.711290363e-11
-2.100000000e-03	2.321572717e-01	-6.163940742e-04	2.299837721e-11
-2.200000000e-03	2.321572789e-01	-6.140377860e-04	1.540749757e-11
-2.300000000e-03	2.321572861e-01	-6.116814975e-04	1.609200690e-11
-2.400000000e-03	2.321572931e-01	-6.093252087e-04	8.123448355e-12
-2.500000000e-03	2.321573001e-01	-6.069689196e-04	9.803285185e-12
-2.600000000e-03	2.321573070e-01	-6.046126302e-04	1.863495551e-11
-2.700000000e-03	2.321573138e-01	-6.022563406e-04	2.672179519e-11
-2.800000000e-03	2.321573206e-01	-5.999000507e-04	1.062651807e-11
-2.900000000e-03	2.321573273e-01	-5.975437606e-04	1.228450314e-11
-3.000000000e-03	2.321573339e-01	-5.951874702e-04	1.066883060e-11
-3.100000000e-03	2.321573405e-01	-5.928311795e-04	5.807755075e-12
-3.200000000e-03	2.321573469e-01	-5.904748886e-04	1.541851724e-11
-3.300000000e-03	2.321573533e-01	-5.881185974e-04	1.506855755e-10
-3.400000000e-03	2.321573597e-01	-5.857623060e-04	1.004922722e-11
-3.500000000e-03	2.321573659e-01	-5.834060143e-04	7.710027440e-12
-3.600000000e-03	2.321573721e-01	-5.810497224e-04	1.363376046e-11
-3.700000000e-03	2.321573782e-01	-5.786934303e-04	9.625195287e-12
-3.800000000e-03	2.321573843e-01	-5.763371379e-04	1.255590965e-11
-3.900000000e-03	2.321573903e-01	-5.739808453e-04	1.237228681e-11
-4.000000000e-03	2.321573962e-01	-5.716245525e-04	1.615895957e-11
-4.100000000e-03	2.321574020e-01	-5.692682595e-04	2.975786165e-11
-4.200000000e-03	2.321574078e-01	-5.669119662e-04	1.448345090e-11
-4.300000000e-03	2.321574135e-01	-5.645556727e-04	9.506156882e-12
-4.400000000e-03	2.321574191e-01	-5.621993791e-04	1.092426263e-11
-4.500000000e-03	2.321574246e-01	-5.598430852e-04	1.896716422e-11
-4.600000000e-03	2.321574301e-01	-5.574867911e-04	1.046291532e-11
-4.700000000e-03	2.321574355e-01	-5.551304968e-04	1.597107615e-11
-4.800000000e-03	2.321574408e-01	-5.527742024e-04	9.923316037e-12
-4.900000000e-03	2.321574461e-01	-5.504179077e-04	5.281543792e-12
-5.000000000e-03	2.321574513e-01	-5.480616128e-04	1.427935673e-11
-5.100000000e-03	2.321574564e-01	-5.457053178e-04	2.001062914e-11
-5.200000000e-03	2.321574614e-01	-5.433490226e-04	2.282846167e-11
-5.300000000e-03	2.321574664e-01	-5.409927272e-04	1.187285209e-11
-5.400000000e-03	2.321574713e-01	-5.386364316e-04	8.275307199e-12
-5.500000000e-03	2.321574761e-01	-5.362801359e-04	9.229835653e-12
-5.600000000e-03	2.321574809e-01	-5.339238400e-04	6.825554267e-12
-5.700000000e-03	2.321574856e-01	-5.315675439e-04	1.349693309e-11
-5.800000000e-03	2.321574902e-01	-5.292112477e-04	9.175961594e-12
-5.900000000e-03	2.321574947e-01	-5.268549513e-04	1.259130333e-11
-6.000000000e-03	2.321574992e-01	-5.244986548e-04	2.070592038e-11
-6.100000000e-03	2.321575036e-01	-5.221423581e-04	9.588890666e-12
-6.200000000e-03	2.321575079e-01	-5.197860613e-04	8.888914553e-12
-6.300000000e-03	2.321575122e-01	-5.174297643e-04	1.377194465e-11
-6.400000000e-03	2.321575164e-01	-5.150734672e-04	1.522856282e-11
-6.500000000e-03	2.321575205e-01	-5.127171700e-04	1.825573894e-11
-6.600000000e-03	2.321575245e-01	-5.103608727e-04	9.184212031e-12
-6.700000000e-03	2.321575285e-01	-5.080045752e-04	1.309856144e-11
-6.800000000e-03	2.321575324e-01	-5.056482776e-04	1.473212371e-11
-6.900000000e-03	2.321575362e-01	-5.032919798e-04	1.012189258e-11
-7.000000000e-03	2.321575399e-01	-5.009356820e-04	9.268731135e-12
-7.100000000e-03	2.321575436e-01	-4.985793841e-04	2.710561984e-11
-7.200000000e-03	2.321575472e-01	-4.962230860e-04	1.483084737e-11
-7.300000000e-03	2.321575508e-01	-4.938667878e-04	1.765117961e-11
-7.400000000e-03	2.321575542e-01	-4.915104896e-04	1.677476663e-11
-7.500000000e-03	2.321575576e-01	-4.891541912e-04	2.352215774e-11
-7.600000000e-03	2.321575610e-01	-4.867978928e-04	1.593884193e-11
-7.700000000e-03	2.321575642e-01	-4.844415942e-04	8.931121687e-12
-7.800000000e-03	2.321575674e-01	-4.820852956e-04	1.373839786e-11
-7.900000000e-03	2.321575705e-01	-4.797289969e-04	1.816347713e-11
-8.000000000e-03	2.321575735e-01	-4.773726981e-04	1.651698128e-11
-8.100000000e-03	2.321575765e-01	-4.750163993e-04	2.573233261e-11
-8.200000000e-03	2.321575794e-01	-4.726601003e-04	1.248116516e-11
-8.300000000e-03	2.321575822e-01	-4.703038013e-04	8.133954000e-12
-8.400000000e-03	2.321575850e-01	-4.679475023e-04	6.063989243e-12
-8.500000000e-03	2.321575876e-01	-4.655912031e-04	1.038780862e-11
-8.600000000e-03	2.321575902e-01	-4.632349040e-04	1.787210437e-11
-8.700000000e-03	2.321575928e-01	-4.608786047e-04	1.264449333e-11
-8.800000000e-03	2.321575952e-01	-4.585223054e-04	1.813913922e-12
-8.900000000e-03	2.321575976e-01	-4.561660061e-04	4.872037936e-12
-9.000000000e-03	2.321575999e-01	-4.538097068e-04	1.121264224e-11
-9.100000000e-03	2.321576022e-01	-4.514534073e-04	2.667766073e-11
-9.200000000e-03	2.321576044e-01	-4.490971079e-04	1.002320260e-11
-9.300000000e-03	2.321576065e-01	-4.467408084e-04	1.928999514e-11
-9.400000000e-03	2.321576085e-01	-4.443845089e-04	7.761613312e-12
-9.500000000e-03	2.321576105e-01	-4.420282094e-04	1.066232685e-11
-9.600000000e-03	2.321576123e-01	-4.396719099e-04	1.044515707e-11
-9.700000000e-03	2.321576142e-01	-4.373156103e-04	1.483444684e-11
-9.800000000e-03	2.321576159e-01	-4.349593107e-04	8.125261202e-12
-9.900000000e-03	2.321576176e-01	-4.326030111e-04	3.731297320e-11
-1.000000000e-02	2.321576192e-01	-4.302467116e-04	1.091137758e-11
-1.010000000e-02	2.321576207e-01	-4.278904120e-04	6.717950630e-12
-1.020000000e-02	2.321576222e-01	-4.255341124e-04	2.691514707e-11
-1.030000000e-02	2.321576236e-01	-4.231778128e-04	1.313992696e-11
-1.040000000e-02	2.321576249e-01	-4.208215132e-04	1.164474614e-11
-1.050000000e-02	2.321576261e-01	-4.184652137e-04	3.740410411e-11
-1.060000000e-02	2.321576273e-01	-4.161089141e-04	1.098988113e-11
-1.070000000e-02	2.321576284e-01	-4.137526146e-04	7.422700398e-11
-1.080000000e-02	2.321576294e-01	-4.113963151e-04	5.283679144e-12
-1.090000000e-02	2.321576304e-01	-4.090400156e-04	1.000901210e-11
-1.100000000e-02	2.321576313e-01	-4.066837162e-04	9.931656234e-12
-1.110000000e-02	2.321576321e-01	-4.043274167e-04	8.430175883e-12
-1.120000000e-02	2.321576328e-01	-4.019711174e-04	1.825452133e-11
-1.130000000e-02	2.321576335e-01	-3.996148180e-04	1.009199946e-11
-1.140000000e-02	2.321576341e-01	-3.972585188e-04	1.490992879e-11
-1.150000000e-02	2.321576346e-01	-3.949022195e-04	1.123068596e-11
-1.160000000e-02	2.321576351e-01	-3.925459203e-04	1.126067865e-11
-1.170000000e-02	2.321576354e-01	-3.901896212e-04	1.100024397e-11
-1.180000000e-02	2.321576357e-01	-3.878333221e-04	2.638740408e-11
-1.190000000e-02	2.321576360e-01	-3.854770231e-04	6.952469948e-12
-1.200000000e-02	2.321576362e-01	-3.831207242e-04	1.931280982e-11
-1.210000000e-02	2.321576362e-01	-3.807644253e-04	3.745769488e-11
-1.220000000e-02	2.321576363e-01	-3.784081265e-04	1.487684805e-11
-1.230000000e-02	2.321576362e-01	-3.760518278e-04	1.835350883e-11
-1.240000000e-02	2.321576361e-01	-3.736955292e-04	1.965419536e-11
-1.250000000e-02	2.321576359e-01	-3.713392306e-04	1.185171563e-11
-1.260000000e-02	2.321576356e-01	-3.689829322e-04	1.668854280e-11
-1.270000000e-02	2.321576353e-01	-3.666266338e-04	1.123003064e-11
-1.280000000e-02	2.321576349e-01	-3.642703355e-04	7.553142876e-12
-1.290000000e-02	2.321576344e-01	-3.619140374e-04	1.273960934e-11
-1.300000000e-02	2.321576339e-01	-3.595577393e-04	1.439035302e-11
-1.310000000e-02	2.321576333e-01	-3.572014413e-04	3.050393645e-11
-1.320000000e-02	2.321576326e-01	-3.548451435e-04	1.185955905e-11
-1.330000000e-02	2.321576318e-01	-3.524888458e-04	1.247797912e-11
-1.340000000e-02	2.321576310e-01	-3.501325481e-04	3.356511088e-11
-1.350000000e-02	2.321576301e-01	-3.477762506e-04	1.399313908e-10
-1.360000000e-02	2.321576291e-01	-3.454199533e-04	7.260819026e-12
-1.370000000e-02	2.321576280e-01	-3.430636560e-04	1.109393093e-11
-1.380000000e-02	2.321576269e-01	-3.407073589e-04	4.056921534e-12
-1.390000000e-02	2.321576257e-01	-3.383510619e-04	1.426501544e-11
-1.400000000e-02	2.321576244e-01	-3.359947651e-04	2.346807952e-11
-1.410000000e-02	2.321576231e-01	-3.336384684e-04	6.535960752e-12
-1.420000000e-02	2.321576217e-01	-3.312821719e-04	1.904940418e-11
-1.430000000e-02	2.321576202e-01	-3.289258755e-04	2.331912761e-11
-1.440000000e-02	2.321576187e-01	-3.265695793e-04	1.155152137e-11
-1.450000000e-02	2.321576170e-01	-3.242132832e-04	1.295683754e-11
-1.460000000e-02	2.321576153e-01	-3.218569873e-04	1.171347709e-11
-1.470000000e-02	2.321576136e-01	-3.195006915e-04	3.495876876e-11
-1.480000000e-02	2.321576117e-01	-3.171443959e-04	2.163494292e-11
-1.490000000e-02	2.321576098e-01	-3.147881005e-04	5.303110953e-12
-1.500000000e-02	2.321576078e-01	-3.124318053e-04	1.323913677e-11
-1.510000000e-02	2.321576058e-01	-3.100755102e-04	8.413282677e-12
-1.520000000e-02	2.321576036e-01	-3.077192153e-04	1.094682742e-11
-1.530000000e-02	2.321576014e-01	-3.053629207e-04	9.598380786e-12
-1.540000000e-02	2.321575992e-01	-3.030066262e-04	5.184266549e-11
-1.550000000e-02	2.321575968e-01	-3.006503319e-04	1.090908029e-11
-1.560000000e-02	2.321575944e-01	-2.982940378e-04	6.608973988e-11
-1.570000000e-02	2.321575919e-01	-2.959377439e-04	2.075490670e-11
-1.580000000e-02	2.321575894e-01	-2.935814502e-04	5.756791902e-12
-1.590000000e-02	2.321575867e-01	-2.912251567e-04	9.597950070e-12
-1.600000000e-02	2.321575840e-01	-2.888688634e-04	7.809544628e-12
-1.610000000e-02	2.321575813e-01	-2.865125703e-04	3.028639792e-11
-1.620000000e-02	2.321575784e-01	-2.841562775e-04	3.014658372e-11
-1.630000000e-02	2.321575755e-01	-2.817999849e-04	5.394383377e-11
-1.640000000e-02	2.321575725e-01	-2.794436925e-04	1.610503657e-11
-1.650000000e-02	2.321575695e-01	-2.770874004e-04	1.308569853e-10
-1.660000000e-02	2.321575663e-01	-2.747311084e-04	1.453077775e-11
-1.670000000e-02	2.321575631e-01	-2.723748167e-04	3.857998254e-11
-1.680000000e-02	2.321575598e-01	-2.700185253e-04	8.385704632e-12
-1.690000000e-02	2.321575565e-01	-2.676622341e-04	1.192383688e-11
-1.700000000e-02	2.321575531e-01	-2.653059432e-04	1.759020831e-11
-1.710000000e-02	2.321575496e-01	-2.629496525e-04	1.161528568e-11
-1.720000000e-02	2.321575460e-01	-2.605933620e-04	8.707575756e-12
-1.730000000e-02	2.321575424e-01	-2.582370718e-04	1.315381075e-11
-1.740000000e-02	2.321575387e-01	-2.558807819e-04	2.046078787e-11
-1.750000000e-02	2.321575349e-01	-2.535244923e-04	1.645800397e-11
-1.760000000e-02	2.321575311e-01	-2.511682029e-04	9.159868613e-12
-1.770000000e-02	2.321575271e-01	-2.488119138e-04	7.095353005e-12
-1.780000000e-02	2.321575232e-01	-2.464556250e-04	1.931527958e-11
-1.790000000e-02	2.321575191e-01	-2.440993364e-04	9.010905258e-12
-1.800000000e-02	2.321575150e-01	-2.417430481e-04	9.559756870e-12
-1.810000000e-02	2.321575107e-01	-2.393867602e-04	2.226528484e-11
-1.820000000e-02	2.321575065e-01	-2.370304725e-04	1.346804258e-11
-1.830000000e-02	2.321575021e-01	-2.346741851e-04	7.303471349e-12
-1.840000000e-02	2.321574977e-01	-2.323178980e-04	8.418948751e-12
-1.850000000e-02	2.321574932e-01	-2.299616113e-04	1.389775592e-11
-1.860000000e-02	2.321574886e-01	-2.276053248e-04	6.856924408e-12
-1.870000000e-02	2.321574840e-01	-2.252490386e-04	1.828857560e-11
-1.880000000e-02	2.321574793e-01	-2.228927528e-04	2.568383199e-11
-1.890000000e-02	2.321574745e-01	-2.205364672e-04	5.527666740e-11
-1.900000000e-02	2.321574697e-01	-2.181801820e-04	2.095960859e-11
-1.910000000e-02	2.321574647e-01	-2.158238971e-04	7.848159882e-12
-1.920000000e-02	2.321574597e-01	-2.134676126e-04	3.373011708e-11
-1.930000000e-02	2.321574547e-01	-2.111113284e-04	8.536422124e-12
-1.940000000e-02	2.321574495e-01	-2.087550445e-04	1.253313751e-11
-1.950000000e-02	2.321574443e-01	-2.063987609e-04	1.745673547e-11
-1.960000000e-02	2.321574390e-01	-2.040424777e-04	7.351332066e-12
-1.970000000e-02	2.321574337e-01	-2.016861949e-04	6.310394545e-12
-1.980000000e-02	2.321574283e-01	-1.993299124e-04	1.970479778e-11
-1.990000000e-02	2.321574228e-01	-1.969736302e-04	1.076011281e-11
-2.000000000e-02	2.321574172e-01	-1.946173484e-04	2.687338306e-11
-2.010000000e-02	2.321574115e-01	-1.922610670e-04	1.036026967e-11
-2.020000000e-02	2.321574058e-01	-1.899047859e-04	1.328132413e-11
-2.030000000e-02	2.321574001e-01	-1.875485052e-04	1.972481347e-11
-2.040000000e-02	2.321573942e-01	-1.851922249e-04	4.584196860e-11
-2.050000000e-02	2.321573883e-01	-1.828359450e-04	8.058841302e-11
-2.060000000e-02	2.321573823e-01	-1.804796654e-04	1.628696607e-11
-2.070000000e-02	2.321573762e-01	-1.781233862e-04	1.876675720e-11
-2.080000000e-02	2.321573701e-01	-1.757671074e-04	9.212878532e-12
-2.090000000e-02	2.321573638e-01	-1.734108290e-04	1.712887515e-11
-2.100000000e-02	2.321573576e-01	-1.710545510e-04	7.067892294e-12
-2.110000000e-02	2.321573512e-01	-1.686982734e-04	1.388857378e-11
-2.120000000e-02	2.321573448e-01	-1.663419961e-04	9.108676825e-12
-2.130000000e-02	2.321573383e-01	-1.639857193e-04	7.338401062e-12
-2.140000000e-02	2.321573317e-01	-1.616294429e-04	1.051002384e-11
-2.150000000e-02	2.321573250e-01	-1.592731670e-04	2.870515735e-11
-2.160000000e-02	2.321573183e-01	-1.569168914e-04	1.390997586e-11
-2.170000000e-02	2.321573115e-01	-1.545606162e-04	1.801697731e-11
-2.180000000e-02	2.321573047e-01	-1.522043415e-04	8.865237764e-12
-2.190000000e-02	2.321572977e-01	-1.498480672e-04	7.758190440e-12
-2.200000000e-02	2.321572907e-01	-1.474917933e-04	5.151984569e-12
-2.210000000e-02	2.321572837e-01	-1.451355199e-04	1.287521920e-11
-2.220000000e-02	2.321572765e-01	-1.427792469e-04	5.802851528e-12
-2.230000000e-02	2.321572693e-01	-1.404229743e-04	1.940550725e-11
-2.240000000e-02	2.321572620e-01	-1.380667022e-04	6.780343031e-12
-2.250000000e-02	2.321572546e-01	-1.357104306e-04	9.813789572e-12
-2.260000000e-02	2.321572472e-01	-1.333541593e-04	1.585696810e-11
-2.270000000e-02	2.321572397e-01	-1.309978886e-04	4.710761287e-11
-2.280000000e-02	2.321572321e-01	-1.286416183e-04	7.795362311e-12
-2.290000000e-02	2.321572245e-01	-1.262853485e-04	8.294474716e-12
-2.300000000e-02	2.321572168e-01	-1.239290791e-04	1.289880362e-11
-2.310000000e-02	2.321572090e-01	-1.215728102e-04	1.345873355e-11
-2.320000000e-02	2.321572011e-01	-1.192165418e-04	4.050224822e-11
-2.330000000e-02	2.321571932e-01	-1.168602738e-04	3.059039027e-11
-2.340000000e-02	2.321571852e-01	-1.145040064e-04	2.614985971e-11
-2.350000000e-02	2.321571771e-01	-1.121477394e-04	2.226522076e-11
-2.360000000e-02	2.321571689e-01	-1.097914729e-04	1.174861120e-11
-2.370000000e-02	2.321571607e-01	-1.074352069e-04	8.048342137e-12
-2.380000000e-02	2.321571524e-01	-1.050789414e-04	2.727008475e-11
-2.390000000e-02	2.321571440e-01	-1.027226764e-04	2.384603289e-11
-2.400000000e-02	2.321571356e-01	-1.003664119e-04	9.870448112e-12
-2.410000000e-02	2.321571271e-01	-9.801014793e-05	1.240364651e-11
-2.420000000e-02	2.321571185e-01	-9.565388445e-05	8.215824814e-12
-2.430000000e-02	2.321571099e-01	-9.329762149e-05	2.730413722e-11
-2.440000000e-02	2.321571011e-01	-9.094135904e-05	1.066162860e-11
-2.450000000e-02	2.321570923e-01	-8.858509712e-05	1.653761846e-11
-2.460000000e-02	2.321570835e-01	-8.622883572e-05	3.437053560e-12
-2.470000000e-02	2.321570745e-01	-8.387257485e-05	1.756246377e-11
-2.480000000e-02	2.321570655e-01	-8.151631451e-05	2.866404435e-11
-2.490000000e-02	2.321570564e-01	-7.916005470e-05	4.563451576e-11
-2.500000000e-02	2.321570473e-01	-7.680379544e-05	1.376046738e-11
-2.510000000e-02	2.321570381e-01	-7.444753672e-05	8.152665110e-12
-2.520000000e-02	2.321570288e-01	-7.209127855e-05	3.656961793e-11
-2.530000000e-02	2.321570194e-01	-6.973502093e-05	1.395874266e-11
-2.540000000e-02	2.321570099e-01	-6.737876386e-05	8.413921196e-12
-2.550000000e-02	2.321570004e-01	-6.502250735e-05	3.519397071e-12
-2.560000000e-02	2.321569909e-01	-6.266625140e-05	1.099077260e-11
-2.570000000e-02	2.321569812e-01	-6.030999602e-05	7.196091584e-12
-2.580000000e-02	2.321569715e-01	-5.795374121e-05	8.036513572e-12
-2.590000000e-02	2.321569617e-01	-5.559748696e-05	1.310756119e-11
-2.600000000e-02	2.321569518e-01	-5.324123330e-05	1.151993724e-11
-2.610000000e-02	2.321569418e-01	-5.088498021e-05	2.557704384e-11
-2.620000000e-02	2.321569318e-01	-4.852872771e-05	6.933441316e-12
-2.630000000e-02	2.321569217e-01	-4.617247579e-05	2.011532837e-11
-2.640000000e-02	2.321569116e-01	-4.381622447e-05	1.375687341e-11
-2.650000000e-02	2.321569014e-01	-4.145997373e-05	1.810471320e-11
-2.660000000e-02	2.321568911e-01	-3.910372360e-05	7.052733959e-12
-2.670000000e-02	2.321568807e-01	-3.674747407e-05	1.077214216e-11
-2.680000000e-02	2.321568702e-01	-3.439122514e-05	1.534354563e-11
-2.690000000e-02	2.321568597e-01	-3.203497682e-05	2.247476995e-11
-2.700000000e-02	2.321568491e-01	-2.967872912e-05	1.827799565e-11
-2.710000000e-02	2.321568385e-01	-2.732248203e-05	1.395408541e-11
-2.720000000e-02	2.321568277e-01	-2.496623556e-05	2.109575892e-11
-2.730000000e-02	2.321568169e-01	-2.260998971e-05	2.115167309e-11
-2.740000000e-02	2.321568061e-01	-2.025374449e-05	2.006749329e-11
-2.750000000e-02	2.321567951e-01	-1.789749990e-05	1.811028174e-11
-2.760000000e-02	2.321567841e-01	-1.554125595e-05	7.348768443e-12
-2.770000000e-02	2.321567730e-01	-1.318501263e-05	1.696527220e-11
-2.780000000e-02	2.321567618e-01	-1.082876995e-05	1.061877191e-11
-2.790000000e-02	2.321567506e-01	-8.472527921e-06	1.308259867e-11
-2.800000000e-02	2.321567393e-01	-6.116286540e-06	1.541315749e-11
-2.810000000e-02	2.321567279e-01	-3.760045816e-06	1.859810437e-10
-2.820000000e-02	2.321567165e-01	-1.403805736e-06	1.370582996e-11
-2.830000000e-02	2.321567049e-01	9.524336775e-07	2.701427459e-11
-2.840000000e-02	2.321566934e-01	3.308672430e-06	2.279077890e-11
-2.850000000e-02	2.321566817e-01	5.664910513e-06	6.674964263e-12
-2.860000000e-02	2.321566700e-01	8.021147927e-06	1.594323598e-11
-2.870000000e-02	2.321566581e-01	1.037738467e-05	8.888605556e-11
-2.880000000e-02	2.321566463e-01	1.273362073e-05	1.773556902e-11
-2.890000000e-02	2.321566343e-01	1.508985611e-05	2.590057482e-11
-2.900000000e-02	2.321566223e-01	1.744609080e-05	2.398312864e-11
-2.910000000e-02	2.321566102e-01	1.980232481e-05	1.126776265e-11
-2.920000000e-02	2.321565980e-01	2.215855812e-05	1.285355295e-11
-2.930000000e-02	2.321565858e-01	2.451479074e-05	1.091499021e-11
-2.940000000e-02	2.321565735e-01	2.687102266e-05	7.748185123e-12
-2.950000000e-02	2.321565611e-01	2.922725387e-05	8.428200506e-12
-2.960000000e-02	2.321565486e-01	3.158348438e-05	5.070409887e-11
-2.970000000e-02	2.321565361e-01	3.393971418e-05	1.066825026e-11
-2.980000000e-02	2.321565235e-01	3.629594326e-05	7.933752184e-12
-2.990000000e-02	2.321565109e-01	3.865217163e-05	7.988249719e-12
-3.000000000e-02	2.321564981e-01	4.100839927e-05	1.470739950e-11
