# kz [1/micrones]     Omega [THz]    log10(|det|)     , $\mu_c$ = 0.3000 eV, modo = 1, R = 4.50$\mu$m, $\eta$ = 0.90, plot_det_conkz.py
3.00000000000e-01	9.80822101608e+00	-3.53443268778e+00
3.10000000000e-01	9.93017592601e+00	-3.58769601695e+00
3.20000000000e-01	1.00512292870e+01	-3.63908350844e+00
3.30000000000e-01	1.01713000708e+01	-3.68871916746e+00
3.40000000000e-01	1.02903216382e+01	-3.73671536029e+00
3.50000000000e-01	1.04082402704e+01	-3.78317424503e+00
3.60000000000e-01	1.05250138028e+01	-3.82818897805e+00
3.70000000000e-01	1.06406103735e+01	-3.87184474005e+00
3.80000000000e-01	1.07550072238e+01	-3.91421961512e+00
3.90000000000e-01	1.08681896129e+01	-3.95538534881e+00
4.00000000000e-01	1.09801498269e+01	-3.99540800572e+00
4.10000000000e-01	1.10908862771e+01	-4.03434854280e+00
4.20000000000e-01	1.12004026331e+01	-4.07226331158e+00
4.30000000000e-01	1.13087071151e+01	-4.10920449992e+00
4.40000000000e-01	1.14158118000e+01	-4.14522052208e+00
4.50000000000e-01	1.15217319988e+01	-4.18035636440e+00
4.60000000000e-01	1.16264857484e+01	-4.21465389248e+00
4.70000000000e-01	1.17300932871e+01	-4.24815212524e+00
4.80000000000e-01	1.18325766572e+01	-4.28088747973e+00
4.90000000000e-01	1.19339593030e+01	-4.31289399079e+00
5.00000000000e-01	1.20342657688e+01	-4.34420350827e+00
5.10000000000e-01	1.21335213649e+01	-4.37484587472e+00
5.20000000000e-01	1.22317519491e+01	-4.40484908573e+00
5.30000000000e-01	1.23289836860e+01	-4.43423943494e+00
5.40000000000e-01	1.24252428612e+01	-4.46304164546e+00
5.50000000000e-01	1.25205557336e+01	-4.49127898908e+00
5.60000000000e-01	1.26149483710e+01	-4.51897339474e+00
5.70000000000e-01	1.27084465548e+01	-4.54614554729e+00
5.80000000000e-01	1.28010756834e+01	-4.57281497756e+00
5.90000000000e-01	1.28928606637e+01	-4.59900014468e+00
6.00000000000e-01	1.29838259078e+01	-4.62471851133e+00
6.10000000000e-01	1.30739951812e+01	-4.64998661274e+00
6.20000000000e-01	1.31633916804e+01	-4.67482011993e+00
6.30000000000e-01	1.32520379045e+01	-4.69923389783e+00
6.40000000000e-01	1.33399556925e+01	-4.72324205870e+00
6.50000000000e-01	1.34271661899e+01	-4.74685801131e+00
6.60000000000e-01	1.35136898244e+01	-4.77009450630e+00
6.70000000000e-01	1.35995463484e+01	-4.79296367797e+00
6.80000000000e-01	1.36847547924e+01	-4.81547708299e+00
6.90000000000e-01	1.37693334991e+01	-4.83764573606e+00
7.00000000000e-01	1.38533001260e+01	-4.85948014303e+00
7.10000000000e-01	1.39366716562e+01	-4.88099033150e+00
7.20000000000e-01	1.40194644257e+01	-4.90218587928e+00
7.30000000000e-01	1.41016941128e+01	-4.92307594074e+00
7.40000000000e-01	1.41833757816e+01	-4.94366927134e+00
7.50000000000e-01	1.42645238864e+01	-4.96397425038e+00
7.60000000000e-01	1.43451523114e+01	-4.98399890226e+00
7.70000000000e-01	1.44252743679e+01	-5.00375091623e+00
7.80000000000e-01	1.45049028060e+01	-5.02323766481e+00
7.90000000000e-01	1.45840498650e+01	-5.04246622097e+00
8.00000000000e-01	1.46627272834e+01	-5.06144337421e+00
8.10000000000e-01	1.47409463128e+01	-5.08017564557e+00
8.20000000000e-01	1.48187177352e+01	-5.09866930163e+00
8.30000000000e-01	1.48960518924e+01	-5.11693036771e+00
8.40000000000e-01	1.49729587040e+01	-5.13496464011e+00
8.50000000000e-01	1.50494476828e+01	-5.15277769771e+00
8.60000000000e-01	1.51255279399e+01	-5.17037491276e+00
8.70000000000e-01	1.52012082321e+01	-5.18776146105e+00
8.80000000000e-01	1.52764969616e+01	-5.20494233148e+00
8.90000000000e-01	1.53514021766e+01	-5.22192233499e+00
9.00000000000e-01	1.54259316307e+01	-5.23870611308e+00
9.10000000000e-01	1.55000927478e+01	-5.25529814567e+00
9.20000000000e-01	1.55738926740e+01	-5.27170275869e+00
9.30000000000e-01	1.56473382635e+01	-5.28792413105e+00
9.40000000000e-01	1.57204361226e+01	-5.30396630136e+00
9.50000000000e-01	1.57931926046e+01	-5.31983317420e+00
9.60000000000e-01	1.58656138023e+01	-5.33552852605e+00
9.70000000000e-01	1.59377056140e+01	-5.35105601091e+00
9.80000000000e-01	1.60094736926e+01	-5.36641916559e+00
9.90000000000e-01	1.60809235061e+01	-5.38162141478e+00
1.00000000000e+00	1.61520603084e+01	-5.39666607573e+00
1.01000000000e+00	1.62228891891e+01	-5.41155636281e+00
1.02000000000e+00	1.62934150379e+01	-5.42629539175e+00
1.03000000000e+00	1.63636425814e+01	-5.44088618371e+00
1.04000000000e+00	1.64335764046e+01	-5.45533166908e+00
1.05000000000e+00	1.65032209196e+01	-5.46963469117e+00
1.06000000000e+00	1.65725803931e+01	-5.48379800966e+00
1.07000000000e+00	1.66416589686e+01	-5.49782430385e+00
1.08000000000e+00	1.67104606487e+01	-5.51171617587e+00
1.09000000000e+00	1.67789893122e+01	-5.52547615357e+00
1.10000000000e+00	1.68472487134e+01	-5.53910669343e+00
1.11000000000e+00	1.69152424926e+01	-5.55261018319e+00
1.12000000000e+00	1.69829741993e+01	-5.56598894449e+00
1.13000000000e+00	1.70504472597e+01	-5.57924523524e+00
1.14000000000e+00	1.71176650094e+01	-5.59238125205e+00
1.15000000000e+00	1.71846306865e+01	-5.60539913238e+00
1.16000000000e+00	1.72513474367e+01	-5.61830095671e+00
1.17000000000e+00	1.73178183332e+01	-5.63108875056e+00
1.18000000000e+00	1.73840463616e+01	-5.64376448642e+00
1.19000000000e+00	1.74500344145e+01	-5.65633008565e+00
1.20000000000e+00	1.75157853240e+01	-5.66878742019e+00
1.21000000000e+00	1.75813018516e+01	-5.68113831431e+00
1.22000000000e+00	1.76465866879e+01	-5.69338454621e+00
1.23000000000e+00	1.77116424533e+01	-5.70552784957e+00
1.24000000000e+00	1.77764717035e+01	-5.71756991506e+00
1.25000000000e+00	1.78410769348e+01	-5.72951239175e+00
1.26000000000e+00	1.79054606120e+01	-5.74135688848e+00
1.27000000000e+00	1.79696250998e+01	-5.75310497518e+00
1.28000000000e+00	1.80335727322e+01	-5.76475818411e+00
1.29000000000e+00	1.80973058000e+01	-5.77631801108e+00
1.30000000000e+00	1.81608265242e+01	-5.78778591660e+00
1.31000000000e+00	1.82241371139e+01	-5.79916332702e+00
1.32000000000e+00	1.82872396734e+01	-5.81045163556e+00
1.33000000000e+00	1.83501363146e+01	-5.82165220333e+00
1.34000000000e+00	1.84128291017e+01	-5.83276636037e+00
1.35000000000e+00	1.84753200256e+01	-5.84379540655e+00
1.36000000000e+00	1.85376110802e+01	-5.85474061251e+00
1.37000000000e+00	1.85997041855e+01	-5.86560322051e+00
1.38000000000e+00	1.86616012439e+01	-5.87638444530e+00
1.39000000000e+00	1.87233041158e+01	-5.88708547492e+00
1.40000000000e+00	1.87848146405e+01	-5.89770747150e+00
1.41000000000e+00	1.88461346022e+01	-5.90825157199e+00
1.42000000000e+00	1.89072657747e+01	-5.91871888888e+00
1.43000000000e+00	1.89682098705e+01	-5.92911051095e+00
1.44000000000e+00	1.90289686035e+01	-5.93942750391e+00
1.45000000000e+00	1.90895436584e+01	-5.94967091103e+00
1.46000000000e+00	1.91499366751e+01	-5.95984175381e+00
1.47000000000e+00	1.92101492504e+01	-5.96994103258e+00
1.48000000000e+00	1.92701829992e+01	-5.97996972705e+00
1.49000000000e+00	1.93300394843e+01	-5.98992879692e+00
1.50000000000e+00	1.93897202272e+01	-5.99981918241e+00
1.51000000000e+00	1.94492267749e+01	-6.00964180475e+00
1.52000000000e+00	1.95085605852e+01	-6.01939756675e+00
1.53000000000e+00	1.95677231480e+01	-6.02908735327e+00
1.54000000000e+00	1.96267159150e+01	-6.03871203165e+00
1.55000000000e+00	1.96855402873e+01	-6.04827245226e+00
1.56000000000e+00	1.97441976893e+01	-6.05776944885e+00
1.57000000000e+00	1.98026894979e+01	-6.06720383904e+00
1.58000000000e+00	1.98610170714e+01	-6.07657642474e+00
1.59000000000e+00	1.99191817573e+01	-6.08588799249e+00
1.60000000000e+00	1.99771848752e+01	-6.09513931393e+00
1.61000000000e+00	2.00350277321e+01	-6.10433114613e+00
1.62000000000e+00	2.00927116144e+01	-6.11346423195e+00
1.63000000000e+00	2.01502377880e+01	-6.12253930044e+00
1.64000000000e+00	2.02076075085e+01	-6.13155706713e+00
1.65000000000e+00	2.02648220113e+01	-6.14051823438e+00
1.66000000000e+00	2.03218825066e+01	-6.14942349174e+00
1.67000000000e+00	2.03787901921e+01	-6.15827351620e+00
1.68000000000e+00	2.04355462655e+01	-6.16706897253e+00
1.69000000000e+00	2.04921518903e+01	-6.17581051357e+00
1.70000000000e+00	2.05486082149e+01	-6.18449878052e+00
1.71000000000e+00	2.06049163709e+01	-6.19313440319e+00
1.72000000000e+00	2.06610775092e+01	-6.20171800031e+00
1.73000000000e+00	2.07170927135e+01	-6.21025017974e+00
1.74000000000e+00	2.07729630873e+01	-6.21873153877e+00
1.75000000000e+00	2.08286897172e+01	-6.22716266434e+00
1.76000000000e+00	2.08842736702e+01	-6.23554413328e+00
1.77000000000e+00	2.09397159982e+01	-6.24387651253e+00
1.78000000000e+00	2.09950177422e+01	-6.25216035942e+00
1.79000000000e+00	2.10501799322e+01	-6.26039622181e+00
1.80000000000e+00	2.11052035905e+01	-6.26858463835e+00
1.81000000000e+00	2.11600897095e+01	-6.27672613869e+00
1.82000000000e+00	2.12148392863e+01	-6.28482124364e+00
1.83000000000e+00	2.12694533015e+01	-6.29287046543e+00
1.84000000000e+00	2.13239327324e+01	-6.30087430782e+00
1.85000000000e+00	2.13782785177e+01	-6.30883326635e+00
1.86000000000e+00	2.14324916207e+01	-6.31674782850e+00
1.87000000000e+00	2.14865729647e+01	-6.32461847384e+00
1.88000000000e+00	2.15405234816e+01	-6.33244567423e+00
1.89000000000e+00	2.15943440684e+01	-6.34022989398e+00
1.90000000000e+00	2.16480356508e+01	-6.34797159000e+00
1.91000000000e+00	2.17015991062e+01	-6.35567121195e+00
1.92000000000e+00	2.17550353237e+01	-6.36332920242e+00
1.93000000000e+00	2.18083451698e+01	-6.37094599707e+00
1.94000000000e+00	2.18615295094e+01	-6.37852202474e+00
1.95000000000e+00	2.19145891934e+01	-6.38605770764e+00
1.96000000000e+00	2.19675250719e+01	-6.39355346146e+00
1.97000000000e+00	2.20203379652e+01	-6.40100969551e+00
1.98000000000e+00	2.20730287091e+01	-6.40842681284e+00
1.99000000000e+00	2.21255981236e+01	-6.41580521039e+00
2.00000000000e+00	2.21780469984e+01	-6.42314527908e+00
2.01000000000e+00	2.22303761595e+01	-6.43044740397e+00
2.02000000000e+00	2.22825863619e+01	-6.43771196434e+00
2.03000000000e+00	2.23346784090e+01	-6.44493933385e+00
2.04000000000e+00	2.23866530690e+01	-6.45212988058e+00
2.05000000000e+00	2.24385111027e+01	-6.45928396723e+00
2.06000000000e+00	2.24902532760e+01	-6.46640195114e+00
2.07000000000e+00	2.25418803225e+01	-6.47348418447e+00
2.08000000000e+00	2.25933929851e+01	-6.48053101422e+00
2.09000000000e+00	2.26447920041e+01	-6.48754278241e+00
2.10000000000e+00	2.26960781045e+01	-6.49451982613e+00
2.11000000000e+00	2.27472519962e+01	-6.50146247763e+00
2.12000000000e+00	2.27983143908e+01	-6.50837106444e+00
2.13000000000e+00	2.28492660038e+01	-6.51524590944e+00
2.14000000000e+00	2.29001075208e+01	-6.52208733095e+00
2.15000000000e+00	2.29508396174e+01	-6.52889564282e+00
2.16000000000e+00	2.30014629995e+01	-6.53567115450e+00
2.17000000000e+00	2.30519783200e+01	-6.54241417117e+00
2.18000000000e+00	2.31023862641e+01	-6.54912499373e+00
2.19000000000e+00	2.31526874802e+01	-6.55580391897e+00
2.20000000000e+00	2.32028826204e+01	-6.56245123959e+00
2.21000000000e+00	2.32529723562e+01	-6.56906724429e+00
2.22000000000e+00	2.33029573046e+01	-6.57565221785e+00
2.23000000000e+00	2.33528380931e+01	-6.58220644119e+00
2.24000000000e+00	2.34026153864e+01	-6.58873019145e+00
2.25000000000e+00	2.34522897777e+01	-6.59522374203e+00
2.26000000000e+00	2.35018618947e+01	-6.60168736272e+00
2.27000000000e+00	2.35513323479e+01	-6.60812131967e+00
2.28000000000e+00	2.36007017379e+01	-6.61452587554e+00
2.29000000000e+00	2.36499706633e+01	-6.62090128952e+00
2.30000000000e+00	2.36991397154e+01	-6.62724781740e+00
2.31000000000e+00	2.37482094889e+01	-6.63356571163e+00
2.32000000000e+00	2.37971805693e+01	-6.63985522136e+00
2.33000000000e+00	2.38460535118e+01	-6.64611659253e+00
2.34000000000e+00	2.38948289153e+01	-6.65235006791e+00
2.35000000000e+00	2.39435073196e+01	-6.65855588713e+00
2.36000000000e+00	2.39920892921e+01	-6.66473428677e+00
2.37000000000e+00	2.40405754003e+01	-6.67088550042e+00
2.38000000000e+00	2.40889661804e+01	-6.67700975866e+00
2.39000000000e+00	2.41372621895e+01	-6.68310728920e+00
2.40000000000e+00	2.41854639497e+01	-6.68917831687e+00
2.41000000000e+00	2.42335720047e+01	-6.69522306368e+00
2.42000000000e+00	2.42815868956e+01	-6.70124174889e+00
2.43000000000e+00	2.43295091154e+01	-6.70723458902e+00
2.44000000000e+00	2.43773392168e+01	-6.71320179792e+00
2.45000000000e+00	2.44250777004e+01	-6.71914358681e+00
2.46000000000e+00	2.44727250830e+01	-6.72506016432e+00
2.47000000000e+00	2.45202818568e+01	-6.73095173653e+00
2.48000000000e+00	2.45677485330e+01	-6.73681850700e+00
2.49000000000e+00	2.46151256146e+01	-6.74266067684e+00
2.50000000000e+00	2.46624135763e+01	-6.74847844473e+00
