# kz [1/micrones]     Omega [THz]    log10(|det|)     , $\mu_c$ = 0.6000 eV, modo = 1, R = 0.80$\mu$m, $\eta$ = 0.90, plot_det_conkz.py
3.00000000000e-01	2.44695681311e+01	-1.48755929325e+00
3.10000000000e-01	2.45000940777e+01	-1.54886649665e+00
3.20000000000e-01	2.45315676299e+01	-1.60794473357e+00
3.30000000000e-01	2.45639807168e+01	-1.66495633556e+00
3.40000000000e-01	2.45973252629e+01	-1.72004579345e+00
3.50000000000e-01	2.46315927214e+01	-1.77334234011e+00
3.60000000000e-01	2.46667742760e+01	-1.82496207556e+00
3.70000000000e-01	2.47028608961e+01	-1.87500972949e+00
3.80000000000e-01	2.47398432895e+01	-1.92358013347e+00
3.90000000000e-01	2.47777119361e+01	-1.97075945904e+00
4.00000000000e-01	2.48164571387e+01	-2.01662626536e+00
4.10000000000e-01	2.48560689717e+01	-2.06125239085e+00
4.20000000000e-01	2.48965373417e+01	-2.10470371619e+00
4.30000000000e-01	2.49378519755e+01	-2.14704082053e+00
4.40000000000e-01	2.49800024522e+01	-2.18831954845e+00
4.50000000000e-01	2.50229781918e+01	-2.22859150216e+00
4.60000000000e-01	2.50667684749e+01	-2.26790447044e+00
4.70000000000e-01	2.51113624683e+01	-2.30630280392e+00
4.80000000000e-01	2.51567492085e+01	-2.34382774479e+00
4.90000000000e-01	2.52029176392e+01	-2.38051771728e+00
5.00000000000e-01	2.52498565934e+01	-2.41640858458e+00
5.10000000000e-01	2.52975548164e+01	-2.45153387675e+00
5.20000000000e-01	2.53460009840e+01	-2.48592499348e+00
5.30000000000e-01	2.53951836901e+01	-2.51961138499e+00
5.40000000000e-01	2.54450914733e+01	-2.55262071392e+00
5.50000000000e-01	2.54957128213e+01	-2.58497900049e+00
5.60000000000e-01	2.55470361663e+01	-2.61671075308e+00
5.70000000000e-01	2.55990499072e+01	-2.64783908583e+00
5.80000000000e-01	2.56517424165e+01	-2.67838582497e+00
5.90000000000e-01	2.57051020403e+01	-2.70837160504e+00
6.00000000000e-01	2.57591171026e+01	-2.73781595613e+00
6.10000000000e-01	2.58137759302e+01	-2.76673738321e+00
6.20000000000e-01	2.58690668328e+01	-2.79515343839e+00
6.30000000000e-01	2.59249781456e+01	-2.82308078678e+00
6.40000000000e-01	2.59814981864e+01	-2.85053526673e+00
6.50000000000e-01	2.60386153137e+01	-2.87753194497e+00
6.60000000000e-01	2.60963178975e+01	-2.90408516710e+00
6.70000000000e-01	2.61545943313e+01	-2.93020860406e+00
6.80000000000e-01	2.62134330511e+01	-2.95591529479e+00
6.90000000000e-01	2.62728225280e+01	-2.98121768554e+00
7.00000000000e-01	2.63327512793e+01	-3.00612766613e+00
7.10000000000e-01	2.63932078618e+01	-3.03065660346e+00
7.20000000000e-01	2.64541809009e+01	-3.05481537244e+00
7.30000000000e-01	2.65156590599e+01	-3.07861438469e+00
7.40000000000e-01	2.65776310880e+01	-3.10206361513e+00
7.50000000000e-01	2.66400857863e+01	-3.12517262663e+00
7.60000000000e-01	2.67030120194e+01	-3.14795059296e+00
7.70000000000e-01	2.67663987480e+01	-3.17040632008e+00
7.80000000000e-01	2.68302349897e+01	-3.19254826606e+00
7.90000000000e-01	2.68945098601e+01	-3.21438455956e+00
8.00000000000e-01	2.69592125409e+01	-3.23592301712e+00
8.10000000000e-01	2.70243323148e+01	-3.25717115928e+00
8.20000000000e-01	2.70898585534e+01	-3.27813622574e+00
8.30000000000e-01	2.71557807225e+01	-3.29882518941e+00
8.40000000000e-01	2.72220883805e+01	-3.31924476969e+00
8.50000000000e-01	2.72887711831e+01	-3.33940144486e+00
8.60000000000e-01	2.73558188968e+01	-3.35930146374e+00
8.70000000000e-01	2.74232213744e+01	-3.37895085661e+00
8.80000000000e-01	2.74909685892e+01	-3.39835544550e+00
8.90000000000e-01	2.75590506200e+01	-3.41752085385e+00
9.00000000000e-01	2.76274576449e+01	-3.43645251565e+00
9.10000000000e-01	2.76961799639e+01	-3.45515568397e+00
9.20000000000e-01	2.77652079774e+01	-3.47363543909e+00
9.30000000000e-01	2.78345322111e+01	-3.49189669610e+00
9.40000000000e-01	2.79041433045e+01	-3.50994421214e+00
9.50000000000e-01	2.79740320031e+01	-3.52778259319e+00
9.60000000000e-01	2.80441891794e+01	-3.54541630052e+00
9.70000000000e-01	2.81146058187e+01	-3.56284965678e+00
9.80000000000e-01	2.81852730305e+01	-3.58008685177e+00
9.90000000000e-01	2.82561820423e+01	-3.59713194791e+00
1.00000000000e+00	2.83273241952e+01	-3.61398888543e+00
1.01000000000e+00	2.83986909543e+01	-3.63066148726e+00
1.02000000000e+00	2.84702739215e+01	-3.64715346374e+00
1.03000000000e+00	2.85420647923e+01	-3.66346841698e+00
1.04000000000e+00	2.86140554182e+01	-3.67960984518e+00
1.05000000000e+00	2.86862377375e+01	-3.69558114651e+00
1.06000000000e+00	2.87586038365e+01	-3.71138562303e+00
1.07000000000e+00	2.88311459095e+01	-3.72702648423e+00
1.08000000000e+00	2.89038562851e+01	-3.74250685056e+00
1.09000000000e+00	2.89767274080e+01	-3.75782975664e+00
1.10000000000e+00	2.90497518376e+01	-3.77299815447e+00
1.11000000000e+00	2.91229222671e+01	-3.78801491637e+00
1.12000000000e+00	2.91962315050e+01	-3.80288283786e+00
1.13000000000e+00	2.92696724947e+01	-3.81760464038e+00
1.14000000000e+00	2.93432382653e+01	-3.83218297391e+00
1.15000000000e+00	2.94169220082e+01	-3.84662041942e+00
1.16000000000e+00	2.94907170044e+01	-3.86091949128e+00
1.17000000000e+00	2.95646166706e+01	-3.87508263953e+00
1.18000000000e+00	2.96386145331e+01	-3.88911225205e+00
1.19000000000e+00	2.97127042415e+01	-3.90301065664e+00
1.20000000000e+00	2.97868795541e+01	-3.91678012305e+00
1.21000000000e+00	2.98611343606e+01	-3.93042286483e+00
1.22000000000e+00	2.99354626481e+01	-3.94394104122e+00
1.23000000000e+00	3.00098585364e+01	-3.95733675888e+00
1.24000000000e+00	3.00843162405e+01	-3.97061207360e+00
1.25000000000e+00	3.01588301047e+01	-3.98376899186e+00
1.26000000000e+00	3.02333945691e+01	-3.99680947247e+00
1.27000000000e+00	3.03080042003e+01	-4.00973542799e+00
1.28000000000e+00	3.03826536724e+01	-4.02254872617e+00
1.29000000000e+00	3.04573377494e+01	-4.03525119138e+00
1.30000000000e+00	3.05320513329e+01	-4.04784460589e+00
1.31000000000e+00	3.06067894046e+01	-4.06033071111e+00
1.32000000000e+00	3.06815470691e+01	-4.07271120892e+00
1.33000000000e+00	3.07563195216e+01	-4.08498776273e+00
1.34000000000e+00	3.08311020761e+01	-4.09716199869e+00
1.35000000000e+00	3.09058901380e+01	-4.10923550677e+00
1.36000000000e+00	3.09806792256e+01	-4.12120984177e+00
1.37000000000e+00	3.10554649330e+01	-4.13308652440e+00
1.38000000000e+00	3.11302429767e+01	-4.14486704221e+00
1.39000000000e+00	3.12050091614e+01	-4.15655285055e+00
1.40000000000e+00	3.12797593851e+01	-4.16814537345e+00
1.41000000000e+00	3.13544896487e+01	-4.17964600455e+00
1.42000000000e+00	3.14291960451e+01	-4.19105610792e+00
1.43000000000e+00	3.15038747604e+01	-4.20237701883e+00
1.44000000000e+00	3.15785220517e+01	-4.21361004463e+00
1.45000000000e+00	3.16531343019e+01	-4.22475646544e+00
1.46000000000e+00	3.17277079487e+01	-4.23581753490e+00
1.47000000000e+00	3.18022395490e+01	-4.24679448090e+00
1.48000000000e+00	3.18767257208e+01	-4.25768850625e+00
1.49000000000e+00	3.19511631729e+01	-4.26850078936e+00
1.50000000000e+00	3.20255487178e+01	-4.27923248484e+00
1.51000000000e+00	3.20998792178e+01	-4.28988472419e+00
1.52000000000e+00	3.21741516423e+01	-4.30045861633e+00
1.53000000000e+00	3.22483630246e+01	-4.31095524824e+00
1.54000000000e+00	3.23225104896e+01	-4.32137568548e+00
1.55000000000e+00	3.23965912314e+01	-4.33172097276e+00
1.56000000000e+00	3.24706025235e+01	-4.34199213444e+00
1.57000000000e+00	3.25445417163e+01	-4.35219017509e+00
1.58000000000e+00	3.26184062344e+01	-4.36231607993e+00
1.59000000000e+00	3.26921935682e+01	-4.37237081534e+00
1.60000000000e+00	3.27659012838e+01	-4.38235532934e+00
1.61000000000e+00	3.28395270244e+01	-4.39227055198e+00
1.62000000000e+00	3.29130684885e+01	-4.40211739586e+00
1.63000000000e+00	3.29865234563e+01	-4.41189675649e+00
1.64000000000e+00	3.30598897634e+01	-4.42160951271e+00
1.65000000000e+00	3.31331653202e+01	-4.43125652713e+00
1.66000000000e+00	3.32063480987e+01	-4.44083864646e+00
1.67000000000e+00	3.32794361320e+01	-4.45035670194e+00
1.68000000000e+00	3.33524275119e+01	-4.45981150965e+00
1.69000000000e+00	3.34253204022e+01	-4.46920387092e+00
1.70000000000e+00	3.34981130176e+01	-4.47853457263e+00
1.71000000000e+00	3.35708036294e+01	-4.48780438757e+00
1.72000000000e+00	3.36433905782e+01	-4.49701407474e+00
1.73000000000e+00	3.37158722557e+01	-4.50616437970e+00
1.74000000000e+00	3.37882471051e+01	-4.51525603483e+00
1.75000000000e+00	3.38605136247e+01	-4.52428975968e+00
1.76000000000e+00	3.39326703736e+01	-4.53326626123e+00
1.77000000000e+00	3.40047159463e+01	-4.54218623416e+00
1.78000000000e+00	3.40766490219e+01	-4.55105036115e+00
1.79000000000e+00	3.41484682861e+01	-4.55985931314e+00
1.80000000000e+00	3.42201725073e+01	-4.56861374955e+00
1.81000000000e+00	3.42917604872e+01	-4.57731431862e+00
1.82000000000e+00	3.43632310819e+01	-4.58596165757e+00
1.83000000000e+00	3.44345831918e+01	-4.59455639285e+00
1.84000000000e+00	3.45058157528e+01	-4.60309914044e+00
1.85000000000e+00	3.45769277690e+01	-4.61159050599e+00
1.86000000000e+00	3.46479182603e+01	-4.62003108509e+00
1.87000000000e+00	3.47187863015e+01	-4.62842146347e+00
1.88000000000e+00	3.47895310210e+01	-4.63676221722e+00
1.89000000000e+00	3.48601515673e+01	-4.64505391297e+00
1.90000000000e+00	3.49306471402e+01	-4.65329710811e+00
1.91000000000e+00	3.50010169749e+01	-4.66149235098e+00
1.92000000000e+00	3.50712603565e+01	-4.66964018104e+00
1.93000000000e+00	3.51413765824e+01	-4.67774112908e+00
1.94000000000e+00	3.52113650049e+01	-4.68579571739e+00
1.95000000000e+00	3.52812250194e+01	-4.69380445990e+00
1.96000000000e+00	3.53509560370e+01	-4.70176786242e+00
1.97000000000e+00	3.54205575125e+01	-4.70968642272e+00
1.98000000000e+00	3.54900289326e+01	-4.71756063079e+00
1.99000000000e+00	3.55593698147e+01	-4.72539096889e+00
2.00000000000e+00	3.56285797178e+01	-4.73317791179e+00
2.01000000000e+00	3.56976582176e+01	-4.74092192688e+00
2.02000000000e+00	3.57666049204e+01	-4.74862347432e+00
2.03000000000e+00	3.58354194795e+01	-4.75628300720e+00
2.04000000000e+00	3.59041015684e+01	-4.76390097165e+00
2.05000000000e+00	3.59726508807e+01	-4.77147780699e+00
2.06000000000e+00	3.60410671323e+01	-4.77901394588e+00
2.07000000000e+00	3.61093500930e+01	-4.78650981441e+00
2.08000000000e+00	3.61774995420e+01	-4.79396583229e+00
2.09000000000e+00	3.62455152718e+01	-4.80138241289e+00
2.10000000000e+00	3.63133971256e+01	-4.80875996343e+00
2.11000000000e+00	3.63811449500e+01	-4.81609888506e+00
2.12000000000e+00	3.64487586191e+01	-4.82339957301e+00
2.13000000000e+00	3.65162380410e+01	-4.83066241664e+00
2.14000000000e+00	3.65835831425e+01	-4.83788779963e+00
2.15000000000e+00	3.66507938591e+01	-4.84507610002e+00
2.16000000000e+00	3.67178701661e+01	-4.85222769036e+00
2.17000000000e+00	3.67848120414e+01	-4.85934293778e+00
2.18000000000e+00	3.68516194968e+01	-4.86642220412e+00
2.19000000000e+00	3.69182925551e+01	-4.87346584598e+00
2.20000000000e+00	3.69848312691e+01	-4.88047421490e+00
2.21000000000e+00	3.70512356997e+01	-4.88744765735e+00
2.22000000000e+00	3.71175059289e+01	-4.89438651491e+00
2.23000000000e+00	3.71836420467e+01	-4.90129112430e+00
2.24000000000e+00	3.72496441840e+01	-4.90816181750e+00
2.25000000000e+00	3.73155124777e+01	-4.91499892184e+00
2.26000000000e+00	3.73812470571e+01	-4.92180276004e+00
2.27000000000e+00	3.74468481003e+01	-4.92857365034e+00
2.28000000000e+00	3.75123157890e+01	-4.93531190656e+00
2.29000000000e+00	3.75776503070e+01	-4.94201783817e+00
2.30000000000e+00	3.76428518694e+01	-4.94869175041e+00
2.31000000000e+00	3.77079207035e+01	-4.95533394428e+00
2.32000000000e+00	3.77728570363e+01	-4.96194471671e+00
2.33000000000e+00	3.78376611199e+01	-4.96852436056e+00
2.34000000000e+00	3.79023332159e+01	-4.97507316474e+00
2.35000000000e+00	3.79668735956e+01	-4.98159141424e+00
2.36000000000e+00	3.80312825490e+01	-4.98807939021e+00
2.37000000000e+00	3.80955603705e+01	-4.99453737006e+00
2.38000000000e+00	3.81597073680e+01	-5.00096562746e+00
2.39000000000e+00	3.82237238556e+01	-5.00736443245e+00
2.40000000000e+00	3.82876101650e+01	-5.01373405151e+00
2.41000000000e+00	3.83513666369e+01	-5.02007474757e+00
2.42000000000e+00	3.84149936191e+01	-5.02638678012e+00
2.43000000000e+00	3.84784914646e+01	-5.03267040525e+00
2.44000000000e+00	3.85418605362e+01	-5.03892587569e+00
2.45000000000e+00	3.86051012204e+01	-5.04515344090e+00
2.46000000000e+00	3.86682139002e+01	-5.05135334710e+00
2.47000000000e+00	3.87311989528e+01	-5.05752583732e+00
2.48000000000e+00	3.87940567820e+01	-5.06367115149e+00
2.49000000000e+00	3.88567878010e+01	-5.06978952643e+00
2.50000000000e+00	3.89193924208e+01	-5.07588119597e+00
