# R [micrones]     Omega/c [1/micrones]    Im(epsi1)     Eq(det)$\mu$ = 0.3 eV, $E_p$ = 0.150 eV, modo = 1, $\epsilon_\infty$ = 3.9, $\gamma_{DL}$ = 0.01 eV, solve_det_sinkz_vs_R2.py
5.000000000e-03	1.264151777e+00	-1.863208145e-01	5.887222837e-13
6.000000000e-03	1.178645630e+00	-1.648887613e-01	2.842170943e-14
7.000000000e-03	1.109795234e+00	-1.508683172e-01	7.105427358e-14
8.000000000e-03	1.052922487e+00	-1.413887374e-01	1.185909449e-13
9.000000000e-03	1.004987490e+00	-1.349028119e-01	2.653915166e-13
1.000000000e-02	9.639226077e-01	-1.305007149e-01	4.908180348e-13
1.100000000e-02	9.282682066e-01	-1.276106799e-01	2.690931441e-13
1.200000000e-02	8.969616425e-01	-1.258540921e-01	9.655034602e-14
1.300000000e-02	8.692090242e-01	-1.249694236e-01	2.048613898e-13
1.400000000e-02	8.444040530e-01	-1.247696348e-01	1.318937477e-13
1.500000000e-02	8.220748490e-01	-1.251170150e-01	5.651634989e-14
1.600000000e-02	8.018480599e-01	-1.259076481e-01	1.138012719e-13
1.700000000e-02	7.834239969e-01	-1.270614535e-01	5.595524044e-14
1.800000000e-02	7.665590153e-01	-1.285155890e-01	1.047033906e-13
1.900000000e-02	7.510527735e-01	-1.302199582e-01	1.008972248e-13
2.000000000e-02	7.367388548e-01	-1.321340718e-01	1.052641320e-13
2.100000000e-02	7.234777514e-01	-1.342248076e-01	2.265951866e-13
2.200000000e-02	7.111515405e-01	-1.364647806e-01	1.637431050e-13
2.300000000e-02	6.996597902e-01	-1.388311346e-01	1.367217905e-13
2.400000000e-02	6.889163747e-01	-1.413046333e-01	1.353561765e-13
2.500000000e-02	6.788469684e-01	-1.438689662e-01	3.580361673e-14
2.600000000e-02	6.693870554e-01	-1.465102118e-01	9.103828802e-14
2.700000000e-02	6.604803337e-01	-1.492164172e-01	8.920004655e-14
2.800000000e-02	6.520774245e-01	-1.519772654e-01	1.892153593e-13
2.900000000e-02	6.441348207e-01	-1.547838093e-01	1.070844495e-13
3.000000000e-02	6.366140238e-01	-1.576282572e-01	8.945614701e-14
3.100000000e-02	6.294808299e-01	-1.605037980e-01	1.598381885e-13
3.200000000e-02	6.227047367e-01	-1.634044579e-01	1.421003937e-13
3.300000000e-02	6.162584470e-01	-1.663249820e-01	1.063871756e-13
3.400000000e-02	6.101174510e-01	-1.692607355e-01	2.188675097e-13
3.500000000e-02	6.042596729e-01	-1.722076215e-01	8.933150014e-14
3.600000000e-02	5.986651709e-01	-1.751620110e-01	2.395630794e-13
3.700000000e-02	5.933158811e-01	-1.781206842e-01	3.901772953e-13
3.800000000e-02	5.881953972e-01	-1.810807803e-01	1.189769612e-13
3.900000000e-02	5.832887818e-01	-1.840397543e-01	2.665157836e-13
4.000000000e-02	5.785824025e-01	-1.869953403e-01	6.505906924e-14
4.100000000e-02	5.740637901e-01	-1.899455193e-01	1.054805362e-13
4.200000000e-02	5.697215150e-01	-1.928884919e-01	1.788870771e-13
4.300000000e-02	5.655450793e-01	-1.958226537e-01	1.152067044e-13
4.400000000e-02	5.615248220e-01	-1.987465750e-01	7.116659488e-14
4.500000000e-02	5.576518361e-01	-2.016589815e-01	5.437917255e-14
4.600000000e-02	5.539178950e-01	-2.045587387e-01	2.693818389e-13
4.700000000e-02	5.503153878e-01	-2.074448376e-01	1.222627277e-13
4.800000000e-02	5.468372618e-01	-2.103163815e-01	9.740402366e-14
4.900000000e-02	5.434769713e-01	-2.131725756e-01	9.319692439e-14
5.000000000e-02	5.402284325e-01	-2.160127162e-01	1.056374728e-13
5.100000000e-02	5.370859822e-01	-2.188361827e-01	3.969888198e-13
5.200000000e-02	5.340443421e-01	-2.216424289e-01	7.266399094e-14
5.300000000e-02	5.310985858e-01	-2.244309763e-01	1.231109186e-13
5.400000000e-02	5.282441095e-01	-2.272014078e-01	2.485164494e-13
5.500000000e-02	5.254766059e-01	-2.299533618e-01	4.508267942e-13
5.600000000e-02	5.227920399e-01	-2.326865271e-01	2.100981135e-13
5.700000000e-02	5.201866274e-01	-2.354006383e-01	1.875779216e-13
5.800000000e-02	5.176568159e-01	-2.380954718e-01	1.975957461e-13
5.900000000e-02	5.151992663e-01	-2.407708416e-01	9.481304630e-14
6.000000000e-02	5.128108376e-01	-2.434265962e-01	3.558970521e-14
6.100000000e-02	5.104885713e-01	-2.460626157e-01	2.398821768e-13
6.200000000e-02	5.082296791e-01	-2.486788082e-01	4.075868241e-13
6.300000000e-02	5.060315299e-01	-2.512751081e-01	1.435758770e-13
6.400000000e-02	5.038916393e-01	-2.538514733e-01	4.287724442e-13
6.500000000e-02	5.018076587e-01	-2.564078833e-01	1.724530548e-13
6.600000000e-02	4.997773667e-01	-2.589443370e-01	1.276833709e-13
6.700000000e-02	4.977986602e-01	-2.614608511e-01	1.304020156e-13
6.800000000e-02	4.958695463e-01	-2.639574585e-01	1.243481508e-13
6.900000000e-02	4.939881355e-01	-2.664342070e-01	1.164573150e-13
7.000000000e-02	4.921526346e-01	-2.688911574e-01	4.898336194e-14
7.100000000e-02	4.903613409e-01	-2.713283830e-01	1.665707530e-13
7.200000000e-02	4.886126362e-01	-2.737459677e-01	1.073713672e-13
7.300000000e-02	4.869049817e-01	-2.761440056e-01	1.076238541e-13
7.400000000e-02	4.852369131e-01	-2.785225997e-01	1.925013074e-13
7.500000000e-02	4.836070361e-01	-2.808818612e-01	1.061861000e-13
7.600000000e-02	4.820140222e-01	-2.832219086e-01	1.130326998e-13
7.700000000e-02	4.804566048e-01	-2.855428668e-01	6.901679287e-13
7.800000000e-02	4.789335756e-01	-2.878448669e-01	4.181283273e-14
7.900000000e-02	4.774437813e-01	-2.901280450e-01	2.016704157e-13
8.000000000e-02	4.759861203e-01	-2.923925421e-01	1.993233768e-13
8.100000000e-02	4.745595400e-01	-2.946385033e-01	1.722769954e-13
8.200000000e-02	4.731630340e-01	-2.968660774e-01	2.292272884e-13
8.300000000e-02	4.717956394e-01	-2.990754165e-01	9.101122231e-14
8.400000000e-02	4.704564348e-01	-3.012666755e-01	1.064563357e-13
8.500000000e-02	4.691445377e-01	-3.034400117e-01	1.981997261e-13
8.600000000e-02	4.678591027e-01	-3.055955846e-01	1.032734208e-13
8.700000000e-02	4.665993193e-01	-3.077335556e-01	9.291658066e-14
8.800000000e-02	4.653644103e-01	-3.098540872e-01	4.675349525e-13
8.900000000e-02	4.641536303e-01	-3.119573436e-01	5.472715432e-14
9.000000000e-02	4.629662633e-01	-3.140434898e-01	8.614731545e-14
9.100000000e-02	4.618016222e-01	-3.161126913e-01	2.109849387e-13
9.200000000e-02	4.606590465e-01	-3.181651146e-01	1.899920302e-13
9.300000000e-02	4.595379019e-01	-3.202009261e-01	2.397777495e-13
9.400000000e-02	4.584375780e-01	-3.222202927e-01	8.497348510e-14
9.500000000e-02	4.573574879e-01	-3.242233811e-01	5.139388348e-14
9.600000000e-02	4.562970669e-01	-3.262103580e-01	5.364653258e-13
9.700000000e-02	4.552557712e-01	-3.281813896e-01	1.243619407e-13
9.800000000e-02	4.542330774e-01	-3.301366419e-01	1.634180505e-13
9.900000000e-02	4.532284810e-01	-3.320762804e-01	4.796218078e-14
1.000000000e-01	4.522414959e-01	-3.340004697e-01	1.482992431e-13
1.010000000e-01	4.512716536e-01	-3.359093740e-01	1.338548253e-13
1.020000000e-01	4.503185020e-01	-3.378031563e-01	1.142492857e-13
1.030000000e-01	4.493816052e-01	-3.396819792e-01	1.305004829e-13
1.040000000e-01	4.484605425e-01	-3.415460038e-01	1.342255619e-13
1.050000000e-01	4.475549077e-01	-3.433953906e-01	1.231088787e-13
1.060000000e-01	4.466643084e-01	-3.452302988e-01	2.576102377e-13
1.070000000e-01	4.457883659e-01	-3.470508864e-01	2.251083411e-13
1.080000000e-01	4.449267139e-01	-3.488573104e-01	1.806678536e-13
1.090000000e-01	4.440789986e-01	-3.506497264e-01	2.364558200e-13
1.100000000e-01	4.432448778e-01	-3.524282887e-01	1.354657835e-13
1.110000000e-01	4.424240205e-01	-3.541931504e-01	1.410585540e-13
1.120000000e-01	4.416161066e-01	-3.559444633e-01	2.747292358e-13
1.130000000e-01	4.408208262e-01	-3.576823777e-01	8.437886718e-14
1.140000000e-01	4.400378794e-01	-3.594070425e-01	1.483577967e-13
1.150000000e-01	4.392669758e-01	-3.611186053e-01	3.410514464e-13
1.160000000e-01	4.385078342e-01	-3.628172121e-01	1.566337902e-13
1.170000000e-01	4.377601820e-01	-3.645030076e-01	1.170773345e-13
1.180000000e-01	4.370237553e-01	-3.661761351e-01	9.926202569e-14
1.190000000e-01	4.362982981e-01	-3.678367361e-01	6.357313866e-14
1.200000000e-01	4.355835623e-01	-3.694849511e-01	9.873828640e-14
1.210000000e-01	4.348793072e-01	-3.711209188e-01	1.854708248e-13
1.220000000e-01	4.341852994e-01	-3.727447764e-01	2.523212346e-13
1.230000000e-01	4.335013126e-01	-3.743566597e-01	1.009772140e-13
1.240000000e-01	4.328271268e-01	-3.759567031e-01	9.272459891e-14
1.250000000e-01	4.321625289e-01	-3.775450393e-01	1.238135661e-13
1.260000000e-01	4.315073116e-01	-3.791217998e-01	8.648267250e-14
1.270000000e-01	4.308612738e-01	-3.806871142e-01	1.382277630e-13
1.280000000e-01	4.302242201e-01	-3.822411110e-01	1.280177446e-13
1.290000000e-01	4.295959607e-01	-3.837839172e-01	1.463649194e-13
1.300000000e-01	4.289763112e-01	-3.853156580e-01	1.795975174e-13
1.310000000e-01	4.283650921e-01	-3.868364575e-01	1.591029779e-13
1.320000000e-01	4.277621293e-01	-3.883464382e-01	1.099216708e-13
1.330000000e-01	4.271672532e-01	-3.898457211e-01	1.676599456e-13
1.340000000e-01	4.265802990e-01	-3.913344259e-01	1.452616522e-13
1.350000000e-01	4.260011062e-01	-3.928126707e-01	1.512726258e-13
1.360000000e-01	4.254295190e-01	-3.942805724e-01	1.053625779e-13
1.370000000e-01	4.248653854e-01	-3.957382464e-01	1.037967836e-13
1.380000000e-01	4.243085577e-01	-3.971858066e-01	1.058721543e-13
1.390000000e-01	4.237588919e-01	-3.986233657e-01	1.050677114e-13
1.400000000e-01	4.232162480e-01	-4.000510349e-01	7.087994227e-14
1.410000000e-01	4.226804896e-01	-4.014689241e-01	1.269724486e-13
1.420000000e-01	4.221514837e-01	-4.028771419e-01	2.315353548e-13
1.430000000e-01	4.216291010e-01	-4.042757954e-01	1.948769723e-13
1.440000000e-01	4.211132152e-01	-4.056649906e-01	1.316884601e-13
1.450000000e-01	4.206037034e-01	-4.070448320e-01	1.085615939e-13
1.460000000e-01	4.201004457e-01	-4.084154231e-01	2.384793832e-13
1.470000000e-01	4.196033254e-01	-4.097768657e-01	6.652823309e-14
1.480000000e-01	4.191122285e-01	-4.111292607e-01	4.910708113e-14
1.490000000e-01	4.186270439e-01	-4.124727076e-01	2.031167379e-13
1.500000000e-01	4.181476632e-01	-4.138073047e-01	7.656265733e-14
1.510000000e-01	4.176739808e-01	-4.151331491e-01	5.823500762e-14
1.520000000e-01	4.172058935e-01	-4.164503365e-01	9.334081232e-14
1.530000000e-01	4.167433006e-01	-4.177589618e-01	1.604696351e-13
1.540000000e-01	4.162861040e-01	-4.190591183e-01	1.063361889e-13
1.550000000e-01	4.158342077e-01	-4.203508984e-01	1.560644360e-13
1.560000000e-01	4.153875181e-01	-4.216343933e-01	1.508755536e-13
1.570000000e-01	4.149459438e-01	-4.229096930e-01	1.071256528e-13
1.580000000e-01	4.145093955e-01	-4.241768865e-01	1.006997415e-13
1.590000000e-01	4.140777861e-01	-4.254360615e-01	2.342962432e-13
1.600000000e-01	4.136510303e-01	-4.266873048e-01	1.394921339e-13
1.610000000e-01	4.132290451e-01	-4.279307019e-01	7.851673134e-14
1.620000000e-01	4.128117489e-01	-4.291663375e-01	1.447270810e-13
1.630000000e-01	4.123990625e-01	-4.303942951e-01	7.873070473e-14
1.640000000e-01	4.119909081e-01	-4.316146572e-01	7.821066646e-14
1.650000000e-01	4.115872098e-01	-4.328275052e-01	1.155965578e-13
1.660000000e-01	4.111878934e-01	-4.340329195e-01	6.986878363e-14
1.670000000e-01	4.107928864e-01	-4.352309796e-01	1.247547392e-13
1.680000000e-01	4.104021176e-01	-4.364217639e-01	6.734777610e-14
1.690000000e-01	4.100155178e-01	-4.376053499e-01	8.473911330e-14
1.700000000e-01	4.096330191e-01	-4.387818142e-01	2.393457771e-14
1.710000000e-01	4.092545550e-01	-4.399512322e-01	1.192421943e-13
1.720000000e-01	4.088800605e-01	-4.411136787e-01	8.672551500e-14
1.730000000e-01	4.085094720e-01	-4.422692274e-01	6.706450686e-14
1.740000000e-01	4.081427274e-01	-4.434179509e-01	7.785396906e-14
1.750000000e-01	4.077797657e-01	-4.445599213e-01	1.282457056e-13
1.760000000e-01	4.074205272e-01	-4.456952096e-01	1.617814386e-13
1.770000000e-01	4.070649537e-01	-4.468238859e-01	1.536930884e-13
1.780000000e-01	4.067129879e-01	-4.479460194e-01	6.339169311e-14
1.790000000e-01	4.063645740e-01	-4.490616787e-01	1.028124069e-13
1.800000000e-01	4.060196570e-01	-4.501709312e-01	1.631815252e-13
1.810000000e-01	4.056781833e-01	-4.512738439e-01	1.361535468e-13
1.820000000e-01	4.053401004e-01	-4.523704825e-01	7.781332922e-14
1.830000000e-01	4.050053567e-01	-4.534609123e-01	9.822964469e-14
1.840000000e-01	4.046739018e-01	-4.545451975e-01	1.077942658e-13
1.850000000e-01	4.043456862e-01	-4.556234019e-01	9.868424945e-14
1.860000000e-01	4.040206615e-01	-4.566955881e-01	8.007971798e-14
1.870000000e-01	4.036987801e-01	-4.577618182e-01	1.693658074e-13
1.880000000e-01	4.033799955e-01	-4.588221534e-01	1.047618860e-13
1.890000000e-01	4.030642622e-01	-4.598766543e-01	1.479032747e-13
1.900000000e-01	4.027515353e-01	-4.609253808e-01	1.394979326e-13
1.910000000e-01	4.024417709e-01	-4.619683918e-01	1.368282317e-13
1.920000000e-01	4.021349262e-01	-4.630057458e-01	6.712802303e-14
1.930000000e-01	4.018309589e-01	-4.640375004e-01	1.494345757e-13
1.940000000e-01	4.015298276e-01	-4.650637126e-01	1.162641307e-13
1.950000000e-01	4.012314918e-01	-4.660844387e-01	5.652807812e-14
1.960000000e-01	4.009359116e-01	-4.670997344e-01	1.563939599e-13
1.970000000e-01	4.006430481e-01	-4.681096546e-01	7.336668111e-14
1.980000000e-01	4.003528629e-01	-4.691142536e-01	6.726726233e-14
1.990000000e-01	4.000653185e-01	-4.701135850e-01	9.499138853e-14
2.000000000e-01	3.997803779e-01	-4.711077020e-01	1.039638392e-13
2.010000000e-01	3.994980049e-01	-4.720966568e-01	5.446852626e-14
2.020000000e-01	3.992181641e-01	-4.730805014e-01	7.569075748e-14
2.030000000e-01	3.989408205e-01	-4.740592867e-01	1.469799252e-13
2.040000000e-01	3.986659400e-01	-4.750330635e-01	9.517974107e-14
2.050000000e-01	3.983934889e-01	-4.760018816e-01	8.109843404e-14
2.060000000e-01	3.981234342e-01	-4.769657906e-01	4.481452920e-14
2.070000000e-01	3.978557435e-01	-4.779248391e-01	7.264851591e-14
2.080000000e-01	3.975903850e-01	-4.788790754e-01	1.360633578e-13
2.090000000e-01	3.973273274e-01	-4.798285472e-01	2.375866005e-13
2.100000000e-01	3.970665402e-01	-4.807733016e-01	8.329590210e-14
2.110000000e-01	3.968079930e-01	-4.817133852e-01	1.180846310e-13
2.120000000e-01	3.965516564e-01	-4.826488440e-01	1.036583466e-13
2.130000000e-01	3.962975012e-01	-4.835797236e-01	6.371350874e-14
2.140000000e-01	3.960454988e-01	-4.845060688e-01	7.417205931e-14
2.150000000e-01	3.957956213e-01	-4.854279242e-01	9.252654904e-14
2.160000000e-01	3.955478408e-01	-4.863453338e-01	1.056990628e-13
2.170000000e-01	3.953021305e-01	-4.872583408e-01	6.026192502e-14
2.180000000e-01	3.950584635e-01	-4.881669884e-01	1.046428379e-13
2.190000000e-01	3.948168138e-01	-4.890713190e-01	9.148966951e-14
2.200000000e-01	3.945771555e-01	-4.899713745e-01	3.801196761e-14
2.210000000e-01	3.943394634e-01	-4.908671965e-01	4.132211469e-14
2.220000000e-01	3.941037126e-01	-4.917588259e-01	5.833823869e-14
2.230000000e-01	3.938698786e-01	-4.926463034e-01	1.149623512e-13
2.240000000e-01	3.936379374e-01	-4.935296690e-01	9.508721559e-14
2.250000000e-01	3.934078653e-01	-4.944089624e-01	4.175015236e-14
2.260000000e-01	3.931796391e-01	-4.952842228e-01	1.079382647e-13
2.270000000e-01	3.929532359e-01	-4.961554889e-01	6.286058843e-14
2.280000000e-01	3.927286333e-01	-4.970227992e-01	6.305600098e-14
2.290000000e-01	3.925058090e-01	-4.978861914e-01	8.984525700e-14
2.300000000e-01	3.922847413e-01	-4.987457032e-01	4.335674116e-14
2.310000000e-01	3.920654089e-01	-4.996013715e-01	4.938135012e-14
2.320000000e-01	3.918477906e-01	-5.004532330e-01	5.307029366e-14
2.330000000e-01	3.916318658e-01	-5.013013239e-01	7.113736703e-14
2.340000000e-01	3.914176140e-01	-5.021456802e-01	8.346518788e-14
2.350000000e-01	3.912050152e-01	-5.029863372e-01	4.355323880e-14
2.360000000e-01	3.909940497e-01	-5.038233300e-01	6.229855032e-14
2.370000000e-01	3.907846981e-01	-5.046566933e-01	6.806473612e-14
2.380000000e-01	3.905769411e-01	-5.054864615e-01	7.334697991e-14
2.390000000e-01	3.903707601e-01	-5.063126683e-01	4.673686207e-14
2.400000000e-01	3.901661365e-01	-5.071353474e-01	5.091410648e-14
2.410000000e-01	3.899630520e-01	-5.079545320e-01	4.607613651e-14
2.420000000e-01	3.897614887e-01	-5.087702548e-01	1.035337587e-13
2.430000000e-01	3.895614290e-01	-5.095825484e-01	6.259202313e-14
2.440000000e-01	3.893628554e-01	-5.103914449e-01	5.697296892e-14
2.450000000e-01	3.891657508e-01	-5.111969760e-01	4.736841705e-14
2.460000000e-01	3.889700984e-01	-5.119991732e-01	3.876840938e-14
2.470000000e-01	3.887758816e-01	-5.127980676e-01	4.470086078e-14
2.480000000e-01	3.885830839e-01	-5.135936899e-01	4.189302128e-14
2.490000000e-01	3.883916894e-01	-5.143860706e-01	5.981584132e-14
2.500000000e-01	3.882016820e-01	-5.151752398e-01	4.098949759e-14
2.510000000e-01	3.880130463e-01	-5.159612273e-01	4.760853942e-14
2.520000000e-01	3.878257668e-01	-5.167440625e-01	6.393188223e-14
2.530000000e-01	3.876398283e-01	-5.175237746e-01	4.604605659e-14
2.540000000e-01	3.874552160e-01	-5.183003925e-01	7.052269574e-14
2.550000000e-01	3.872719150e-01	-5.190739447e-01	2.890612281e-14
2.560000000e-01	3.870899110e-01	-5.198444594e-01	6.500507503e-14
2.570000000e-01	3.869091896e-01	-5.206119646e-01	4.847293356e-14
2.580000000e-01	3.867297368e-01	-5.213764880e-01	6.539600603e-14
2.590000000e-01	3.865515386e-01	-5.221380569e-01	9.073967972e-14
2.600000000e-01	3.863745815e-01	-5.228966985e-01	1.034806626e-13
2.610000000e-01	3.861988520e-01	-5.236524394e-01	1.180624477e-13
2.620000000e-01	3.860243367e-01	-5.244053063e-01	3.721785694e-14
2.630000000e-01	3.858510226e-01	-5.251553253e-01	2.964487783e-14
2.640000000e-01	3.856788968e-01	-5.259025225e-01	2.945766333e-14
2.650000000e-01	3.855079466e-01	-5.266469236e-01	3.947487893e-14
2.660000000e-01	3.853381595e-01	-5.273885540e-01	6.956821386e-14
2.670000000e-01	3.851695231e-01	-5.281274389e-01	3.598177200e-14
2.680000000e-01	3.850020253e-01	-5.288636033e-01	4.826087258e-14
2.690000000e-01	3.848356540e-01	-5.295970717e-01	2.865817954e-14
2.700000000e-01	3.846703973e-01	-5.303278686e-01	4.813825927e-14
2.710000000e-01	3.845062437e-01	-5.310560182e-01	2.539500179e-14
2.720000000e-01	3.843431816e-01	-5.317815444e-01	3.694417254e-14
2.730000000e-01	3.841811997e-01	-5.325044710e-01	2.595785955e-14
2.740000000e-01	3.840202868e-01	-5.332248212e-01	2.721780581e-14
2.750000000e-01	3.838604318e-01	-5.339426184e-01	3.506371875e-14
2.760000000e-01	3.837016238e-01	-5.346578855e-01	2.100613037e-14
2.770000000e-01	3.835438522e-01	-5.353706452e-01	2.294781912e-14
2.780000000e-01	3.833871062e-01	-5.360809201e-01	8.380575329e-15
2.790000000e-01	3.832313756e-01	-5.367887325e-01	3.826567909e-14
2.800000000e-01	3.830766499e-01	-5.374941044e-01	1.451380424e-14
2.810000000e-01	3.829229191e-01	-5.381970577e-01	1.050158897e-14
2.820000000e-01	3.827701730e-01	-5.388976140e-01	1.382851747e-14
2.830000000e-01	3.826184018e-01	-5.395957947e-01	2.435978336e-14
2.840000000e-01	3.824675957e-01	-5.402916210e-01	1.337303267e-14
2.850000000e-01	3.823177451e-01	-5.409851139e-01	3.191408454e-14
2.860000000e-01	3.821688405e-01	-5.416762943e-01	1.671116164e-14
2.870000000e-01	3.820208725e-01	-5.423651826e-01	2.364416669e-14
2.880000000e-01	3.818738318e-01	-5.430517993e-01	2.939455674e-14
2.890000000e-01	3.817277094e-01	-5.437361646e-01	3.836077612e-14
2.900000000e-01	3.815824962e-01	-5.444182984e-01	1.774977198e-14
2.910000000e-01	3.814381833e-01	-5.450982206e-01	1.303566841e-14
2.920000000e-01	3.812947620e-01	-5.457759507e-01	3.265914975e-14
2.930000000e-01	3.811522235e-01	-5.464515081e-01	1.271059911e-14
2.940000000e-01	3.810105593e-01	-5.471249121e-01	2.053079759e-14
2.950000000e-01	3.808697610e-01	-5.477961816e-01	2.100831234e-14
2.960000000e-01	3.807298202e-01	-5.484653357e-01	1.548044681e-14
2.970000000e-01	3.805907288e-01	-5.491323928e-01	1.119317361e-14
2.980000000e-01	3.804524786e-01	-5.497973716e-01	1.130279152e-14
2.990000000e-01	3.803150615e-01	-5.504602903e-01	1.821123248e-14
3.000000000e-01	3.801784697e-01	-5.511211671e-01	3.042635271e-14
3.010000000e-01	3.800426953e-01	-5.517800199e-01	1.806988163e-14
3.020000000e-01	3.799077306e-01	-5.524368665e-01	2.107297182e-14
3.030000000e-01	3.797735681e-01	-5.530917246e-01	2.489896363e-14
3.040000000e-01	3.796402001e-01	-5.537446116e-01	9.168965239e-15
3.050000000e-01	3.795076192e-01	-5.543955449e-01	2.253467304e-14
3.060000000e-01	3.793758182e-01	-5.550445414e-01	3.727639939e-14
3.070000000e-01	3.792447897e-01	-5.556916184e-01	1.463350704e-14
3.080000000e-01	3.791145266e-01	-5.563367924e-01	2.795714023e-14
