# R [micrones]     Omega/c [1/micrones]    Im(epsi1)     Eq(det)$\mu$ = 0.3 eV, $E_p$ = 0.150 eV, modo = 2, $\epsilon_\infty$ = 3.9, $\gamma_{DL}$ = 0.01 eV, solve_det_sinkz_vs_R2.py
6.000000000e-03	1.521325019e+00	-2.843461408e-01	9.549863544e-13
7.000000000e-03	1.441746328e+00	-2.475203253e-01	1.136868377e-13
8.000000000e-03	1.373944390e+00	-2.211156743e-01	1.340649353e-13
1.000000000e-02	1.264165036e+00	-1.862529508e-01	5.571307549e-13
1.100000000e-02	1.218946021e+00	-1.743360294e-01	1.156679772e-13
1.200000000e-02	1.178661212e+00	-1.648044147e-01	1.334988598e-13
1.300000000e-02	1.142496850e+00	-1.570823858e-01	3.197442311e-14
1.400000000e-02	1.109812986e+00	-1.507670305e-01	2.462417605e-13
1.500000000e-02	1.080099030e+00	-1.455678624e-01	3.197442311e-14
1.600000000e-02	1.052942296e+00	-1.412700635e-01	9.219069521e-13
1.700000000e-02	1.028005326e+00	-1.377112510e-01	1.598721155e-14
1.800000000e-02	1.005009270e+00	-1.347663080e-01	1.154631946e-13
1.900000000e-02	9.837215047e-01	-1.323371956e-01	2.898457020e-13
2.000000000e-02	9.639462956e-01	-1.303459390e-01	6.676290134e-13
2.100000000e-02	9.455176437e-01	-1.287296913e-01	9.494789321e-14
2.200000000e-02	9.282937537e-01	-1.274371902e-01	2.050749926e-13
2.300000000e-02	9.121527018e-01	-1.264261710e-01	2.325399693e-13
2.400000000e-02	8.969890118e-01	-1.256614456e-01	1.017497446e-13
2.500000000e-02	8.827109223e-01	-1.251134571e-01	2.318332832e-13
2.600000000e-02	8.692381873e-01	-1.247571764e-01	1.442681743e-13
2.700000000e-02	8.565002908e-01	-1.245712514e-01	9.156425995e-14
2.800000000e-02	8.444349882e-01	-1.245373417e-01	1.709829967e-13
2.900000000e-02	8.329871048e-01	-1.246395949e-01	1.021405183e-13
3.000000000e-02	8.221075402e-01	-1.248642293e-01	3.350034279e-13
3.100000000e-02	8.117524392e-01	-1.251991989e-01	1.713632026e-13
3.200000000e-02	8.018824950e-01	-1.256339221e-01	5.200214488e-13
3.300000000e-02	7.924623639e-01	-1.261590608e-01	2.131628207e-13
3.400000000e-02	7.834601673e-01	-1.267663382e-01	1.911874967e-13
3.500000000e-02	7.748470694e-01	-1.274483890e-01	2.602529487e-13
3.600000000e-02	7.665969151e-01	-1.281986344e-01	9.325450455e-14
3.700000000e-02	7.586859192e-01	-1.290111771e-01	2.890075804e-13
3.800000000e-02	7.510923990e-01	-1.298807133e-01	5.282085999e-13
3.900000000e-02	7.437965419e-01	-1.308024587e-01	1.713516936e-13
4.000000000e-02	7.367802042e-01	-1.317720846e-01	1.456639687e-13
4.100000000e-02	7.300267353e-01	-1.327856641e-01	3.876245076e-13
4.200000000e-02	7.235208244e-01	-1.338396256e-01	4.493866840e-14
4.300000000e-02	7.172483652e-01	-1.349307128e-01	1.706135030e-13
4.400000000e-02	7.111963379e-01	-1.360559503e-01	1.444109556e-13
4.500000000e-02	7.053527040e-01	-1.372126134e-01	3.342773674e-13
4.600000000e-02	6.997063141e-01	-1.383982020e-01	1.330971739e-13
4.700000000e-02	6.942468252e-01	-1.396104178e-01	3.252152336e-13
4.800000000e-02	6.889646279e-01	-1.408471439e-01	1.050766123e-13
4.900000000e-02	6.838507814e-01	-1.421064278e-01	9.324710244e-14
5.000000000e-02	6.788969546e-01	-1.433864652e-01	4.427691913e-13
5.100000000e-02	6.740953744e-01	-1.446855863e-01	5.783398861e-14
5.200000000e-02	6.694387788e-01	-1.460022438e-01	1.507713934e-13
5.300000000e-02	6.649203744e-01	-1.473350020e-01	2.273476531e-13
5.400000000e-02	6.605337989e-01	-1.486825267e-01	5.495350521e-13
5.500000000e-02	6.562730865e-01	-1.500435768e-01	2.793123436e-13
5.600000000e-02	6.521326368e-01	-1.514169965e-01	9.557002028e-14
5.700000000e-02	6.481071869e-01	-1.528017081e-01	2.810912810e-13
5.800000000e-02	6.441917857e-01	-1.541967060e-01	1.433273415e-13
5.900000000e-02	6.403817707e-01	-1.556010507e-01	5.906386491e-14
6.000000000e-02	6.366727472e-01	-1.570138636e-01	4.187768313e-13
6.100000000e-02	6.330605682e-01	-1.584343226e-01	1.067154780e-13
6.200000000e-02	6.295413178e-01	-1.598616579e-01	7.202601286e-14
6.300000000e-02	6.261112941e-01	-1.612951477e-01	9.521338941e-14
6.400000000e-02	6.227669954e-01	-1.627341152e-01	3.272479496e-13
6.500000000e-02	6.195051057e-01	-1.641779251e-01	2.309058918e-13
6.600000000e-02	6.163224830e-01	-1.656259807e-01	1.200686568e-13
6.700000000e-02	6.132161475e-01	-1.670777213e-01	1.419754315e-13
6.800000000e-02	6.101832709e-01	-1.685326197e-01	9.432375366e-14
6.900000000e-02	6.072211673e-01	-1.699901800e-01	3.182475554e-13
7.000000000e-02	6.043272835e-01	-1.714499354e-01	2.590559301e-13
7.100000000e-02	6.014991912e-01	-1.729114464e-01	2.044288117e-13
7.200000000e-02	5.987345791e-01	-1.743742990e-01	1.535754298e-13
7.300000000e-02	5.960312459e-01	-1.758381031e-01	5.717594682e-14
7.400000000e-02	5.933870936e-01	-1.773024910e-01	8.811366712e-14
7.500000000e-02	5.908001218e-01	-1.787671158e-01	1.483990727e-13
7.600000000e-02	5.882684211e-01	-1.802316506e-01	9.847997397e-14
7.700000000e-02	5.857901690e-01	-1.816957869e-01	1.054887157e-13
7.800000000e-02	5.833636241e-01	-1.831592334e-01	1.428200841e-13
7.900000000e-02	5.809871217e-01	-1.846217155e-01	1.039586187e-13
8.000000000e-02	5.786590701e-01	-1.860829737e-01	1.825163432e-13
8.100000000e-02	5.763779457e-01	-1.875427631e-01	5.207975621e-14
8.200000000e-02	5.741422901e-01	-1.890008528e-01	7.464002229e-14
8.300000000e-02	5.719507060e-01	-1.904570243e-01	1.193410742e-13
8.400000000e-02	5.698018544e-01	-1.919110716e-01	4.630521833e-13
8.500000000e-02	5.676944514e-01	-1.933628002e-01	1.251827539e-13
8.600000000e-02	5.656272652e-01	-1.948120264e-01	9.240897845e-14
8.700000000e-02	5.635991135e-01	-1.962585767e-01	1.487539768e-13
8.800000000e-02	5.616088613e-01	-1.977022875e-01	1.106524262e-13
8.900000000e-02	5.596554181e-01	-1.991430043e-01	2.908741102e-13
9.000000000e-02	5.577377359e-01	-2.005805814e-01	2.025377889e-13
9.100000000e-02	5.558548070e-01	-2.020148811e-01	8.727934827e-14
9.200000000e-02	5.540056621e-01	-2.034457739e-01	2.923787881e-13
9.300000000e-02	5.521893688e-01	-2.048731374e-01	1.687030556e-13
9.400000000e-02	5.504050292e-01	-2.062968564e-01	1.386499214e-13
9.500000000e-02	5.486517787e-01	-2.077168223e-01	7.715530835e-14
9.600000000e-02	5.469287843e-01	-2.091329329e-01	2.472329826e-13
9.700000000e-02	5.452352434e-01	-2.105450919e-01	1.675111328e-13
9.800000000e-02	5.435703819e-01	-2.119532089e-01	1.671121327e-13
9.900000000e-02	5.419334534e-01	-2.133571987e-01	2.227479276e-13
1.000000000e-01	5.403237377e-01	-2.147569814e-01	1.307571265e-13
1.010000000e-01	5.387405400e-01	-2.161524820e-01	7.996689135e-14
1.020000000e-01	5.371831890e-01	-2.175436302e-01	5.798224115e-14
1.030000000e-01	5.356510367e-01	-2.189303600e-01	9.325873407e-14
1.040000000e-01	5.341434570e-01	-2.203126097e-01	1.490347774e-13
1.050000000e-01	5.326598450e-01	-2.216903216e-01	3.091664950e-13
1.060000000e-01	5.311996155e-01	-2.230634419e-01	2.105424321e-13
1.070000000e-01	5.297622031e-01	-2.244319204e-01	1.622348890e-13
1.080000000e-01	5.283470606e-01	-2.257957104e-01	2.775590424e-13
1.090000000e-01	5.269536587e-01	-2.271547684e-01	1.166021741e-13
1.100000000e-01	5.255814849e-01	-2.285090541e-01	1.622526284e-13
1.110000000e-01	5.242300431e-01	-2.298585302e-01	2.633288935e-13
1.120000000e-01	5.228988531e-01	-2.312031623e-01	1.730263261e-13
1.130000000e-01	5.215874495e-01	-2.325429188e-01	8.020237606e-14
1.140000000e-01	5.202953813e-01	-2.338777704e-01	7.044415397e-14
1.150000000e-01	5.190222116e-01	-2.352076907e-01	1.158507486e-13
1.160000000e-01	5.177675168e-01	-2.365326552e-01	1.322284478e-13
1.170000000e-01	5.165308858e-01	-2.378526421e-01	6.423232705e-14
1.180000000e-01	5.153119204e-01	-2.391676315e-01	1.795870423e-13
1.190000000e-01	5.141102339e-01	-2.404776055e-01	1.150624452e-13
1.200000000e-01	5.129254510e-01	-2.417825484e-01	6.843811323e-14
1.210000000e-01	5.117572076e-01	-2.430824460e-01	1.067598796e-13
1.220000000e-01	5.106051502e-01	-2.443772863e-01	1.143840105e-13
1.230000000e-01	5.094689354e-01	-2.456670587e-01	1.593830235e-13
1.240000000e-01	5.083482295e-01	-2.469517543e-01	1.250647388e-13
1.250000000e-01	5.072427086e-01	-2.482313658e-01	9.841987787e-14
1.260000000e-01	5.061520578e-01	-2.495058873e-01	1.755631584e-13
1.270000000e-01	5.050759710e-01	-2.507753144e-01	1.683421767e-13
1.280000000e-01	5.040141505e-01	-2.520396439e-01	1.709974138e-13
1.290000000e-01	5.029663070e-01	-2.532988739e-01	9.909559911e-14
1.300000000e-01	5.019321591e-01	-2.545530040e-01	2.193029979e-13
1.310000000e-01	5.009114329e-01	-2.558020346e-01	1.949288916e-13
1.320000000e-01	4.999038621e-01	-2.570459674e-01	3.093342752e-13
1.330000000e-01	4.989091873e-01	-2.582848050e-01	4.219548629e-14
1.340000000e-01	4.979271562e-01	-2.595185513e-01	1.954447914e-13
1.350000000e-01	4.969575230e-01	-2.607472109e-01	2.429648008e-13
1.360000000e-01	4.960000485e-01	-2.619707895e-01	7.512742705e-14
1.370000000e-01	4.950544997e-01	-2.631892934e-01	1.703503287e-13
1.380000000e-01	4.941206495e-01	-2.644027300e-01	1.281058826e-13
1.390000000e-01	4.931982767e-01	-2.656111075e-01	3.267731001e-13
1.400000000e-01	4.922871658e-01	-2.668144347e-01	1.939019054e-13
1.410000000e-01	4.913871068e-01	-2.680127212e-01	1.314542037e-13
1.420000000e-01	4.904978947e-01	-2.692059773e-01	2.015702851e-13
1.430000000e-01	4.896193300e-01	-2.703942138e-01	1.279539742e-13
1.440000000e-01	4.887512179e-01	-2.715774424e-01	1.143023131e-13
1.450000000e-01	4.878933686e-01	-2.727556751e-01	3.121626587e-13
1.460000000e-01	4.870455966e-01	-2.739289248e-01	6.965019340e-14
1.470000000e-01	4.862077214e-01	-2.750972045e-01	4.965848754e-13
1.480000000e-01	4.853795664e-01	-2.762605281e-01	6.711929484e-14
1.490000000e-01	4.845609596e-01	-2.774189098e-01	1.923109146e-13
1.500000000e-01	4.837517329e-01	-2.785723642e-01	2.569470580e-13
1.510000000e-01	4.829517222e-01	-2.797209065e-01	9.349239771e-14
1.520000000e-01	4.821607675e-01	-2.808645521e-01	8.622652742e-14
1.530000000e-01	4.813787122e-01	-2.820033171e-01	1.219698235e-13
1.540000000e-01	4.806054036e-01	-2.831372177e-01	1.000948412e-13
1.550000000e-01	4.798406924e-01	-2.842662704e-01	3.650865909e-13
1.560000000e-01	4.790844328e-01	-2.853904924e-01	2.403503618e-13
1.570000000e-01	4.783364823e-01	-2.865099008e-01	2.572615539e-13
1.580000000e-01	4.775967017e-01	-2.876245132e-01	3.070690037e-13
1.590000000e-01	4.768649548e-01	-2.887343474e-01	6.495895847e-14
1.600000000e-01	4.761411086e-01	-2.898394216e-01	1.260120251e-13
1.610000000e-01	4.754250331e-01	-2.909397541e-01	1.134819557e-13
1.620000000e-01	4.747166010e-01	-2.920353634e-01	1.406797695e-13
1.630000000e-01	4.740156879e-01	-2.931262685e-01	1.261041460e-13
1.640000000e-01	4.733221722e-01	-2.942124882e-01	1.389353627e-13
1.650000000e-01	4.726359348e-01	-2.952940417e-01	1.869996020e-13
1.660000000e-01	4.719568594e-01	-2.963709485e-01	6.993814674e-14
1.670000000e-01	4.712848320e-01	-2.974432280e-01	7.271079359e-14
1.680000000e-01	4.706197410e-01	-2.985109000e-01	2.541536518e-13
1.690000000e-01	4.699614775e-01	-2.995739842e-01	1.761776674e-13
1.700000000e-01	4.693099346e-01	-3.006325007e-01	1.120688757e-13
1.710000000e-01	4.686650077e-01	-3.016864694e-01	7.291234928e-14
1.720000000e-01	4.680265946e-01	-3.027359106e-01	1.050646465e-13
1.730000000e-01	4.673945949e-01	-3.037808446e-01	1.808920959e-13
1.740000000e-01	4.667689104e-01	-3.048212918e-01	2.016406560e-13
1.750000000e-01	4.661494452e-01	-3.058572726e-01	1.010096137e-13
1.760000000e-01	4.655361050e-01	-3.068888076e-01	1.465359814e-13
1.770000000e-01	4.649287976e-01	-3.079159174e-01	4.759300276e-14
1.780000000e-01	4.643274325e-01	-3.089386226e-01	6.428344709e-14
1.790000000e-01	4.637319213e-01	-3.099569441e-01	1.099957629e-13
1.800000000e-01	4.631421772e-01	-3.109709025e-01	1.164210589e-13
1.810000000e-01	4.625581152e-01	-3.119805188e-01	1.244133576e-13
1.820000000e-01	4.619796518e-01	-3.129858137e-01	9.115951947e-14
1.830000000e-01	4.614067053e-01	-3.139868081e-01	1.371241060e-13
1.840000000e-01	4.608391957e-01	-3.149835230e-01	9.721625615e-14
1.850000000e-01	4.602770445e-01	-3.159759792e-01	5.889565720e-14
1.860000000e-01	4.597201745e-01	-3.169641977e-01	6.801382468e-14
1.870000000e-01	4.591685103e-01	-3.179481993e-01	1.564925836e-13
1.880000000e-01	4.586219779e-01	-3.189280051e-01	2.153646687e-13
1.890000000e-01	4.580805044e-01	-3.199036359e-01	1.054122852e-13
1.900000000e-01	4.575440188e-01	-3.208751127e-01	7.221960774e-14
1.910000000e-01	4.570124510e-01	-3.218424564e-01	8.832507993e-14
1.920000000e-01	4.564857324e-01	-3.228056878e-01	1.754544514e-13
1.930000000e-01	4.559637958e-01	-3.237648278e-01	4.068058506e-14
1.940000000e-01	4.554465750e-01	-3.247198973e-01	9.667920014e-14
1.950000000e-01	4.549340053e-01	-3.256709170e-01	9.351874534e-14
1.960000000e-01	4.544260230e-01	-3.266179077e-01	1.183566610e-13
1.970000000e-01	4.539225656e-01	-3.275608902e-01	1.186152149e-13
1.980000000e-01	4.534235718e-01	-3.284998851e-01	1.489902857e-13
1.990000000e-01	4.529289815e-01	-3.294349131e-01	1.152480519e-13
2.000000000e-01	4.524387354e-01	-3.303659949e-01	1.817721017e-13
2.010000000e-01	4.519527756e-01	-3.312931509e-01	6.029819432e-14
2.020000000e-01	4.514710451e-01	-3.322164017e-01	7.111983756e-14
2.030000000e-01	4.509934878e-01	-3.331357678e-01	1.007809537e-13
2.040000000e-01	4.505200488e-01	-3.340512694e-01	1.156252408e-13
2.050000000e-01	4.500506741e-01	-3.349629271e-01	2.777814005e-13
2.060000000e-01	4.495853106e-01	-3.358707610e-01	1.319607165e-13
2.070000000e-01	4.491239062e-01	-3.367747913e-01	9.377304505e-14
2.080000000e-01	4.486664096e-01	-3.376750383e-01	8.226835017e-14
2.090000000e-01	4.482127705e-01	-3.385715220e-01	1.854954956e-13
2.100000000e-01	4.477629395e-01	-3.394642624e-01	1.012170344e-13
2.110000000e-01	4.473168679e-01	-3.403532795e-01	1.169204043e-13
2.120000000e-01	4.468745080e-01	-3.412385931e-01	2.037033128e-13
2.130000000e-01	4.464358128e-01	-3.421202231e-01	1.475546572e-13
2.140000000e-01	4.460007362e-01	-3.429981891e-01	1.034908910e-13
2.150000000e-01	4.455692327e-01	-3.438725108e-01	1.816321560e-13
2.160000000e-01	4.451412579e-01	-3.447432079e-01	1.065851110e-13
2.170000000e-01	4.447167677e-01	-3.456102997e-01	9.368521130e-14
2.180000000e-01	4.442957190e-01	-3.464738057e-01	1.172363053e-13
2.190000000e-01	4.438780696e-01	-3.473337452e-01	1.219944664e-13
2.200000000e-01	4.434637775e-01	-3.481901375e-01	1.429463882e-13
2.210000000e-01	4.430528018e-01	-3.490430017e-01	1.443078547e-13
2.220000000e-01	4.426451022e-01	-3.498923569e-01	8.109467226e-14
2.230000000e-01	4.422406389e-01	-3.507382222e-01	9.918865718e-14
2.240000000e-01	4.418393729e-01	-3.515806164e-01	7.685623134e-14
2.250000000e-01	4.414412658e-01	-3.524195583e-01	4.240067316e-14
2.260000000e-01	4.410462798e-01	-3.532550668e-01	1.084472001e-13
2.270000000e-01	4.406543776e-01	-3.540871603e-01	4.868631777e-14
2.280000000e-01	4.402655228e-01	-3.549158576e-01	1.307011677e-13
2.290000000e-01	4.398796792e-01	-3.557411770e-01	1.277988835e-13
2.300000000e-01	4.394968115e-01	-3.565631370e-01	1.025374963e-13
2.310000000e-01	4.391168847e-01	-3.573817559e-01	1.047749562e-13
2.320000000e-01	4.387398646e-01	-3.581970518e-01	9.206212731e-14
2.330000000e-01	4.383657172e-01	-3.590090428e-01	9.004683867e-14
2.340000000e-01	4.379944095e-01	-3.598177470e-01	9.516904442e-14
2.350000000e-01	4.376259085e-01	-3.606231823e-01	1.158385790e-13
2.360000000e-01	4.372601821e-01	-3.614253666e-01	1.137166528e-13
2.370000000e-01	4.368971985e-01	-3.622243175e-01	6.258989999e-14
2.380000000e-01	4.365369265e-01	-3.630200528e-01	2.252921287e-13
2.390000000e-01	4.361793352e-01	-3.638125900e-01	2.001449766e-13
2.400000000e-01	4.358243944e-01	-3.646019465e-01	8.287478384e-14
2.410000000e-01	4.354720742e-01	-3.653881397e-01	1.537335833e-13
2.420000000e-01	4.351223453e-01	-3.661711870e-01	6.849511480e-14
2.430000000e-01	4.347751785e-01	-3.669511054e-01	7.290147105e-14
2.440000000e-01	4.344305455e-01	-3.677279121e-01	1.811811950e-13
2.450000000e-01	4.340884181e-01	-3.685016241e-01	4.611150149e-14
2.460000000e-01	4.337487687e-01	-3.692722583e-01	6.366018847e-14
2.470000000e-01	4.334115699e-01	-3.700398315e-01	1.188348965e-13
2.480000000e-01	4.330767949e-01	-3.708043605e-01	6.609026276e-14
2.490000000e-01	4.327444172e-01	-3.715658618e-01	7.045467354e-14
2.500000000e-01	4.324144108e-01	-3.723243519e-01	8.046226480e-14
2.510000000e-01	4.320867499e-01	-3.730798474e-01	7.940215800e-14
2.520000000e-01	4.317614092e-01	-3.738323646e-01	8.664819952e-14
2.530000000e-01	4.314383637e-01	-3.745819197e-01	9.917931433e-14
2.540000000e-01	4.311175889e-01	-3.753285288e-01	1.048840566e-13
2.550000000e-01	4.307990604e-01	-3.760722082e-01	1.237785226e-13
2.560000000e-01	4.304827544e-01	-3.768129737e-01	8.914313577e-14
2.570000000e-01	4.301686473e-01	-3.775508412e-01	1.340400868e-13
2.580000000e-01	4.298567159e-01	-3.782858265e-01	9.431472936e-14
2.590000000e-01	4.295469373e-01	-3.790179453e-01	7.352359776e-14
2.600000000e-01	4.292392889e-01	-3.797472133e-01	5.482369092e-14
2.610000000e-01	4.289337484e-01	-3.804736460e-01	7.127631818e-14
2.620000000e-01	4.286302939e-01	-3.811972587e-01	7.577899541e-14
2.630000000e-01	4.283289038e-01	-3.819180668e-01	7.182937052e-14
2.640000000e-01	4.280295567e-01	-3.826360856e-01	4.544227952e-14
2.650000000e-01	4.277322315e-01	-3.833513302e-01	3.877072429e-14
2.660000000e-01	4.274369076e-01	-3.840638157e-01	6.090914272e-14
2.670000000e-01	4.271435644e-01	-3.847735571e-01	7.115532661e-14
2.680000000e-01	4.268521818e-01	-3.854805692e-01	6.597013970e-14
2.690000000e-01	4.265627398e-01	-3.861848669e-01	5.158752115e-14
2.700000000e-01	4.262752188e-01	-3.868864649e-01	2.062944734e-13
2.710000000e-01	4.259895995e-01	-3.875853777e-01	1.012044905e-13
2.720000000e-01	4.257058626e-01	-3.882816200e-01	1.117304833e-13
2.730000000e-01	4.254239894e-01	-3.889752062e-01	8.422818488e-14
2.740000000e-01	4.251439613e-01	-3.896661506e-01	7.964955107e-14
2.750000000e-01	4.248657599e-01	-3.903544675e-01	1.399801956e-13
2.760000000e-01	4.245893671e-01	-3.910401711e-01	3.999062209e-14
2.770000000e-01	4.243147649e-01	-3.917232756e-01	7.368838350e-14
2.780000000e-01	4.240419359e-01	-3.924037948e-01	6.720014639e-14
2.790000000e-01	4.237708625e-01	-3.930817428e-01	6.589143838e-14
2.800000000e-01	4.235015277e-01	-3.937571334e-01	3.918545691e-14
2.810000000e-01	4.232339144e-01	-3.944299803e-01	8.899715389e-14
2.820000000e-01	4.229680060e-01	-3.951002973e-01	1.009628139e-13
2.830000000e-01	4.227037859e-01	-3.957680980e-01	4.989203686e-14
2.840000000e-01	4.224412378e-01	-3.964333957e-01	5.625633419e-14
2.850000000e-01	4.221803457e-01	-3.970962040e-01	4.546178796e-14
2.860000000e-01	4.219210936e-01	-3.977565363e-01	1.234005276e-13
2.870000000e-01	4.216634660e-01	-3.984144057e-01	9.131305974e-14
2.880000000e-01	4.214074473e-01	-3.990698255e-01	5.580602737e-14
2.890000000e-01	4.211530222e-01	-3.997228088e-01	1.857347589e-13
2.900000000e-01	4.209001757e-01	-4.003733685e-01	4.570596058e-14
2.910000000e-01	4.206488929e-01	-4.010215177e-01	9.859286797e-14
2.920000000e-01	4.203991591e-01	-4.016672691e-01	1.142416062e-13
2.930000000e-01	4.201509597e-01	-4.023106356e-01	8.396108074e-14
2.940000000e-01	4.199042805e-01	-4.029516299e-01	7.340009202e-14
2.950000000e-01	4.196591072e-01	-4.035902646e-01	7.789986998e-14
2.960000000e-01	4.194154260e-01	-4.042265522e-01	9.461673502e-14
2.970000000e-01	4.191732229e-01	-4.048605052e-01	4.698023096e-14
2.980000000e-01	4.189324843e-01	-4.054921360e-01	4.013330507e-14
2.990000000e-01	4.186931969e-01	-4.061214569e-01	6.192191319e-14
3.000000000e-01	4.184553472e-01	-4.067484801e-01	2.869878201e-14
3.010000000e-01	4.182189222e-01	-4.073732179e-01	5.963378434e-14
3.020000000e-01	4.179839088e-01	-4.079956822e-01	6.602607498e-14
3.030000000e-01	4.177502943e-01	-4.086158852e-01	3.903181050e-14
3.040000000e-01	4.175180660e-01	-4.092338386e-01	6.272863865e-14
3.050000000e-01	4.172872114e-01	-4.098495545e-01	3.244060469e-14
3.060000000e-01	4.170577181e-01	-4.104630446e-01	5.818122145e-14
3.070000000e-01	4.168295738e-01	-4.110743205e-01	8.626523209e-14
3.080000000e-01	4.166027666e-01	-4.116833940e-01	8.914997994e-14
3.090000000e-01	4.163772846e-01	-4.122902767e-01	3.706632164e-14
3.100000000e-01	4.161531159e-01	-4.128949799e-01	5.647190231e-14
