# Ep [eV]     Omega/c [1/micrones]    Im(epsi1)     Eq(det).Opt det SIN kz nano,R = 0.5 $\mu$m, $\mu_c$ = 0.3 eV, modo = 3, $\epsilon_\infty$ = 4.9, $\gamma_{DL}$ = 0.01 eV, solve_det_sinkz_vs_Ep.py
0.000000000e+00	2.116440016e-01	-3.323733878e-02	8.197386416e-14
1.000000000e-04	2.116440983e-01	-3.323860715e-02	5.687116766e-14
2.000000000e-04	2.116443885e-01	-3.324241222e-02	5.692835685e-14
3.000000000e-04	2.116448720e-01	-3.324875395e-02	2.843558383e-14
4.000000000e-04	2.116455490e-01	-3.325763223e-02	3.197750691e-14
5.000000000e-04	2.116464194e-01	-3.326904692e-02	3.035439898e-14
6.000000000e-04	2.116474832e-01	-3.328299784e-02	8.528363000e-14
7.000000000e-04	2.116487405e-01	-3.329948476e-02	6.355287432e-14
8.000000000e-04	2.116501911e-01	-3.331850742e-02	3.035439898e-14
9.000000000e-04	2.116518352e-01	-3.334006552e-02	3.260957682e-14
1.000000000e-03	2.116536727e-01	-3.336415872e-02	3.552713679e-14
1.100000000e-03	2.116557036e-01	-3.339078662e-02	8.881784197e-16
1.200000000e-03	2.116579279e-01	-3.341994881e-02	2.843558383e-14
1.300000000e-03	2.116603455e-01	-3.345164482e-02	5.373479439e-14
1.400000000e-03	2.116629566e-01	-3.348587415e-02	8.538069820e-14
1.500000000e-03	2.116657611e-01	-3.352263624e-02	1.731947918e-14
1.600000000e-03	2.116687589e-01	-3.356193052e-02	2.847716648e-14
1.700000000e-03	2.116719501e-01	-3.360375635e-02	6.240678079e-14
1.800000000e-03	2.116753347e-01	-3.364811308e-02	2.843558383e-14
1.900000000e-03	2.116789126e-01	-3.369499998e-02	2.850831366e-14
2.000000000e-03	2.116826839e-01	-3.374441633e-02	0.000000000e+00
2.100000000e-03	2.116866485e-01	-3.379636132e-02	1.421092410e-13
2.200000000e-03	2.116908064e-01	-3.385083413e-02	1.243449788e-14
2.300000000e-03	2.116951577e-01	-3.390783390e-02	9.613685228e-14
2.400000000e-03	2.116997023e-01	-3.396735971e-02	6.306066780e-14
2.500000000e-03	2.117044402e-01	-3.402941062e-02	2.850831366e-14
2.600000000e-03	2.117093714e-01	-3.409398564e-02	3.351623381e-14
2.700000000e-03	2.117144959e-01	-3.416108374e-02	0.000000000e+00
2.800000000e-03	2.117198136e-01	-3.423070385e-02	2.975397706e-14
2.900000000e-03	2.117253246e-01	-3.430284487e-02	3.051316246e-14
3.000000000e-03	2.117310289e-01	-3.437750564e-02	4.440892099e-16
3.100000000e-03	2.117369264e-01	-3.445468498e-02	2.847716648e-14
3.200000000e-03	2.117430171e-01	-3.453438166e-02	2.964773623e-14
3.300000000e-03	2.117493011e-01	-3.461659441e-02	2.870135886e-14
3.400000000e-03	2.117557782e-01	-3.470132192e-02	2.131628207e-14
3.500000000e-03	2.117624485e-01	-3.478856285e-02	8.530675150e-14
3.600000000e-03	2.117693120e-01	-3.487831581e-02	9.769962617e-15
3.700000000e-03	2.117763687e-01	-3.497057938e-02	8.881784197e-16
3.800000000e-03	2.117836184e-01	-3.506535207e-02	3.776586444e-14
3.900000000e-03	2.117910614e-01	-3.516263240e-02	5.893015289e-14
4.000000000e-03	2.117986974e-01	-3.526241882e-02	5.701662732e-14
4.100000000e-03	2.118065265e-01	-3.536470973e-02	2.220446049e-14
4.200000000e-03	2.118145487e-01	-3.546950352e-02	5.692835685e-14
4.300000000e-03	2.118227639e-01	-3.557679851e-02	2.842517867e-14
4.400000000e-03	2.118311722e-01	-3.568659302e-02	1.032161156e-13
4.500000000e-03	2.118397735e-01	-3.579888529e-02	1.158349478e-13
4.600000000e-03	2.118485679e-01	-3.591367354e-02	1.243449788e-14
4.700000000e-03	2.118575552e-01	-3.603095595e-02	2.850831366e-14
4.800000000e-03	2.118667354e-01	-3.615073067e-02	5.709267256e-14
4.900000000e-03	2.118761086e-01	-3.627299578e-02	1.287858709e-14
5.000000000e-03	2.118856748e-01	-3.639774936e-02	5.684341886e-14
5.100000000e-03	2.118954338e-01	-3.652498943e-02	2.854633628e-14
5.200000000e-03	2.119053858e-01	-3.665471397e-02	5.107025913e-14
5.300000000e-03	2.119155306e-01	-3.678692092e-02	9.621989814e-14
5.400000000e-03	2.119258682e-01	-3.692160820e-02	5.385211141e-14
5.500000000e-03	2.119363987e-01	-3.705877367e-02	2.964773623e-14
5.600000000e-03	2.119471219e-01	-3.719841515e-02	1.110223025e-14
5.700000000e-03	2.119580379e-01	-3.734053045e-02	3.218344867e-14
5.800000000e-03	2.119691467e-01	-3.748511731e-02	1.137180585e-13
5.900000000e-03	2.119804482e-01	-3.763217344e-02	6.222480645e-14
6.000000000e-03	2.119919424e-01	-3.778169652e-02	4.904321462e-14
6.100000000e-03	2.120036293e-01	-3.793368420e-02	1.212127648e-13
6.200000000e-03	2.120155089e-01	-3.808813405e-02	5.701662732e-14
6.300000000e-03	2.120275810e-01	-3.824504366e-02	2.176037128e-14
6.400000000e-03	2.120398458e-01	-3.840441053e-02	5.728578677e-14
6.500000000e-03	2.120523031e-01	-3.856623216e-02	1.706782221e-13
6.600000000e-03	2.120649530e-01	-3.873050599e-02	3.895854697e-14
6.700000000e-03	2.120777954e-01	-3.889722944e-02	0.000000000e+00
6.800000000e-03	2.120908303e-01	-3.906639986e-02	5.684515356e-14
6.900000000e-03	2.121040577e-01	-3.923801460e-02	1.475365682e-13
7.000000000e-03	2.121174775e-01	-3.941207095e-02	5.690583464e-14
7.100000000e-03	2.121310897e-01	-3.958856617e-02	6.836089527e-14
7.200000000e-03	2.121448943e-01	-3.976749748e-02	2.847716648e-14
7.300000000e-03	2.121588913e-01	-3.994886207e-02	5.684515356e-14
7.400000000e-03	2.121730806e-01	-4.013265708e-02	5.705293428e-14
7.500000000e-03	2.121874621e-01	-4.031887962e-02	2.930988785e-14
7.600000000e-03	2.122020359e-01	-4.050752676e-02	3.108624469e-15
7.700000000e-03	2.122168020e-01	-4.069859554e-02	2.845291732e-14
7.800000000e-03	2.122317602e-01	-4.089208297e-02	9.769962617e-15
7.900000000e-03	2.122469106e-01	-4.108798599e-02	8.881784197e-16
8.000000000e-03	2.122622532e-01	-4.128630154e-02	3.282957831e-14
8.100000000e-03	2.122777878e-01	-4.148702650e-02	5.701662732e-14
8.200000000e-03	2.122935145e-01	-4.169015773e-02	4.244944667e-14
8.300000000e-03	2.123094332e-01	-4.189569204e-02	2.398081733e-14
8.400000000e-03	2.123255440e-01	-4.210362621e-02	1.865174681e-14
8.500000000e-03	2.123418467e-01	-4.231395699e-02	5.695433295e-14
8.600000000e-03	2.123583413e-01	-4.252668108e-02	2.664535259e-15
8.700000000e-03	2.123750278e-01	-4.274179515e-02	3.064215548e-14
8.800000000e-03	2.123919062e-01	-4.295929585e-02	5.740271772e-14
8.900000000e-03	2.124089764e-01	-4.317917976e-02	5.684341886e-14
9.000000000e-03	2.124262383e-01	-4.340144345e-02	5.688677042e-14
9.100000000e-03	2.124436921e-01	-4.362608346e-02	2.909377513e-14
9.200000000e-03	2.124613375e-01	-4.385309627e-02	6.240678079e-14
9.300000000e-03	2.124791746e-01	-4.408247834e-02	6.296834224e-14
9.400000000e-03	2.124972034e-01	-4.431422610e-02	3.197750691e-14
9.500000000e-03	2.125154237e-01	-4.454833593e-02	6.070879796e-14
9.600000000e-03	2.125338356e-01	-4.478480418e-02	2.842517867e-14
9.700000000e-03	2.125524390e-01	-4.502362717e-02	3.260957682e-14
9.800000000e-03	2.125712339e-01	-4.526480119e-02	0.000000000e+00
9.900000000e-03	2.125902203e-01	-4.550832247e-02	8.577362075e-14
1.000000000e-02	2.126093980e-01	-4.575418725e-02	5.881458212e-14
1.010000000e-02	2.126287671e-01	-4.600239168e-02	8.767810172e-14
1.020000000e-02	2.126483275e-01	-4.625293193e-02	6.588254637e-14
1.030000000e-02	2.126680792e-01	-4.650580409e-02	5.151434834e-14
1.040000000e-02	2.126880221e-01	-4.676100424e-02	8.526512829e-14
1.050000000e-02	2.127081562e-01	-4.701852844e-02	1.332267630e-14
1.060000000e-02	2.127284815e-01	-4.727837267e-02	5.942338451e-14
1.070000000e-02	2.127489978e-01	-4.754053293e-02	5.698375822e-14
1.080000000e-02	2.127697052e-01	-4.780500515e-02	7.052494599e-14
1.090000000e-02	2.127906036e-01	-4.807178523e-02	6.774798862e-14
1.100000000e-02	2.128116930e-01	-4.834086906e-02	1.199040867e-14
1.110000000e-02	2.128329734e-01	-4.861225247e-02	5.734256245e-14
1.120000000e-02	2.128544446e-01	-4.888593127e-02	1.065814104e-14
1.130000000e-02	2.128761066e-01	-4.916190124e-02	5.698375822e-14
1.140000000e-02	2.128979594e-01	-4.944015811e-02	8.532177711e-14
1.150000000e-02	2.129200030e-01	-4.972069760e-02	2.891699430e-14
1.160000000e-02	2.129422373e-01	-5.000351538e-02	5.791747391e-14
1.170000000e-02	2.129646622e-01	-5.028860710e-02	3.158033248e-14
1.180000000e-02	2.129872777e-01	-5.057596837e-02	8.881784197e-16
1.190000000e-02	2.130100838e-01	-5.086559477e-02	4.529709940e-14
1.200000000e-02	2.130330803e-01	-5.115748184e-02	1.199040867e-14
1.210000000e-02	2.130562674e-01	-5.145162511e-02	0.000000000e+00
1.220000000e-02	2.130796448e-01	-5.174802005e-02	3.260957682e-14
1.230000000e-02	2.131032126e-01	-5.204666211e-02	0.000000000e+00
1.240000000e-02	2.131269707e-01	-5.234754673e-02	8.881784197e-16
1.250000000e-02	2.131509190e-01	-5.265066928e-02	2.891699430e-14
1.260000000e-02	2.131750576e-01	-5.295602513e-02	5.809426966e-14
1.270000000e-02	2.131993863e-01	-5.326360960e-02	2.854633628e-14
1.280000000e-02	2.132239051e-01	-5.357341798e-02	2.850831366e-14
1.290000000e-02	2.132486140e-01	-5.388544555e-02	2.797762022e-14
1.300000000e-02	2.132735128e-01	-5.419968754e-02	6.923377843e-14
1.310000000e-02	2.132986016e-01	-5.451613914e-02	2.952441871e-14
1.320000000e-02	2.133238803e-01	-5.483479554e-02	1.427738176e-13
1.330000000e-02	2.133493488e-01	-5.515565188e-02	2.883845712e-14
1.340000000e-02	2.133750071e-01	-5.547870326e-02	8.529403545e-14
1.350000000e-02	2.134008552e-01	-5.580394478e-02	8.788928253e-14
1.360000000e-02	2.134268929e-01	-5.613137148e-02	6.594687385e-14
1.370000000e-02	2.134531202e-01	-5.646097839e-02	1.554312234e-14
1.380000000e-02	2.134795371e-01	-5.679276051e-02	2.909377513e-14
1.390000000e-02	2.135061435e-01	-5.712671279e-02	1.137735408e-13
1.400000000e-02	2.135329394e-01	-5.746283018e-02	8.304468224e-14
1.410000000e-02	2.135599246e-01	-5.780110757e-02	2.842170943e-14
1.420000000e-02	2.135870992e-01	-5.814153985e-02	3.865617376e-14
1.430000000e-02	2.136144631e-01	-5.848412186e-02	8.543149943e-14
1.440000000e-02	2.136420162e-01	-5.882884843e-02	7.549516567e-15
1.450000000e-02	2.136697584e-01	-5.917571434e-02	8.543149943e-14
1.460000000e-02	2.136976898e-01	-5.952471436e-02	5.687116766e-14
1.470000000e-02	2.137258102e-01	-5.987584322e-02	0.000000000e+00
1.480000000e-02	2.137541196e-01	-6.022909564e-02	4.440892099e-16
1.490000000e-02	2.137826179e-01	-6.058446628e-02	8.881784197e-16
1.500000000e-02	2.138113051e-01	-6.094194980e-02	8.987733680e-14
1.510000000e-02	2.138401811e-01	-6.130154082e-02	4.440892099e-16
1.520000000e-02	2.138692458e-01	-6.166323395e-02	1.137007147e-13
1.530000000e-02	2.138984992e-01	-6.202702374e-02	0.000000000e+00
1.540000000e-02	2.139279413e-01	-6.239290474e-02	3.508304758e-14
1.550000000e-02	2.139575719e-01	-6.276087147e-02	3.102273851e-14
1.560000000e-02	2.139873910e-01	-6.313091841e-02	8.592868015e-14
1.570000000e-02	2.140173985e-01	-6.350304003e-02	1.087501848e-13
1.580000000e-02	2.140475944e-01	-6.387723076e-02	2.854633628e-14
1.590000000e-02	2.140779786e-01	-6.425348500e-02	5.791747391e-14
1.600000000e-02	2.141085511e-01	-6.463179715e-02	4.440892099e-16
1.610000000e-02	2.141393117e-01	-6.501216156e-02	5.685035733e-14
1.620000000e-02	2.141702605e-01	-6.539457256e-02	4.179396200e-14
1.630000000e-02	2.142013973e-01	-6.577902445e-02	4.940579780e-14
1.640000000e-02	2.142327221e-01	-6.616551152e-02	3.328299755e-14
1.650000000e-02	2.142642348e-01	-6.655402801e-02	4.689716627e-14
1.660000000e-02	2.142959353e-01	-6.694456817e-02	5.687116766e-14
1.670000000e-02	2.143278237e-01	-6.733712619e-02	2.876656200e-14
1.680000000e-02	2.143598997e-01	-6.773169625e-02	5.685035733e-14
1.690000000e-02	2.143921634e-01	-6.812827251e-02	8.538069820e-14
1.700000000e-02	2.144246147e-01	-6.852684909e-02	7.549516567e-15
1.710000000e-02	2.144572535e-01	-6.892742012e-02	7.549516567e-15
1.720000000e-02	2.144900798e-01	-6.932997966e-02	3.035439898e-14
1.730000000e-02	2.145230934e-01	-6.973452177e-02	2.929642751e-14
1.740000000e-02	2.145562944e-01	-7.014104049e-02	3.108624469e-15
1.750000000e-02	2.145896825e-01	-7.054952984e-02	2.859120692e-14
1.760000000e-02	2.146232579e-01	-7.095998379e-02	5.684341886e-14
1.770000000e-02	2.146570203e-01	-7.137239631e-02	1.243449788e-14
1.780000000e-02	2.146909698e-01	-7.178676135e-02	5.961391094e-14
1.790000000e-02	2.147251062e-01	-7.220307281e-02	6.070879796e-14
1.800000000e-02	2.147594295e-01	-7.262132460e-02	8.526975410e-14
1.810000000e-02	2.147939397e-01	-7.304151059e-02	8.530675150e-14
1.820000000e-02	2.148286365e-01	-7.346362462e-02	1.421085472e-14
1.830000000e-02	2.148635201e-01	-7.388766053e-02	1.554312234e-14
1.840000000e-02	2.148985902e-01	-7.431361212e-02	2.845291732e-14
1.850000000e-02	2.149338468e-01	-7.474147317e-02	2.864289338e-14
1.860000000e-02	2.149692899e-01	-7.517123746e-02	6.186881547e-14
1.870000000e-02	2.150049194e-01	-7.560289871e-02	4.440892099e-16
1.880000000e-02	2.150407352e-01	-7.603645064e-02	5.698375822e-14
1.890000000e-02	2.150767372e-01	-7.647188696e-02	6.086614844e-14
1.900000000e-02	2.151129253e-01	-7.690920134e-02	2.845291732e-14
1.910000000e-02	2.151492995e-01	-7.734838744e-02	9.325873407e-15
1.920000000e-02	2.151858598e-01	-7.778943889e-02	3.351623381e-14
1.930000000e-02	2.152226059e-01	-7.823234931e-02	3.774758284e-14
1.940000000e-02	2.152595379e-01	-7.867711229e-02	9.045476941e-14
1.950000000e-02	2.152966556e-01	-7.912372141e-02	3.579535340e-14
1.960000000e-02	2.153339591e-01	-7.957217022e-02	3.579535340e-14
1.970000000e-02	2.153714481e-01	-8.002245225e-02	1.287858709e-14
1.980000000e-02	2.154091227e-01	-8.047456102e-02	8.728132539e-14
1.990000000e-02	2.154469828e-01	-8.092849003e-02	3.375370146e-14
2.000000000e-02	2.154850282e-01	-8.138423275e-02	5.685902923e-14
2.010000000e-02	2.155232589e-01	-8.184178263e-02	3.005404692e-14
2.020000000e-02	2.155616749e-01	-8.230113313e-02	7.105427358e-14
2.030000000e-02	2.156002759e-01	-8.276227765e-02	3.375370146e-14
2.040000000e-02	2.156390621e-01	-8.322520959e-02	1.163751005e-13
2.050000000e-02	2.156780332e-01	-8.368992235e-02	5.684515356e-14
2.060000000e-02	2.157171892e-01	-8.415640928e-02	5.687116766e-14
2.070000000e-02	2.157565301e-01	-8.462466373e-02	3.449061097e-14
2.080000000e-02	2.157960556e-01	-8.509467903e-02	5.688677042e-14
2.090000000e-02	2.158357659e-01	-8.556644849e-02	6.259137697e-14
2.100000000e-02	2.158756606e-01	-8.603996540e-02	4.440892099e-16
2.110000000e-02	2.159157399e-01	-8.651522304e-02	2.886579864e-14
2.120000000e-02	2.159560036e-01	-8.699221467e-02	2.843558383e-14
2.130000000e-02	2.159964516e-01	-8.747093353e-02	5.684515356e-14
2.140000000e-02	2.160370839e-01	-8.795137285e-02	1.175159403e-13
2.150000000e-02	2.160779003e-01	-8.843352582e-02	8.530675150e-14
2.160000000e-02	2.161189007e-01	-8.891738566e-02	5.929547246e-14
2.170000000e-02	2.161600852e-01	-8.940294553e-02	4.549693413e-14
2.180000000e-02	2.162014535e-01	-8.989019859e-02	2.131628207e-14
2.190000000e-02	2.162430057e-01	-9.037913798e-02	4.440892099e-16
2.200000000e-02	2.162847416e-01	-9.086975685e-02	1.953992523e-14
2.210000000e-02	2.163266611e-01	-9.136204829e-02	2.664535259e-15
2.220000000e-02	2.163687642e-01	-9.185600540e-02	3.305408226e-14
2.230000000e-02	2.164110508e-01	-9.235162128e-02	8.629968601e-14
2.240000000e-02	2.164535207e-01	-9.284888899e-02	2.842517867e-14
2.250000000e-02	2.164961739e-01	-9.334780157e-02	3.138928592e-14
2.260000000e-02	2.165390104e-01	-9.384835207e-02	1.165681307e-13
2.270000000e-02	2.165820299e-01	-9.435053352e-02	2.842170943e-14
2.280000000e-02	2.166252325e-01	-9.485433892e-02	1.953992523e-14
2.290000000e-02	2.166686180e-01	-9.535976126e-02	5.968829922e-14
2.300000000e-02	2.167121864e-01	-9.586679354e-02	2.991263081e-14
2.310000000e-02	2.167559375e-01	-9.637542872e-02	5.709267256e-14
2.320000000e-02	2.167998714e-01	-9.688565975e-02	2.847716648e-14
2.330000000e-02	2.168439877e-01	-9.739747958e-02	8.881784197e-16
2.340000000e-02	2.168882866e-01	-9.791088113e-02	2.940729106e-14
2.350000000e-02	2.169327679e-01	-9.842585732e-02	2.850831366e-14
2.360000000e-02	2.169774315e-01	-9.894240105e-02	2.842170943e-14
2.370000000e-02	2.170222773e-01	-9.946050522e-02	5.272519161e-14
2.380000000e-02	2.170673052e-01	-9.998016270e-02	1.154631946e-14
2.390000000e-02	2.171125152e-01	-1.005013664e-01	4.179396200e-14
2.400000000e-02	2.171579071e-01	-1.010241090e-01	2.843558383e-14
2.410000000e-02	2.172034808e-01	-1.015483836e-01	5.929547246e-14
2.420000000e-02	2.172492363e-01	-1.020741829e-01	2.842517867e-14
2.430000000e-02	2.172951735e-01	-1.026014997e-01	2.930988785e-14
2.440000000e-02	2.173412922e-01	-1.031303268e-01	4.440892099e-15
2.450000000e-02	2.173875924e-01	-1.036606570e-01	2.797762022e-14
2.460000000e-02	2.174340739e-01	-1.041924832e-01	3.424097721e-14
2.470000000e-02	2.174807368e-01	-1.047257980e-01	4.440892099e-16
2.480000000e-02	2.175275808e-01	-1.052605943e-01	2.909377513e-14
2.490000000e-02	2.175746060e-01	-1.057968648e-01	5.773159728e-15
2.500000000e-02	2.176218121e-01	-1.063346022e-01	5.684341886e-14
2.510000000e-02	2.176691991e-01	-1.068737994e-01	8.568160129e-14
2.520000000e-02	2.177167669e-01	-1.074144489e-01	2.940729106e-14
2.530000000e-02	2.177645155e-01	-1.079565435e-01	3.552713679e-14
2.540000000e-02	2.178124446e-01	-1.085000760e-01	2.909377513e-14
2.550000000e-02	2.178605543e-01	-1.090450390e-01	0.000000000e+00
2.560000000e-02	2.179088443e-01	-1.095914252e-01	3.177643716e-14
2.570000000e-02	2.179573147e-01	-1.101392273e-01	3.835655861e-14
2.580000000e-02	2.180059653e-01	-1.106884380e-01	7.213408716e-14
2.590000000e-02	2.180547960e-01	-1.112390498e-01	2.850831366e-14
2.600000000e-02	2.181038067e-01	-1.117910556e-01	1.509903313e-14
2.610000000e-02	2.181529974e-01	-1.123444478e-01	1.865174681e-14
2.620000000e-02	2.182023678e-01	-1.128992192e-01	2.850831366e-14
2.630000000e-02	2.182519180e-01	-1.134553623e-01	2.398081733e-14
2.640000000e-02	2.183016478e-01	-1.140128699e-01	2.854633628e-14
2.650000000e-02	2.183515572e-01	-1.145717344e-01	6.070879796e-14
2.660000000e-02	2.184016459e-01	-1.151319486e-01	2.850831366e-14
2.670000000e-02	2.184519139e-01	-1.156935050e-01	6.661338148e-15
2.680000000e-02	2.185023612e-01	-1.162563962e-01	2.850831366e-14
2.690000000e-02	2.185529876e-01	-1.168206147e-01	1.160084783e-13
2.700000000e-02	2.186037930e-01	-1.173861533e-01	2.859120692e-14
2.710000000e-02	2.186547773e-01	-1.179530043e-01	3.260957682e-14
2.720000000e-02	2.187059404e-01	-1.185211605e-01	2.909377513e-14
2.730000000e-02	2.187572822e-01	-1.190906143e-01	5.775379747e-14
2.740000000e-02	2.188088026e-01	-1.196613583e-01	2.220446049e-15
2.750000000e-02	2.188605015e-01	-1.202333851e-01	2.929642751e-14
2.760000000e-02	2.189123787e-01	-1.208066872e-01	2.486899575e-14
2.770000000e-02	2.189644343e-01	-1.213812572e-01	5.760335218e-14
2.780000000e-02	2.190166680e-01	-1.219570875e-01	2.842170943e-14
2.790000000e-02	2.190690799e-01	-1.225341707e-01	6.217248938e-15
2.800000000e-02	2.191216696e-01	-1.231124994e-01	1.820765760e-14
2.810000000e-02	2.191744373e-01	-1.236920659e-01	2.264854970e-14
2.820000000e-02	2.192273827e-01	-1.242728630e-01	1.079282972e-13
2.830000000e-02	2.192805058e-01	-1.248548829e-01	5.687116766e-14
2.840000000e-02	2.193338064e-01	-1.254381184e-01	3.449061097e-14
2.850000000e-02	2.193872844e-01	-1.260225618e-01	1.376676551e-14
2.860000000e-02	2.194409398e-01	-1.266082057e-01	5.685035733e-14
2.870000000e-02	2.194947724e-01	-1.271950425e-01	8.881784197e-15
2.880000000e-02	2.195487821e-01	-1.277830648e-01	2.845291732e-14
2.890000000e-02	2.196029688e-01	-1.283722650e-01	1.243449788e-14
2.900000000e-02	2.196573324e-01	-1.289626356e-01	1.295766781e-13
2.910000000e-02	2.197118729e-01	-1.295541691e-01	1.776356839e-15
2.920000000e-02	2.197665899e-01	-1.301468579e-01	8.535875196e-14
2.930000000e-02	2.198214836e-01	-1.307406947e-01	4.440892099e-16
2.940000000e-02	2.198765537e-01	-1.313356717e-01	1.149324839e-13
2.950000000e-02	2.199318002e-01	-1.319317815e-01	3.153033390e-14
2.960000000e-02	2.199872229e-01	-1.325290166e-01	8.529403545e-14
2.970000000e-02	2.200428218e-01	-1.331273694e-01	5.235169529e-14
2.980000000e-02	2.200985967e-01	-1.337268324e-01	1.598721155e-14
2.990000000e-02	2.201545475e-01	-1.343273981e-01	1.021405183e-14
3.000000000e-02	2.202106741e-01	-1.349290589e-01	5.929547246e-14
3.010000000e-02	2.202669763e-01	-1.355318072e-01	2.442490654e-14
3.020000000e-02	2.203234542e-01	-1.361356356e-01	2.842170943e-14
3.030000000e-02	2.203801075e-01	-1.367405364e-01	8.532177711e-14
