# Ep [eV]     Omega/c [1/micrones]    Im(epsi1)     Eq(det).Opt det SIN kz nano,R = 0.5 $\mu$m, $\mu_c$ = 0.3 eV, modo = 1, $\epsilon_\infty$ = 4.9, $\gamma_{DL}$ = 0.01 eV, solve_det_sinkz_vs_Ep.py
0.000000000e+00	1.221675868e-01	-4.090752754e-02	1.432144669e-14
1.000000000e-04	1.221677381e-01	-4.091351762e-02	3.330669074e-16
2.000000000e-04	1.221681921e-01	-4.093148762e-02	1.425415683e-14
3.000000000e-04	1.221689486e-01	-4.096143681e-02	8.104628080e-15
4.000000000e-04	1.221700078e-01	-4.100336399e-02	1.476220936e-14
5.000000000e-04	1.221713696e-01	-4.105726747e-02	1.221245327e-15
6.000000000e-04	1.221730340e-01	-4.112314507e-02	1.421258933e-14
7.000000000e-04	1.221750010e-01	-4.120099416e-02	2.864289338e-14
8.000000000e-04	1.221772705e-01	-4.129081158e-02	2.331468352e-15
9.000000000e-04	1.221798427e-01	-4.139259372e-02	1.932808688e-14
1.000000000e-03	1.221827175e-01	-4.150633650e-02	1.635950452e-14
1.100000000e-03	1.221858948e-01	-4.163203532e-02	1.421475731e-14
1.200000000e-03	1.221893747e-01	-4.176968512e-02	2.842951461e-14
1.300000000e-03	1.221931572e-01	-4.191928038e-02	2.220446049e-16
1.400000000e-03	1.221972422e-01	-4.208081506e-02	1.429560346e-14
1.500000000e-03	1.222016297e-01	-4.225428266e-02	1.574208556e-14
1.600000000e-03	1.222063198e-01	-4.243967622e-02	2.885747077e-14
1.700000000e-03	1.222113123e-01	-4.263698827e-02	2.873312098e-14
1.800000000e-03	1.222166074e-01	-4.284621087e-02	3.441691376e-15
1.900000000e-03	1.222222049e-01	-4.306733562e-02	2.997602166e-15
2.000000000e-03	1.222281048e-01	-4.330035362e-02	1.438328100e-14
2.100000000e-03	1.222343072e-01	-4.354525551e-02	2.958530848e-14
2.200000000e-03	1.222408120e-01	-4.380203144e-02	3.330669074e-16
2.300000000e-03	1.222476192e-01	-4.407067111e-02	1.421085472e-14
2.400000000e-03	1.222547287e-01	-4.435116372e-02	1.422169260e-14
2.500000000e-03	1.222621406e-01	-4.464349800e-02	2.664535259e-15
2.600000000e-03	1.222698549e-01	-4.494766223e-02	1.423208921e-14
2.700000000e-03	1.222778714e-01	-4.526364419e-02	2.109423747e-15
2.800000000e-03	1.222861902e-01	-4.559143120e-02	5.551115123e-16
2.900000000e-03	1.222948113e-01	-4.593101013e-02	9.992007222e-16
3.000000000e-03	1.223037345e-01	-4.628236735e-02	5.551115123e-16
3.100000000e-03	1.223129600e-01	-4.664548878e-02	1.088018564e-14
3.200000000e-03	1.223224877e-01	-4.702035987e-02	1.521005544e-14
3.300000000e-03	1.223323175e-01	-4.740696560e-02	5.551115123e-16
3.400000000e-03	1.223424493e-01	-4.780529049e-02	2.842712992e-14
3.500000000e-03	1.223528833e-01	-4.821531860e-02	3.330669074e-16
3.600000000e-03	1.223636193e-01	-4.863703352e-02	8.437694987e-15
3.700000000e-03	1.223746573e-01	-4.907041838e-02	1.443289932e-15
3.800000000e-03	1.223859973e-01	-4.951545586e-02	6.883382753e-15
3.900000000e-03	1.223976392e-01	-4.997212817e-02	3.996802889e-15
4.000000000e-03	1.224095830e-01	-5.044041706e-02	1.488858336e-14
4.100000000e-03	1.224218287e-01	-5.092030383e-02	3.885780586e-15
4.200000000e-03	1.224343762e-01	-5.141176934e-02	1.652704113e-14
4.300000000e-03	1.224472255e-01	-5.191479397e-02	2.844793502e-14
4.400000000e-03	1.224603766e-01	-5.242935766e-02	1.443289932e-15
4.500000000e-03	1.224738293e-01	-5.295543991e-02	2.842192627e-14
4.600000000e-03	1.224875837e-01	-5.349301976e-02	7.771561172e-16
4.700000000e-03	1.225016397e-01	-5.404207580e-02	2.864289338e-14
4.800000000e-03	1.225159973e-01	-5.460258617e-02	2.997602166e-15
4.900000000e-03	1.225306564e-01	-5.517452860e-02	4.440892099e-16
5.000000000e-03	1.225456170e-01	-5.575788032e-02	4.440892099e-16
5.100000000e-03	1.225608790e-01	-5.635261817e-02	1.421779192e-14
5.200000000e-03	1.225764425e-01	-5.695871853e-02	6.661338148e-16
5.300000000e-03	1.225923072e-01	-5.757615734e-02	1.443289932e-15
5.400000000e-03	1.226084732e-01	-5.820491012e-02	1.560169520e-14
5.500000000e-03	1.226249405e-01	-5.884495192e-02	2.220446049e-15
5.600000000e-03	1.226417089e-01	-5.949625740e-02	2.870135886e-14
5.700000000e-03	1.226587785e-01	-6.015880076e-02	5.551115123e-16
5.800000000e-03	1.226761492e-01	-6.083255580e-02	1.998401444e-15
5.900000000e-03	1.226938208e-01	-6.151749586e-02	1.454688756e-14
6.000000000e-03	1.227117935e-01	-6.221359387e-02	2.842170943e-14
6.100000000e-03	1.227300670e-01	-6.292082235e-02	1.482386812e-14
6.200000000e-03	1.227486414e-01	-6.363915338e-02	1.669954059e-14
6.300000000e-03	1.227675165e-01	-6.436855864e-02	1.426323357e-14
6.400000000e-03	1.227866924e-01	-6.510900937e-02	2.220446049e-16
6.500000000e-03	1.228061690e-01	-6.586047640e-02	1.603993730e-14
6.600000000e-03	1.228259461e-01	-6.662293017e-02	5.884182031e-15
6.700000000e-03	1.228460238e-01	-6.739634069e-02	1.110223025e-16
6.800000000e-03	1.228664020e-01	-6.818067757e-02	1.432144669e-14
6.900000000e-03	1.228870806e-01	-6.897590999e-02	1.332267630e-15
7.000000000e-03	1.229080595e-01	-6.978200677e-02	1.422645866e-14
7.100000000e-03	1.229293387e-01	-7.059893629e-02	1.424593956e-14
7.200000000e-03	1.229509181e-01	-7.142666654e-02	1.485584613e-14
7.300000000e-03	1.229727977e-01	-7.226516513e-02	1.593817861e-14
7.400000000e-03	1.229949773e-01	-7.311439925e-02	2.220446049e-15
7.500000000e-03	1.230174569e-01	-7.397433571e-02	3.552713679e-15
7.600000000e-03	1.230402364e-01	-7.484494094e-02	1.422645866e-14
7.700000000e-03	1.230633158e-01	-7.572618096e-02	1.422645866e-14
7.800000000e-03	1.230866950e-01	-7.661802141e-02	2.842951461e-14
7.900000000e-03	1.231103738e-01	-7.752042757e-02	1.429560346e-14
8.000000000e-03	1.231343523e-01	-7.843336431e-02	3.330669074e-16
8.100000000e-03	1.231586303e-01	-7.935679614e-02	1.110223025e-15
8.200000000e-03	1.231832078e-01	-8.029068718e-02	5.218048216e-15
8.300000000e-03	1.232080847e-01	-8.123500118e-02	9.992007222e-16
8.400000000e-03	1.232332609e-01	-8.218970155e-02	6.661338148e-16
8.500000000e-03	1.232587363e-01	-8.315475128e-02	1.776356839e-15
8.600000000e-03	1.232845108e-01	-8.413011303e-02	3.108624469e-15
8.700000000e-03	1.233105844e-01	-8.511574910e-02	1.433564061e-14
8.800000000e-03	1.233369570e-01	-8.611162140e-02	1.110223025e-15
8.900000000e-03	1.233636285e-01	-8.711769151e-02	1.421779192e-14
9.000000000e-03	1.233905987e-01	-8.813392064e-02	4.996003611e-15
9.100000000e-03	1.234178677e-01	-8.916026966e-02	1.485584613e-14
9.200000000e-03	1.234454353e-01	-9.019669909e-02	5.107025913e-15
9.300000000e-03	1.234733014e-01	-9.124316909e-02	1.492207480e-14
9.400000000e-03	1.235014660e-01	-9.229963949e-02	2.914203267e-14
9.500000000e-03	1.235299289e-01	-9.336606978e-02	3.330669074e-16
9.600000000e-03	1.235586901e-01	-9.444241908e-02	1.438328100e-14
9.700000000e-03	1.235877494e-01	-9.552864623e-02	4.662936703e-15
9.800000000e-03	1.236171068e-01	-9.662470970e-02	1.445849715e-14
9.900000000e-03	1.236467621e-01	-9.773056762e-02	5.551115123e-16
1.000000000e-02	1.236767153e-01	-9.884617784e-02	2.109423747e-15
1.010000000e-02	1.237069663e-01	-9.997149784e-02	1.221245327e-15
1.020000000e-02	1.237375149e-01	-1.011064848e-01	1.441922856e-14
1.030000000e-02	1.237683612e-01	-1.022510956e-01	2.916676541e-14
1.040000000e-02	1.237995049e-01	-1.034052867e-01	5.662137426e-15
1.050000000e-02	1.238309459e-01	-1.045690145e-01	1.110223025e-16
1.060000000e-02	1.238626842e-01	-1.057422348e-01	1.221245327e-15
1.070000000e-02	1.238947197e-01	-1.069249032e-01	2.041361735e-14
1.080000000e-02	1.239270522e-01	-1.081169751e-01	7.895083120e-15
1.090000000e-02	1.239596816e-01	-1.093184054e-01	9.664043440e-15
1.100000000e-02	1.239926079e-01	-1.105291490e-01	1.423208921e-14
1.110000000e-02	1.240258308e-01	-1.117491601e-01	9.155133597e-15
1.120000000e-02	1.240593504e-01	-1.129783931e-01	1.438328100e-14
1.130000000e-02	1.240931665e-01	-1.142168016e-01	8.548717290e-15
1.140000000e-02	1.241272790e-01	-1.154643393e-01	2.154176008e-14
1.150000000e-02	1.241616877e-01	-1.167209594e-01	1.588821858e-14
1.160000000e-02	1.241963926e-01	-1.179866150e-01	1.424593956e-14
1.170000000e-02	1.242313935e-01	-1.192612587e-01	2.106031918e-14
1.180000000e-02	1.242666904e-01	-1.205448431e-01	2.442490654e-15
1.190000000e-02	1.243022830e-01	-1.218373204e-01	3.330669074e-15
1.200000000e-02	1.243381713e-01	-1.231386423e-01	3.552713679e-15
1.210000000e-02	1.243743552e-01	-1.244487608e-01	2.131657119e-14
1.220000000e-02	1.244108345e-01	-1.257676270e-01	3.559645810e-14
1.230000000e-02	1.244476091e-01	-1.270951922e-01	1.422645866e-14
1.240000000e-02	1.244846789e-01	-1.284314072e-01	7.105427358e-15
1.250000000e-02	1.245220438e-01	-1.297762228e-01	7.324106878e-15
1.260000000e-02	1.245597036e-01	-1.311295893e-01	7.944109290e-15
1.270000000e-02	1.245976582e-01	-1.324914569e-01	9.085532354e-15
1.280000000e-02	1.246359075e-01	-1.338617754e-01	1.422645866e-14
1.290000000e-02	1.246744513e-01	-1.352404947e-01	7.711855593e-15
1.300000000e-02	1.247132895e-01	-1.366275640e-01	5.551115123e-16
1.310000000e-02	1.247524221e-01	-1.380229328e-01	1.433564061e-14
1.320000000e-02	1.247918487e-01	-1.394265499e-01	7.136584070e-15
1.330000000e-02	1.248315694e-01	-1.408383641e-01	8.379058453e-15
1.340000000e-02	1.248715840e-01	-1.422583240e-01	5.107025913e-15
1.350000000e-02	1.249118923e-01	-1.436863780e-01	9.085532354e-15
1.360000000e-02	1.249524942e-01	-1.451224741e-01	7.381104678e-15
1.370000000e-02	1.249933896e-01	-1.465665603e-01	1.110223025e-16
1.380000000e-02	1.250345783e-01	-1.480185843e-01	7.136584070e-15
1.390000000e-02	1.250760601e-01	-1.494784937e-01	2.220446049e-16
1.400000000e-02	1.251178350e-01	-1.509462356e-01	1.032507413e-14
1.410000000e-02	1.251599028e-01	-1.524217573e-01	2.280501870e-14
1.420000000e-02	1.252022634e-01	-1.539050057e-01	1.428395875e-14
1.430000000e-02	1.252449165e-01	-1.553959274e-01	2.134517455e-14
1.440000000e-02	1.252878621e-01	-1.568944692e-01	7.136584070e-15
1.450000000e-02	1.253311000e-01	-1.584005773e-01	2.220446049e-15
1.460000000e-02	1.253746301e-01	-1.599141979e-01	7.209614281e-15
1.470000000e-02	1.254184521e-01	-1.614352771e-01	7.105427358e-15
6.320000000e-02	1.757204328e-01	-9.107842373e-01	1.387778781e-15
6.330000000e-02	1.758698435e-01	-9.114343016e-01	1.831026719e-15
6.340000000e-02	1.760193815e-01	-9.120803515e-01	3.722145839e-15
6.350000000e-02	1.761690464e-01	-9.127223978e-01	7.175339714e-15
6.360000000e-02	1.763188379e-01	-9.133604511e-01	1.790180837e-15
6.370000000e-02	1.764687557e-01	-9.139945219e-01	4.996003611e-16
6.380000000e-02	1.766187994e-01	-9.146246209e-01	8.998287412e-15
6.390000000e-02	1.767689687e-01	-9.152507588e-01	6.498599220e-15
6.400000000e-02	1.769192633e-01	-9.158729463e-01	2.843558383e-15
6.410000000e-02	1.770696829e-01	-9.164911941e-01	5.370542510e-15
6.420000000e-02	1.772202271e-01	-9.171055129e-01	2.155663186e-15
6.430000000e-02	1.773708957e-01	-9.177159134e-01	1.807312144e-15
6.440000000e-02	1.775216882e-01	-9.183224065e-01	3.662053439e-15
6.450000000e-02	1.776726044e-01	-9.189250029e-01	3.662053439e-15
6.460000000e-02	1.778236439e-01	-9.195237134e-01	1.165734176e-15
6.470000000e-02	1.779748065e-01	-9.201185489e-01	3.739078851e-15
6.480000000e-02	1.781260917e-01	-9.207095201e-01	4.612772922e-15
6.490000000e-02	1.782774993e-01	-9.212966379e-01	3.554447979e-15
6.500000000e-02	1.784290290e-01	-9.218799132e-01	3.690552339e-15
6.510000000e-02	1.785806804e-01	-9.224593569e-01	3.580361673e-15
6.520000000e-02	1.787324533e-01	-9.230349798e-01	1.790180837e-15
6.530000000e-02	1.788843472e-01	-9.236067928e-01	2.254190224e-15
6.540000000e-02	1.790363619e-01	-9.241748069e-01	7.266874041e-15
6.550000000e-02	1.791884971e-01	-9.247390329e-01	3.330669074e-16
6.560000000e-02	1.793407525e-01	-9.252994819e-01	3.556614665e-15
6.570000000e-02	1.794931276e-01	-9.258561648e-01	3.614624288e-15
6.580000000e-02	1.796456223e-01	-9.264090925e-01	3.756755865e-15
6.590000000e-02	1.797982363e-01	-9.269582760e-01	1.973770780e-15
6.600000000e-02	1.799509691e-01	-9.275037263e-01	2.779024843e-15
6.610000000e-02	1.801038205e-01	-9.280454544e-01	5.347542222e-15
6.620000000e-02	1.802567901e-01	-9.285834713e-01	2.220446049e-15
6.630000000e-02	1.804098777e-01	-9.291177880e-01	2.187590164e-15
6.640000000e-02	1.805630830e-01	-9.296484155e-01	3.824331575e-15
6.650000000e-02	1.807164056e-01	-9.301753648e-01	2.434909185e-15
6.660000000e-02	1.808698452e-01	-9.306986469e-01	7.224185050e-15
6.670000000e-02	1.810234016e-01	-9.312182730e-01	1.802403570e-15
6.680000000e-02	1.811770744e-01	-9.317342540e-01	3.619842119e-15
6.690000000e-02	1.813308633e-01	-9.322466011e-01	5.374055738e-15
6.700000000e-02	1.814847679e-01	-9.327553251e-01	1.778307332e-15
6.710000000e-02	1.816387881e-01	-9.332604373e-01	9.436895709e-16
6.720000000e-02	1.817929235e-01	-9.337619487e-01	4.773959006e-15
6.730000000e-02	1.819471738e-01	-9.342598703e-01	3.614624288e-15
6.740000000e-02	1.821015386e-01	-9.347542132e-01	5.329359631e-15
6.750000000e-02	1.822560177e-01	-9.352449885e-01	4.219212683e-15
6.760000000e-02	1.824106108e-01	-9.357322073e-01	7.107378654e-15
6.770000000e-02	1.825653176e-01	-9.362158807e-01	3.559645810e-15
6.780000000e-02	1.827201377e-01	-9.366960197e-01	5.521057726e-15
6.790000000e-02	1.828750709e-01	-9.371726354e-01	5.411981393e-15
6.800000000e-02	1.830301169e-01	-9.376457389e-01	1.428118095e-14
6.810000000e-02	1.831852754e-01	-9.381153413e-01	1.776573667e-15
6.820000000e-02	1.833405461e-01	-9.385814537e-01	5.828670879e-16
6.830000000e-02	1.834959286e-01	-9.390440872e-01	2.975418419e-15
6.840000000e-02	1.836514227e-01	-9.395032529e-01	1.797910125e-15
6.850000000e-02	1.838070281e-01	-9.399589618e-01	1.961830370e-15
6.860000000e-02	1.839627445e-01	-9.404112250e-01	3.558022303e-15
6.870000000e-02	1.841185716e-01	-9.408600537e-01	6.530527750e-15
6.880000000e-02	1.842745091e-01	-9.413054588e-01	4.612772922e-15
6.890000000e-02	1.844305567e-01	-9.417474516e-01	2.011465542e-15
6.900000000e-02	1.845867142e-01	-9.421860430e-01	1.665334537e-16
6.910000000e-02	1.847429811e-01	-9.426212441e-01	1.026956298e-15
6.920000000e-02	1.848993573e-01	-9.430530661e-01	1.054711873e-15
6.930000000e-02	1.850558425e-01	-9.434815199e-01	4.131760282e-15
6.940000000e-02	1.852124363e-01	-9.439066168e-01	1.917345842e-15
6.950000000e-02	1.853691385e-01	-9.443283676e-01	4.965766470e-15
6.960000000e-02	1.855259487e-01	-9.447467835e-01	5.355100080e-15
6.970000000e-02	1.856828667e-01	-9.451618755e-01	2.636779683e-15
6.980000000e-02	1.858398923e-01	-9.455736547e-01	3.556614665e-15
6.990000000e-02	1.859970250e-01	-9.459821321e-01	1.831026719e-15
7.000000000e-02	1.861542647e-01	-9.463873187e-01	7.122969778e-15
7.010000000e-02	1.863116111e-01	-9.467892257e-01	2.736564634e-15
7.020000000e-02	1.864690637e-01	-9.471878639e-01	1.897149936e-15
7.030000000e-02	1.866266225e-01	-9.475832445e-01	5.479881358e-15
7.040000000e-02	1.867842871e-01	-9.479753784e-01	5.411981393e-15
7.050000000e-02	1.869420572e-01	-9.483642767e-01	1.942890293e-16
7.060000000e-02	1.870999325e-01	-9.487499503e-01	8.049116929e-16
7.070000000e-02	1.872579128e-01	-9.491324102e-01	1.942890293e-15
7.080000000e-02	1.874159977e-01	-9.495116675e-01	0.000000000e+00
7.090000000e-02	1.875741870e-01	-9.498877330e-01	2.775557562e-17
7.100000000e-02	1.877324805e-01	-9.502606178e-01	9.436895709e-16
7.110000000e-02	1.878908777e-01	-9.506303328e-01	8.888027008e-15
7.120000000e-02	1.880493786e-01	-9.509968889e-01	6.008553267e-15
7.130000000e-02	1.882079827e-01	-9.513602971e-01	2.775557562e-17
7.140000000e-02	1.883666898e-01	-9.517205683e-01	4.171839369e-15
7.150000000e-02	1.885254996e-01	-9.520777135e-01	3.698163561e-15
7.160000000e-02	1.886844119e-01	-9.524317435e-01	3.698163561e-15
7.170000000e-02	1.888434264e-01	-9.527826692e-01	5.741648548e-15
7.180000000e-02	1.890025427e-01	-9.531305015e-01	4.718447855e-16
7.190000000e-02	1.891617608e-01	-9.534752514e-01	3.413935801e-15
7.200000000e-02	1.893210801e-01	-9.538169295e-01	3.683134556e-15
7.210000000e-02	1.894805006e-01	-9.541555469e-01	2.051848644e-15
7.220000000e-02	1.896400219e-01	-9.544911144e-01	6.867303791e-15
7.230000000e-02	1.897996437e-01	-9.548236427e-01	3.565808393e-15
7.240000000e-02	1.899593658e-01	-9.551531427e-01	7.108083157e-15
7.250000000e-02	1.901191879e-01	-9.554796252e-01	5.407210711e-15
7.260000000e-02	1.902791098e-01	-9.558031009e-01	1.824493715e-15
7.270000000e-02	1.904391311e-01	-9.561235808e-01	5.551115123e-17
7.280000000e-02	1.905992516e-01	-9.564410755e-01	3.591640122e-15
7.290000000e-02	1.907594711e-01	-9.567555957e-01	2.220446049e-15
7.300000000e-02	1.909197893e-01	-9.570671523e-01	2.775557562e-16
7.310000000e-02	1.910802059e-01	-9.573757559e-01	8.326672685e-17
7.320000000e-02	1.912407206e-01	-9.576814172e-01	1.950211900e-15
7.330000000e-02	1.914013332e-01	-9.579841470e-01	1.778307332e-15
7.340000000e-02	1.915620434e-01	-9.582839559e-01	1.190167368e-14
7.350000000e-02	1.917228510e-01	-9.585808546e-01	8.326672685e-16
7.360000000e-02	1.918837557e-01	-9.588748538e-01	3.556614665e-15
7.370000000e-02	1.920447572e-01	-9.591659640e-01	1.869539425e-15
7.380000000e-02	1.922058553e-01	-9.594541960e-01	3.330669074e-16
7.390000000e-02	1.923670498e-01	-9.597395602e-01	1.790180837e-15
7.400000000e-02	1.925283402e-01	-9.600220674e-01	2.498001805e-16
7.410000000e-02	1.926897265e-01	-9.603017280e-01	5.337809251e-15
7.420000000e-02	1.928512084e-01	-9.605785526e-01	2.051848644e-15
7.430000000e-02	1.930127855e-01	-9.608525519e-01	8.326672685e-17
7.440000000e-02	1.931744576e-01	-9.611237362e-01	8.326672685e-16
7.450000000e-02	1.933362246e-01	-9.613921161e-01	3.365756963e-15
7.460000000e-02	1.934980860e-01	-9.616577022e-01	3.609612342e-15
7.470000000e-02	1.936600417e-01	-9.619205048e-01	1.776573667e-15
7.480000000e-02	1.938220915e-01	-9.621805345e-01	1.776573667e-15
7.490000000e-02	1.939842350e-01	-9.624378017e-01	1.878377933e-15
7.500000000e-02	1.941464720e-01	-9.626923167e-01	5.334921997e-15
7.510000000e-02	1.943088023e-01	-9.629440901e-01	1.793834929e-15
7.520000000e-02	1.944712255e-01	-9.631931322e-01	1.917345842e-15
7.530000000e-02	1.946337416e-01	-9.634394533e-01	1.812632474e-15
7.540000000e-02	1.947963501e-01	-9.636830639e-01	5.575002910e-15
7.550000000e-02	1.949590509e-01	-9.639239742e-01	3.553689327e-15
7.560000000e-02	1.951218437e-01	-9.641621946e-01	5.332611069e-15
7.570000000e-02	1.952847283e-01	-9.643977354e-01	3.559645810e-15
7.580000000e-02	1.954477044e-01	-9.646306069e-01	2.248201625e-15
7.590000000e-02	1.956107717e-01	-9.648608192e-01	4.449990077e-15
7.600000000e-02	1.957739301e-01	-9.650883827e-01	3.600209511e-15
7.610000000e-02	1.959371793e-01	-9.653133076e-01	1.869539425e-15
7.620000000e-02	1.961005190e-01	-9.655356041e-01	1.387778781e-16
7.630000000e-02	1.962639490e-01	-9.657552824e-01	5.329721000e-15
7.640000000e-02	1.964274690e-01	-9.659723526e-01	6.543961912e-15
7.650000000e-02	1.965910789e-01	-9.661868249e-01	2.065880141e-15
7.660000000e-02	1.967547783e-01	-9.663987093e-01	3.248706834e-15
7.670000000e-02	1.969185670e-01	-9.666080161e-01	1.837955691e-15
7.680000000e-02	1.970824449e-01	-9.668147553e-01	3.730518701e-15
7.690000000e-02	1.972464115e-01	-9.670189370e-01	8.326672685e-16
7.700000000e-02	1.974104668e-01	-9.672205711e-01	8.326672685e-17
7.710000000e-02	1.975746104e-01	-9.674196678e-01	1.465536446e-15
7.720000000e-02	1.977388422e-01	-9.676162370e-01	3.558022303e-15
7.730000000e-02	1.979031619e-01	-9.678102888e-01	2.760528863e-15
7.740000000e-02	1.980675692e-01	-9.680018330e-01	8.886119947e-16
7.750000000e-02	1.982320639e-01	-9.681908797e-01	9.694605783e-16
7.760000000e-02	1.983966458e-01	-9.683774387e-01	5.329721000e-15
7.770000000e-02	1.985613147e-01	-9.685615199e-01	1.973770780e-15
7.780000000e-02	1.987260702e-01	-9.687431333e-01	4.441239030e-15
7.790000000e-02	1.988909123e-01	-9.689222887e-01	9.036560720e-16
7.800000000e-02	1.990558406e-01	-9.690989959e-01	5.551115123e-17
7.810000000e-02	1.992208549e-01	-9.692732647e-01	3.608224830e-16
7.820000000e-02	1.993859550e-01	-9.694451050e-01	1.198642456e-15
7.830000000e-02	1.995511407e-01	-9.696145264e-01	3.580361673e-15
7.840000000e-02	1.997164116e-01	-9.697815389e-01	8.989550627e-16
7.850000000e-02	1.998817677e-01	-9.699461520e-01	2.676219026e-15
7.860000000e-02	2.000472086e-01	-9.701083755e-01	2.038098551e-15
7.870000000e-02	2.002127342e-01	-9.702682190e-01	6.106226635e-16
