# R [micrones]     Omega/c [1/micrones]    Im(epsi1)     Eq(det)$\mu$ = 0.3 eV, $E_p$ = 0.100 eV, modo = 4, $\epsilon_\infty$ = 3.9, $\gamma_{DL}$ = 0.01 eV, solve_det_sinkz_vs_R2.py
6.000000000e-03	1.865715589e+00	-5.783886869e-01	4.099037228e-13
7.000000000e-03	1.788758878e+00	-4.870865236e-01	1.136868377e-13
8.000000000e-03	1.720022323e+00	-4.216048331e-01	6.915300367e-13
9.000000000e-03	1.658290373e+00	-3.725902526e-01	4.547473509e-13
1.000000000e-02	1.602546154e+00	-3.346550783e-01	0.000000000e+00
1.100000000e-02	1.551945150e+00	-3.044985802e-01	7.279509461e-13
1.200000000e-02	1.505786634e+00	-2.799961268e-01	1.705302566e-13
1.400000000e-02	1.424561515e+00	-2.426929607e-01	2.681298705e-13
1.500000000e-02	1.388599051e+00	-2.281995953e-01	3.639754730e-13
1.700000000e-02	1.324235888e+00	-2.048913990e-01	2.273736754e-13
1.800000000e-02	1.295291154e+00	-1.953972698e-01	3.694822226e-13
1.900000000e-02	1.268205427e+00	-1.870177068e-01	6.233367514e-13
2.000000000e-02	1.242792714e+00	-1.795738626e-01	3.116683757e-13
2.100000000e-02	1.218891544e+00	-1.729232654e-01	1.421085472e-13
2.200000000e-02	1.196361055e+00	-1.669510576e-01	3.021269155e-13
2.400000000e-02	1.154933104e+00	-1.566839778e-01	1.284019731e-12
2.500000000e-02	1.135830935e+00	-1.522481119e-01	1.340649353e-12
2.600000000e-02	1.117686068e+00	-1.482024899e-01	2.759248878e-13
2.800000000e-02	1.083972736e+00	-1.411080857e-01	4.099037228e-13
2.900000000e-02	1.068275627e+00	-1.379881259e-01	2.759248878e-13
3.000000000e-02	1.053276583e+00	-1.351138447e-01	3.259989895e-13
3.100000000e-02	1.038926258e+00	-1.324608407e-01	6.635114875e-13
3.200000000e-02	1.025180009e+00	-1.300079009e-01	3.193492412e-13
3.400000000e-02	9.993414318e-01	-1.256303589e-01	8.499231714e-13
3.500000000e-02	9.871787094e-01	-1.236751639e-01	4.263256415e-14
3.600000000e-02	9.754785025e-01	-1.218582288e-01	5.684341886e-14
3.700000000e-02	9.642127249e-01	-1.201682911e-01	1.066500740e-12
3.800000000e-02	9.533556040e-01	-1.185953123e-01	4.040108756e-13
3.900000000e-02	9.428834429e-01	-1.171303146e-01	1.214175959e-13
4.000000000e-02	9.327744119e-01	-1.157652430e-01	2.049518614e-13
4.100000000e-02	9.230083639e-01	-1.144928489e-01	1.421085472e-14
4.200000000e-02	9.135666729e-01	-1.133065905e-01	3.011226127e-13
4.300000000e-02	9.044320893e-01	-1.122005477e-01	3.515571301e-13
4.400000000e-02	8.955886133e-01	-1.111693493e-01	2.913225217e-13
4.500000000e-02	8.870213810e-01	-1.102081097e-01	9.664426066e-14
4.600000000e-02	8.787165630e-01	-1.093123749e-01	1.271057486e-13
4.700000000e-02	8.706612746e-01	-1.084780750e-01	1.487480106e-13
4.800000000e-02	8.628434943e-01	-1.077014831e-01	3.984744948e-13
4.900000000e-02	8.552519914e-01	-1.069791794e-01	1.191086669e-13
5.000000000e-02	8.478762604e-01	-1.063080196e-01	9.947598301e-14
5.200000000e-02	8.337333718e-01	-1.051077697e-01	1.834040049e-13
5.300000000e-02	8.269483278e-01	-1.045735358e-01	4.730315191e-13
5.400000000e-02	8.203431916e-01	-1.040801176e-01	1.207922651e-13
5.500000000e-02	8.139103060e-01	-1.036253929e-01	3.552713679e-14
5.600000000e-02	8.076424602e-01	-1.032073905e-01	1.065814104e-14
5.700000000e-02	8.015328564e-01	-1.028242765e-01	2.478765785e-13
5.800000000e-02	7.955750803e-01	-1.024743422e-01	4.172434966e-13
5.900000000e-02	7.897630739e-01	-1.021559937e-01	5.695433295e-14
6.000000000e-02	7.840911103e-01	-1.018677419e-01	3.375638903e-13
6.100000000e-02	7.785537709e-01	-1.016081938e-01	1.101341240e-13
6.200000000e-02	7.731459245e-01	-1.013760448e-01	2.296108709e-13
6.300000000e-02	7.678627082e-01	-1.011700718e-01	6.204547701e-14
6.400000000e-02	7.626995095e-01	-1.009891261e-01	1.442681743e-13
6.500000000e-02	7.576519499e-01	-1.008321285e-01	2.069436658e-13
6.600000000e-02	7.527158702e-01	-1.006980633e-01	1.065814104e-14
6.700000000e-02	7.478873164e-01	-1.005859741e-01	1.711213511e-13
6.800000000e-02	7.431625271e-01	-1.004949588e-01	1.563597684e-13
6.900000000e-02	7.385379214e-01	-1.004241663e-01	2.025046797e-13
7.000000000e-02	7.340100880e-01	-1.003727924e-01	1.737927108e-13
7.100000000e-02	7.295757753e-01	-1.003400767e-01	3.088205434e-13
7.200000000e-02	7.252318816e-01	-1.003252994e-01	2.411662017e-13
7.300000000e-02	7.209754464e-01	-1.003277789e-01	1.735019658e-13
7.400000000e-02	7.168036426e-01	-1.003468686e-01	1.432144669e-13
7.500000000e-02	7.127137685e-01	-1.003819553e-01	2.422171820e-13
7.600000000e-02	7.087032410e-01	-1.004324564e-01	1.861364310e-13
7.700000000e-02	7.047695887e-01	-1.004978182e-01	1.718573603e-13
7.800000000e-02	7.009104463e-01	-1.005775142e-01	3.606485631e-13
7.900000000e-02	6.971235483e-01	-1.006710431e-01	1.945593297e-12
8.000000000e-02	6.934067240e-01	-1.007779275e-01	1.167675978e-13
8.100000000e-02	6.897578924e-01	-1.008977122e-01	3.019806627e-14
8.200000000e-02	6.861750574e-01	-1.010299630e-01	2.785653775e-13
8.300000000e-02	6.826563034e-01	-1.011742654e-01	2.863628272e-13
8.400000000e-02	6.791997915e-01	-1.013302237e-01	3.623767952e-13
8.500000000e-02	6.758037552e-01	-1.014974595e-01	3.552713679e-15
8.600000000e-02	6.724664970e-01	-1.016756109e-01	1.115008873e-13
8.700000000e-02	6.691863848e-01	-1.018643317e-01	1.741916929e-13
8.800000000e-02	6.659618492e-01	-1.020632902e-01	1.718573603e-13
8.900000000e-02	6.627913798e-01	-1.022721689e-01	3.197442311e-14
9.000000000e-02	6.596735227e-01	-1.024906632e-01	9.947598301e-14
9.100000000e-02	6.566068778e-01	-1.027184809e-01	1.776356839e-14
9.200000000e-02	6.535900965e-01	-1.029553419e-01	6.277857184e-14
9.300000000e-02	6.506218788e-01	-1.032009769e-01	1.132975933e-13
9.400000000e-02	6.477009713e-01	-1.034551274e-01	4.608268175e-13
9.500000000e-02	6.448261654e-01	-1.037175448e-01	1.193336376e-13
9.600000000e-02	6.419962948e-01	-1.039879902e-01	7.324106878e-14
9.700000000e-02	6.392102339e-01	-1.042662336e-01	2.981370345e-13
9.800000000e-02	6.364668958e-01	-1.045520537e-01	1.421085472e-14
9.900000000e-02	6.337652308e-01	-1.048452375e-01	2.591533562e-13
1.000000000e-01	6.311042246e-01	-1.051455795e-01	1.875886651e-13
1.010000000e-01	6.284828972e-01	-1.054528818e-01	1.713516936e-13
1.020000000e-01	6.259003007e-01	-1.057669537e-01	1.694908809e-13
1.030000000e-01	6.233555186e-01	-1.060876109e-01	7.460698725e-14
1.050000000e-01	6.183758795e-01	-1.067479773e-01	5.112082166e-13
1.060000000e-01	6.159393339e-01	-1.070873492e-01	4.730448603e-13
1.070000000e-01	6.135372232e-01	-1.074326316e-01	6.039613254e-14
1.080000000e-01	6.111687682e-01	-1.077836698e-01	1.139086659e-13
1.090000000e-01	6.088332144e-01	-1.081403141e-01	1.816493158e-13
1.100000000e-01	6.065298303e-01	-1.085024200e-01	4.832213033e-14
1.110000000e-01	6.042579068e-01	-1.088698474e-01	1.351082579e-13
1.120000000e-01	6.020167564e-01	-1.092424607e-01	2.112595432e-13
1.130000000e-01	5.998057124e-01	-1.096201287e-01	1.218456492e-13
1.140000000e-01	5.976241279e-01	-1.100027242e-01	5.687116766e-14
1.150000000e-01	5.954713749e-01	-1.103901242e-01	3.668080097e-13
1.160000000e-01	5.933468442e-01	-1.107822092e-01	3.054714042e-13
1.170000000e-01	5.912499442e-01	-1.111788634e-01	9.414691249e-14
1.180000000e-01	5.891801003e-01	-1.115799747e-01	2.055130479e-13
1.190000000e-01	5.871367545e-01	-1.119854340e-01	2.288744624e-13
1.200000000e-01	5.851193644e-01	-1.123951358e-01	9.099386826e-14
1.210000000e-01	5.831274032e-01	-1.128089773e-01	8.728132539e-14
1.220000000e-01	5.811603586e-01	-1.132268591e-01	6.196914463e-14
1.230000000e-01	5.792177327e-01	-1.136486842e-01	5.982526161e-14
1.240000000e-01	5.772990411e-01	-1.140743588e-01	8.082423619e-14
1.250000000e-01	5.754038128e-01	-1.145037914e-01	3.720110686e-13
1.260000000e-01	5.735315894e-01	-1.149368933e-01	2.929642751e-14
1.270000000e-01	5.716819250e-01	-1.153735781e-01	7.052494599e-14
1.280000000e-01	5.698543856e-01	-1.158137618e-01	1.271057486e-13
1.290000000e-01	5.680485485e-01	-1.162573628e-01	3.300057964e-13
1.300000000e-01	5.662640024e-01	-1.167043015e-01	3.389817619e-13
1.310000000e-01	5.645003464e-01	-1.171545007e-01	1.115610080e-13
1.320000000e-01	5.627571904e-01	-1.176078849e-01	5.502120146e-13
1.330000000e-01	5.610341540e-01	-1.180643808e-01	1.943650171e-13
1.340000000e-01	5.593308667e-01	-1.185239170e-01	6.135506694e-14
1.350000000e-01	5.576469673e-01	-1.189864240e-01	1.137423353e-13
1.360000000e-01	5.559821037e-01	-1.194518339e-01	4.146946797e-14
1.370000000e-01	5.543359328e-01	-1.199200806e-01	1.755113372e-13
1.380000000e-01	5.527081197e-01	-1.203910997e-01	3.226716872e-13
1.390000000e-01	5.510983380e-01	-1.208648285e-01	2.785653775e-13
1.400000000e-01	5.495062692e-01	-1.213412057e-01	2.016008499e-13
1.410000000e-01	5.479316026e-01	-1.218201714e-01	5.600125172e-13
1.420000000e-01	5.463740349e-01	-1.223016676e-01	1.047033906e-13
1.430000000e-01	5.448332702e-01	-1.227856372e-01	1.165681307e-13
1.440000000e-01	5.433090196e-01	-1.232720247e-01	2.533722567e-13
1.450000000e-01	5.418010011e-01	-1.237607761e-01	5.767691425e-14
1.460000000e-01	5.403089392e-01	-1.242518383e-01	1.649646467e-13
1.470000000e-01	5.388325649e-01	-1.247451598e-01	2.854633628e-14
1.480000000e-01	5.373716155e-01	-1.252406900e-01	5.192099911e-13
1.490000000e-01	5.359258343e-01	-1.257383797e-01	5.484658160e-13
1.500000000e-01	5.344949705e-01	-1.262381807e-01	1.082011307e-13
1.510000000e-01	5.330787791e-01	-1.267400460e-01	8.526512829e-14
1.520000000e-01	5.316770204e-01	-1.272439296e-01	1.065814104e-13
1.530000000e-01	5.302894603e-01	-1.277497865e-01	9.106319693e-14
1.540000000e-01	5.289158698e-01	-1.282575728e-01	9.156425995e-14
1.550000000e-01	5.275560252e-01	-1.287672454e-01	2.071589296e-13
1.560000000e-01	5.262097076e-01	-1.292787624e-01	2.172699368e-13
1.570000000e-01	5.248767027e-01	-1.297920827e-01	2.147427343e-13
1.580000000e-01	5.235568012e-01	-1.303071660e-01	2.252841407e-13
1.590000000e-01	5.222497982e-01	-1.308239729e-01	3.567603872e-13
1.600000000e-01	5.209554932e-01	-1.313424650e-01	7.566409629e-13
1.610000000e-01	5.196736899e-01	-1.318626046e-01	3.641531521e-14
1.620000000e-01	5.184041963e-01	-1.323843548e-01	3.880150532e-13
1.630000000e-01	5.171468245e-01	-1.329076795e-01	3.019806627e-14
1.640000000e-01	5.159013905e-01	-1.334325432e-01	1.619337067e-13
1.650000000e-01	5.146677140e-01	-1.339589115e-01	1.056297716e-13
1.660000000e-01	5.134456187e-01	-1.344867503e-01	9.237055565e-14
1.670000000e-01	5.122349318e-01	-1.350160265e-01	2.485884307e-13
1.680000000e-01	5.110354840e-01	-1.355467076e-01	7.652779469e-14
1.690000000e-01	5.098471095e-01	-1.360787616e-01	9.137884154e-14
1.700000000e-01	5.086696459e-01	-1.366121573e-01	3.072840622e-13
1.710000000e-01	5.075029342e-01	-1.371468641e-01	1.217322969e-13
1.720000000e-01	5.063468183e-01	-1.376828520e-01	1.332267630e-13
1.730000000e-01	5.052011454e-01	-1.382200917e-01	3.261586589e-13
1.740000000e-01	5.040657658e-01	-1.387585542e-01	2.843558383e-14
1.750000000e-01	5.029405326e-01	-1.392982113e-01	1.234568003e-13
1.760000000e-01	5.018253018e-01	-1.398390353e-01	4.986756023e-13
1.770000000e-01	5.007199323e-01	-1.403809990e-01	2.787522182e-14
1.780000000e-01	4.996242857e-01	-1.409240758e-01	5.723756930e-14
1.790000000e-01	4.985382263e-01	-1.414682395e-01	8.989488925e-14
1.800000000e-01	4.974616209e-01	-1.420134645e-01	1.720867176e-13
1.810000000e-01	4.963943390e-01	-1.425597256e-01	1.421779192e-13
1.820000000e-01	4.953362525e-01	-1.431069982e-01	4.864544772e-13
1.830000000e-01	4.942872357e-01	-1.436552580e-01	4.453530657e-14
1.840000000e-01	4.932471653e-01	-1.442044812e-01	5.629117590e-13
1.850000000e-01	4.922159202e-01	-1.447546445e-01	2.086486883e-13
1.860000000e-01	4.911933818e-01	-1.453057251e-01	9.170200243e-14
1.870000000e-01	4.901794335e-01	-1.458577004e-01	2.291431471e-13
1.880000000e-01	4.891739608e-01	-1.464105484e-01	1.375759416e-13
1.890000000e-01	4.881768515e-01	-1.469642474e-01	1.019859355e-13
1.900000000e-01	4.871879953e-01	-1.475187761e-01	6.214445786e-13
1.910000000e-01	4.862072839e-01	-1.480741137e-01	1.598381885e-13
1.920000000e-01	4.852346111e-01	-1.486302397e-01	1.111643202e-13
1.930000000e-01	4.842698723e-01	-1.491871338e-01	1.032208923e-13
1.940000000e-01	4.833129652e-01	-1.497447764e-01	1.285007256e-13
1.950000000e-01	4.823637890e-01	-1.503031479e-01	1.330993965e-13
1.960000000e-01	4.814222446e-01	-1.508622293e-01	1.704585396e-13
1.970000000e-01	4.804882351e-01	-1.514220018e-01	2.969346637e-13
1.980000000e-01	4.795616648e-01	-1.519824470e-01	2.749410778e-14
1.990000000e-01	4.786424399e-01	-1.525435468e-01	1.043534051e-13
2.000000000e-01	4.777304683e-01	-1.531052833e-01	1.298685726e-13
2.010000000e-01	4.768256594e-01	-1.536676391e-01	1.563194019e-13
2.020000000e-01	4.759279240e-01	-1.542305970e-01	1.445849715e-14
2.030000000e-01	4.750371747e-01	-1.547941401e-01	1.654975766e-13
2.040000000e-01	4.741533255e-01	-1.553582518e-01	1.818191473e-13
2.050000000e-01	4.732762917e-01	-1.559229158e-01	2.614327945e-13
2.060000000e-01	4.724059902e-01	-1.564881159e-01	9.283164193e-14
2.070000000e-01	4.715423393e-01	-1.570538365e-01	6.668216499e-13
2.080000000e-01	4.706852585e-01	-1.576200620e-01	1.655881172e-13
2.090000000e-01	4.698346688e-01	-1.581867772e-01	7.773591029e-14
2.100000000e-01	4.689904924e-01	-1.587539670e-01	4.874006031e-13
2.110000000e-01	4.681526529e-01	-1.593216167e-01	2.033928581e-13
2.120000000e-01	4.673210751e-01	-1.598897118e-01	5.783398861e-14
2.130000000e-01	4.664956850e-01	-1.604582380e-01	3.799006044e-13
2.140000000e-01	4.656764097e-01	-1.610271813e-01	2.199712423e-13
2.150000000e-01	4.648631778e-01	-1.615965279e-01	1.407874864e-13
2.160000000e-01	4.640559186e-01	-1.621662641e-01	1.054812373e-13
2.170000000e-01	4.632545630e-01	-1.627363767e-01	1.300051726e-13
2.180000000e-01	4.624590426e-01	-1.633068525e-01	9.995460652e-14
2.190000000e-01	4.616692904e-01	-1.638776786e-01	1.229485660e-13
2.200000000e-01	4.608852402e-01	-1.644488421e-01	8.025246193e-14
2.210000000e-01	4.601068271e-01	-1.650203307e-01	1.955087300e-13
2.220000000e-01	4.593339870e-01	-1.655921319e-01	1.518966878e-13
2.230000000e-01	4.585666569e-01	-1.661642337e-01	1.319901566e-13
2.240000000e-01	4.578047747e-01	-1.667366242e-01	1.236961847e-13
2.250000000e-01	4.570482794e-01	-1.673092915e-01	1.994909827e-13
2.260000000e-01	4.562971109e-01	-1.678822241e-01	7.983731029e-14
2.270000000e-01	4.555512099e-01	-1.684554107e-01	1.696542844e-13
2.280000000e-01	4.548105182e-01	-1.690288400e-01	1.307290322e-13
2.290000000e-01	4.540749782e-01	-1.696025011e-01	1.683988392e-13
2.300000000e-01	4.533445335e-01	-1.701763830e-01	5.252522271e-13
2.310000000e-01	4.526191283e-01	-1.707504751e-01	1.953513050e-13
2.320000000e-01	4.518987079e-01	-1.713247669e-01	1.069508444e-13
2.330000000e-01	4.511832180e-01	-1.718992480e-01	1.855256754e-13
2.340000000e-01	4.504726056e-01	-1.724739083e-01	1.116175626e-13
2.350000000e-01	4.497668182e-01	-1.730487376e-01	1.676282358e-13
2.360000000e-01	4.490658040e-01	-1.736237261e-01	7.470678771e-13
2.370000000e-01	4.483695122e-01	-1.741988642e-01	1.623551524e-13
2.380000000e-01	4.476778926e-01	-1.747741421e-01	9.283164193e-14
2.390000000e-01	4.469908958e-01	-1.753495504e-01	1.440520257e-13
2.400000000e-01	4.463084730e-01	-1.759250799e-01	7.365055872e-14
2.410000000e-01	4.456305763e-01	-1.765007215e-01	1.565715220e-13
2.420000000e-01	4.449571583e-01	-1.770764660e-01	5.205369656e-13
2.430000000e-01	4.442881724e-01	-1.776523046e-01	1.172942087e-13
2.440000000e-01	4.436235726e-01	-1.782282286e-01	4.325711580e-14
2.450000000e-01	4.429633136e-01	-1.788042294e-01	2.891699430e-14
2.460000000e-01	4.423073508e-01	-1.793802984e-01	3.503255934e-13
2.470000000e-01	4.416556400e-01	-1.799564274e-01	7.528065318e-14
2.480000000e-01	4.410081379e-01	-1.805326080e-01	2.027304939e-13
2.490000000e-01	4.403648016e-01	-1.811088322e-01	1.138844245e-13
2.500000000e-01	4.397255889e-01	-1.816850920e-01	3.015365735e-13
2.510000000e-01	4.390904583e-01	-1.822613795e-01	8.907061313e-14
2.520000000e-01	4.384593685e-01	-1.828376869e-01	1.756551069e-13
2.530000000e-01	4.378322793e-01	-1.834140067e-01	8.651537137e-14
2.540000000e-01	4.372091506e-01	-1.839903313e-01	1.595862860e-13
2.550000000e-01	4.365899430e-01	-1.845666533e-01	1.332267630e-13
2.560000000e-01	4.359746177e-01	-1.851429653e-01	7.356482193e-14
2.570000000e-01	4.353631365e-01	-1.857192602e-01	1.102424071e-13
2.580000000e-01	4.347554614e-01	-1.862955309e-01	1.917827930e-14
2.590000000e-01	4.341515552e-01	-1.868717704e-01	1.141058686e-13
2.600000000e-01	4.335513812e-01	-1.874479717e-01	4.875897294e-13
2.610000000e-01	4.329549030e-01	-1.880241282e-01	1.499838577e-13
2.620000000e-01	4.323620849e-01	-1.886002331e-01	2.520189637e-13
2.630000000e-01	4.317728914e-01	-1.891762799e-01	1.070402401e-13
2.640000000e-01	4.311872877e-01	-1.897522620e-01	1.848953039e-13
2.650000000e-01	4.306052395e-01	-1.903281730e-01	1.540240696e-13
2.660000000e-01	4.300267128e-01	-1.909040067e-01	1.827576831e-13
2.670000000e-01	4.294516741e-01	-1.914797568e-01	1.069508444e-13
2.680000000e-01	4.288800902e-01	-1.920554171e-01	1.080816798e-13
2.690000000e-01	4.283119287e-01	-1.926309818e-01	1.128600545e-13
2.700000000e-01	4.277471572e-01	-1.932064447e-01	2.060593075e-13
2.710000000e-01	4.271857439e-01	-1.937818000e-01	1.374533226e-13
2.720000000e-01	4.266276575e-01	-1.943570420e-01	9.180094431e-13
2.730000000e-01	4.260728670e-01	-1.949321649e-01	1.219348400e-13
2.740000000e-01	4.255213418e-01	-1.955071632e-01	9.153948738e-14
2.750000000e-01	4.249730517e-01	-1.960820313e-01	1.659101181e-13
2.760000000e-01	4.244279668e-01	-1.966567637e-01	1.446204314e-13
2.770000000e-01	4.238860578e-01	-1.972313551e-01	1.035730386e-13
2.780000000e-01	4.233472955e-01	-1.978058001e-01	4.935587579e-14
2.790000000e-01	4.228116513e-01	-1.983800936e-01	1.058072249e-13
2.800000000e-01	4.222790968e-01	-1.989542304e-01	1.513927408e-13
2.810000000e-01	4.217496040e-01	-1.995282053e-01	3.080663845e-14
2.820000000e-01	4.212231452e-01	-2.001020135e-01	9.800597115e-14
2.830000000e-01	4.206996933e-01	-2.006756499e-01	1.174546700e-13
2.840000000e-01	4.201792211e-01	-2.012491097e-01	1.035642317e-13
2.850000000e-01	4.196617021e-01	-2.018223881e-01	7.202601286e-14
2.860000000e-01	4.191471100e-01	-2.023954804e-01	2.352553944e-13
2.870000000e-01	4.186354188e-01	-2.029683819e-01	1.039379862e-13
2.880000000e-01	4.181266027e-01	-2.035410881e-01	2.274586610e-13
2.890000000e-01	4.176206366e-01	-2.041135943e-01	1.636541044e-13
2.900000000e-01	4.171174952e-01	-2.046858962e-01	1.733064898e-13
2.910000000e-01	4.166171538e-01	-2.052579893e-01	7.908778741e-14
2.920000000e-01	4.161195881e-01	-2.058298693e-01	9.730140522e-14
2.930000000e-01	4.156247738e-01	-2.064015319e-01	1.136877051e-13
2.940000000e-01	4.151326871e-01	-2.069729729e-01	7.904787935e-14
2.950000000e-01	4.146433043e-01	-2.075441881e-01	1.176568246e-13
2.960000000e-01	4.141566022e-01	-2.081151735e-01	2.153296947e-13
2.970000000e-01	4.136725578e-01	-2.086859250e-01	1.209562382e-13
2.980000000e-01	4.131911482e-01	-2.092564387e-01	1.411143690e-13
2.990000000e-01	4.127123511e-01	-2.098267105e-01	1.447541801e-13
3.000000000e-01	4.122361440e-01	-2.103967366e-01	7.834116314e-14
3.010000000e-01	4.117625052e-01	-2.109665133e-01	9.262028513e-14
3.020000000e-01	4.112914129e-01	-2.115360367e-01	8.122857819e-14
3.030000000e-01	4.108228455e-01	-2.121053032e-01	4.943652965e-13
3.040000000e-01	4.103567820e-01	-2.126743091e-01	4.042460922e-13
3.050000000e-01	4.098932012e-01	-2.132430507e-01	5.493080158e-14
3.060000000e-01	4.094320826e-01	-2.138115246e-01	1.311125918e-13
3.070000000e-01	4.089734055e-01	-2.143797272e-01	4.124364823e-13
3.080000000e-01	4.085171498e-01	-2.149476551e-01	9.436556106e-14
3.090000000e-01	4.080632954e-01	-2.155153048e-01	5.789442100e-13
3.100000000e-01	4.076118225e-01	-2.160826731e-01	1.424912323e-13
3.110000000e-01	4.071627115e-01	-2.166497566e-01	2.882631602e-13
3.120000000e-01	4.067159431e-01	-2.172165521e-01	2.269527238e-13
3.130000000e-01	4.062714981e-01	-2.177830563e-01	9.804645988e-14
3.140000000e-01	4.058293576e-01	-2.183492660e-01	1.615703719e-13
3.150000000e-01	4.053895029e-01	-2.189151782e-01	3.213507127e-13
3.160000000e-01	4.049519155e-01	-2.194807898e-01	2.905498412e-13
