# kz [eV]     Omega/c [1/micrones]    Im(epsi1)     Eq(det).Opt det con kz, R=0.25 \mum, Re(epsi1)=16.00, $\mu_c$ = 0.300 eV, solve_det_conkz_vs_kz.py
0.000000000e+00	1.019616256e-01	-1.107432122e-01	4.758086246e-13
5.000000000e-04	1.019616260e-01	-1.107432366e-01	1.418751086e-12
1.500000000e-03	1.019616293e-01	-1.107434321e-01	1.731746314e-12
2.000000000e-03	1.019616321e-01	-1.107436031e-01	3.561736905e-13
3.000000000e-03	1.019616403e-01	-1.107440918e-01	2.428609671e-13
3.500000000e-03	1.019616456e-01	-1.107444095e-01	8.882449061e-13
4.000000000e-03	1.019616517e-01	-1.107447760e-01	3.074312085e-13
4.500000000e-03	1.019616587e-01	-1.107451914e-01	2.045027773e-12
5.000000000e-03	1.019616664e-01	-1.107456557e-01	1.083050854e-12
5.500000000e-03	1.019616750e-01	-1.107461688e-01	8.401498317e-13
6.000000000e-03	1.019616844e-01	-1.107467308e-01	1.097518401e-12
6.500000000e-03	1.019616946e-01	-1.107473417e-01	5.876341691e-13
7.000000000e-03	1.019617057e-01	-1.107480015e-01	1.517949584e-12
7.500000000e-03	1.019617175e-01	-1.107487102e-01	9.000702195e-13
8.000000000e-03	1.019617302e-01	-1.107494677e-01	1.185308438e-12
8.500000000e-03	1.019617436e-01	-1.107502741e-01	1.102182955e-12
9.500000000e-03	1.019617730e-01	-1.107520336e-01	1.056288063e-13
1.000000000e-02	1.019617889e-01	-1.107529867e-01	2.751019399e-13
1.050000000e-02	1.019618057e-01	-1.107539886e-01	3.483074785e-13
1.100000000e-02	1.019618232e-01	-1.107550395e-01	9.419685855e-13
1.150000000e-02	1.019618416e-01	-1.107561393e-01	5.078754161e-13
1.200000000e-02	1.019618607e-01	-1.107572879e-01	7.726056614e-13
1.250000000e-02	1.019618807e-01	-1.107584855e-01	1.019620956e-13
1.300000000e-02	1.019619015e-01	-1.107597319e-01	1.106110420e-12
1.400000000e-02	1.019619455e-01	-1.107623715e-01	1.233276296e-12
1.450000000e-02	1.019619688e-01	-1.107637647e-01	7.385891925e-13
1.500000000e-02	1.019619928e-01	-1.107652068e-01	9.036931730e-13
1.550000000e-02	1.019620176e-01	-1.107666978e-01	1.523316423e-12
1.600000000e-02	1.019620433e-01	-1.107682377e-01	1.932117825e-12
1.700000000e-02	1.019620970e-01	-1.107714643e-01	1.283377772e-12
1.750000000e-02	1.019621250e-01	-1.107731510e-01	3.513797983e-13
1.800000000e-02	1.019621539e-01	-1.107748867e-01	1.012357031e-12
1.850000000e-02	1.019621836e-01	-1.107766712e-01	9.604591147e-13
1.950000000e-02	1.019622453e-01	-1.107803872e-01	2.969640209e-13
2.000000000e-02	1.019622774e-01	-1.107823186e-01	4.873578215e-13
2.050000000e-02	1.019623103e-01	-1.107842990e-01	1.110824183e-12
2.200000000e-02	1.019624137e-01	-1.107905339e-01	4.588216892e-13
2.250000000e-02	1.019624498e-01	-1.107927102e-01	1.776610188e-12
2.350000000e-02	1.019625243e-01	-1.107972096e-01	1.718536170e-12
2.400000000e-02	1.019625628e-01	-1.107995328e-01	2.036383737e-12
2.450000000e-02	1.019626020e-01	-1.108019050e-01	2.493953793e-12
2.500000000e-02	1.019626421e-01	-1.108043261e-01	6.563585059e-13
2.550000000e-02	1.019626829e-01	-1.108067963e-01	3.387536441e-13
2.650000000e-02	1.019627669e-01	-1.108118838e-01	4.086314768e-13
2.700000000e-02	1.019628101e-01	-1.108145010e-01	1.157664850e-12
2.750000000e-02	1.019628541e-01	-1.108171673e-01	8.580790400e-13
2.800000000e-02	1.019628988e-01	-1.108198826e-01	2.701174491e-12
2.850000000e-02	1.019629444e-01	-1.108226470e-01	7.405157504e-13
2.950000000e-02	1.019630378e-01	-1.108283229e-01	2.348230027e-12
3.000000000e-02	1.019630857e-01	-1.108312344e-01	1.265637192e-12
3.050000000e-02	1.019631343e-01	-1.108341951e-01	2.193707794e-13
3.150000000e-02	1.019632339e-01	-1.108402635e-01	1.500742053e-12
3.250000000e-02	1.019633367e-01	-1.108465284e-01	1.812821904e-12
3.350000000e-02	1.019634424e-01	-1.108529897e-01	1.864815418e-12
3.400000000e-02	1.019634965e-01	-1.108562941e-01	2.901438525e-13
3.500000000e-02	1.019636069e-01	-1.108630502e-01	3.795733988e-12
3.550000000e-02	1.019636632e-01	-1.108665020e-01	1.368216056e-12
3.600000000e-02	1.019637202e-01	-1.108700030e-01	1.537609951e-12
3.650000000e-02	1.019637781e-01	-1.108735531e-01	3.628020046e-12
3.700000000e-02	1.019638367e-01	-1.108771524e-01	1.636874936e-12
3.750000000e-02	1.019638960e-01	-1.108808010e-01	8.956978410e-13
3.850000000e-02	1.019640169e-01	-1.108882456e-01	1.859262959e-13
3.950000000e-02	1.019641408e-01	-1.108958872e-01	3.604434671e-12
4.000000000e-02	1.019642038e-01	-1.108997819e-01	1.649462512e-12
4.100000000e-02	1.019643321e-01	-1.109077191e-01	6.987596123e-13
4.150000000e-02	1.019643974e-01	-1.109117615e-01	9.976904868e-13
4.250000000e-02	1.019645300e-01	-1.109199944e-01	4.519262185e-13
4.350000000e-02	1.019646656e-01	-1.109284246e-01	9.460066789e-13
4.400000000e-02	1.019647344e-01	-1.109327138e-01	1.251698008e-12
4.450000000e-02	1.019648040e-01	-1.109370523e-01	6.785135444e-13
4.500000000e-02	1.019648743e-01	-1.109414401e-01	4.249929434e-13
4.550000000e-02	1.019649453e-01	-1.109458774e-01	3.442908250e-13
4.600000000e-02	1.019650169e-01	-1.109503641e-01	2.107405066e-12
4.650000000e-02	1.019650893e-01	-1.109549002e-01	2.340229776e-12
4.750000000e-02	1.019652362e-01	-1.109641207e-01	1.702788075e-12
4.850000000e-02	1.019653858e-01	-1.109735392e-01	1.908047918e-12
4.950000000e-02	1.019655381e-01	-1.109831556e-01	3.571953823e-12
5.000000000e-02	1.019656152e-01	-1.109880382e-01	3.430864972e-12
5.100000000e-02	1.019657716e-01	-1.109979520e-01	6.101772658e-13
5.300000000e-02	1.019660921e-01	-1.110183750e-01	1.089826293e-13
5.350000000e-02	1.019661738e-01	-1.110236049e-01	1.089500656e-13
5.400000000e-02	1.019662562e-01	-1.110288845e-01	3.151867569e-12
5.500000000e-02	1.019664228e-01	-1.110395930e-01	9.991570100e-13
5.600000000e-02	1.019665919e-01	-1.110505005e-01	1.814183167e-12
5.650000000e-02	1.019666774e-01	-1.110560291e-01	2.879519432e-13
5.700000000e-02	1.019667634e-01	-1.110616074e-01	8.116576590e-13
5.750000000e-02	1.019668501e-01	-1.110672357e-01	9.222874016e-13
5.800000000e-02	1.019669373e-01	-1.110729138e-01	7.364862992e-13
6.000000000e-02	1.019672919e-01	-1.110961262e-01	2.890050682e-12
6.100000000e-02	1.019674726e-01	-1.111080326e-01	4.789503022e-12
6.150000000e-02	1.019675637e-01	-1.111140610e-01	3.479055966e-12
6.200000000e-02	1.019676553e-01	-1.111201396e-01	1.780620313e-12
6.350000000e-02	1.019679332e-01	-1.111386766e-01	2.492836728e-12
6.400000000e-02	1.019680269e-01	-1.111449562e-01	4.245360317e-12
6.450000000e-02	1.019681210e-01	-1.111512862e-01	1.438759229e-12
6.550000000e-02	1.019683105e-01	-1.111640974e-01	4.101080783e-12
6.700000000e-02	1.019685981e-01	-1.111836930e-01	6.481647830e-13
6.950000000e-02	1.019690852e-01	-1.112173661e-01	2.910363839e-12
7.100000000e-02	1.019693815e-01	-1.112381807e-01	6.757121786e-12
7.150000000e-02	1.019694808e-01	-1.112452211e-01	2.237520874e-12
7.200000000e-02	1.019695804e-01	-1.112523127e-01	1.807079665e-12
7.250000000e-02	1.019696802e-01	-1.112594556e-01	6.028838324e-13
7.300000000e-02	1.019697802e-01	-1.112666499e-01	6.881974049e-12
7.400000000e-02	1.019699807e-01	-1.112811929e-01	1.947300234e-12
7.450000000e-02	1.019700812e-01	-1.112885419e-01	4.527337606e-12
7.600000000e-02	1.019703832e-01	-1.113108995e-01	3.298115089e-12
7.750000000e-02	1.019706854e-01	-1.113337258e-01	2.441045329e-12
7.800000000e-02	1.019707861e-01	-1.113414392e-01	2.781104982e-13
7.850000000e-02	1.019708865e-01	-1.113492053e-01	1.106059642e-11
7.950000000e-02	1.019710870e-01	-1.113648957e-01	9.463375070e-13
8.050000000e-02	1.019712864e-01	-1.113807985e-01	1.008606072e-11
8.100000000e-02	1.019713857e-01	-1.113888299e-01	5.398142162e-12
8.250000000e-02	1.019716806e-01	-1.114132469e-01	5.248268851e-12
8.300000000e-02	1.019717777e-01	-1.114214943e-01	1.095430788e-11
8.350000000e-02	1.019718742e-01	-1.114297962e-01	1.293025690e-11
8.450000000e-02	1.019720648e-01	-1.114465652e-01	7.137216721e-12
8.500000000e-02	1.019721588e-01	-1.114550328e-01	8.243455829e-12
8.550000000e-02	1.019722516e-01	-1.114635564e-01	4.316887723e-12
8.650000000e-02	1.019724337e-01	-1.114807729e-01	2.245341713e-11
8.750000000e-02	1.019726101e-01	-1.114982184e-01	8.802469737e-12
8.800000000e-02	1.019726958e-01	-1.115070284e-01	1.587687107e-11
8.850000000e-02	1.019727795e-01	-1.115158973e-01	2.179316952e-11
8.950000000e-02	1.019729404e-01	-1.115338150e-01	3.317121485e-12
9.050000000e-02	1.019730908e-01	-1.115519781e-01	3.145521672e-13
9.150000000e-02	1.019732284e-01	-1.115703952e-01	1.957526620e-11
9.200000000e-02	1.019732914e-01	-1.115797022e-01	3.421147288e-11
9.300000000e-02	1.019734035e-01	-1.115985216e-01	9.996951781e-12
9.400000000e-02	1.019734927e-01	-1.116176294e-01	2.789187037e-11
9.450000000e-02	1.019735268e-01	-1.116272983e-01	7.655084364e-11
9.550000000e-02	1.019735681e-01	-1.116468856e-01	3.785696119e-11
9.750000000e-02	1.019734924e-01	-1.116872347e-01	6.407868784e-11
1.005000000e-01	1.019722870e-01	-1.117530750e-01	9.749493427e-10
1.010000000e-01	1.019716340e-01	-1.117657774e-01	1.927440148e-08
1.015000000e-01	1.019703755e-01	-1.117805986e-01	2.235453481e-07
1.020000000e-01	3.670583237e+00	-1.621234865e+00	2.124181858e-15
1.025000000e-01	3.670584293e+00	-1.621220747e+00	2.747385902e-15
1.030000000e-01	3.670585353e+00	-1.621206561e+00	2.906537138e-15
1.035000000e-01	3.670586419e+00	-1.621192305e+00	2.674427258e-15
1.040000000e-01	3.670587490e+00	-1.621177980e+00	4.107773612e-15
1.045000000e-01	3.670588567e+00	-1.621163585e+00	2.742666245e-15
1.050000000e-01	3.670589648e+00	-1.621149122e+00	3.354899041e-15
1.055000000e-01	3.670590735e+00	-1.621134590e+00	2.152657907e-15
1.060000000e-01	3.670591827e+00	-1.621119989e+00	2.940732434e-15
1.065000000e-01	3.670592924e+00	-1.621105318e+00	2.460181615e-15
1.070000000e-01	3.670594026e+00	-1.621090579e+00	2.392560261e-15
1.075000000e-01	3.670595133e+00	-1.621075770e+00	3.150451583e-15
1.080000000e-01	3.670596245e+00	-1.621060893e+00	2.088519625e-15
1.085000000e-01	3.670597363e+00	-1.621045946e+00	1.231865651e-15
1.090000000e-01	3.670598486e+00	-1.621030930e+00	3.116212945e-15
1.095000000e-01	3.670599614e+00	-1.621015845e+00	2.941638304e-15
1.100000000e-01	3.670600747e+00	-1.621000691e+00	3.536593339e-15
1.105000000e-01	3.670601885e+00	-1.620985468e+00	4.274073128e-15
1.110000000e-01	3.670603029e+00	-1.620970176e+00	3.169174145e-15
1.115000000e-01	3.670604178e+00	-1.620954815e+00	5.227291819e-15
1.120000000e-01	3.670605331e+00	-1.620939384e+00	5.897820461e-15
1.125000000e-01	3.670606490e+00	-1.620923885e+00	1.779074449e-15
1.130000000e-01	3.670607655e+00	-1.620908316e+00	1.791249906e-15
1.135000000e-01	3.670608824e+00	-1.620892679e+00	4.448749989e-15
1.140000000e-01	3.670609998e+00	-1.620876972e+00	2.449516343e-15
1.145000000e-01	3.670611178e+00	-1.620861196e+00	3.382234345e-15
1.150000000e-01	3.670612363e+00	-1.620845351e+00	2.986379318e-15
1.155000000e-01	3.670613553e+00	-1.620829437e+00	3.866563568e-15
1.160000000e-01	3.670614748e+00	-1.620813454e+00	5.658656411e-15
1.165000000e-01	3.670615949e+00	-1.620797402e+00	3.898158185e-15
1.170000000e-01	3.670617154e+00	-1.620781281e+00	4.490320032e-15
1.175000000e-01	3.670618365e+00	-1.620765090e+00	2.835885490e-15
1.180000000e-01	3.670619581e+00	-1.620748831e+00	4.402035853e-15
1.185000000e-01	3.670620802e+00	-1.620732502e+00	4.160597069e-15
1.190000000e-01	3.670622028e+00	-1.620716105e+00	2.556885253e-15
1.195000000e-01	3.670623260e+00	-1.620699638e+00	4.361506047e-15
1.200000000e-01	3.670624496e+00	-1.620683102e+00	2.928791357e-15
1.205000000e-01	3.670625738e+00	-1.620666497e+00	3.028037568e-15
1.210000000e-01	3.670626985e+00	-1.620649823e+00	3.196587399e-15
1.215000000e-01	3.670628237e+00	-1.620633080e+00	3.005751740e-15
1.220000000e-01	3.670629495e+00	-1.620616268e+00	3.815957514e-15
1.225000000e-01	3.670630757e+00	-1.620599387e+00	1.584192264e-15
1.230000000e-01	3.670632025e+00	-1.620582436e+00	4.769399017e-15
1.235000000e-01	3.670633298e+00	-1.620565417e+00	4.134153892e-15
1.240000000e-01	3.670634576e+00	-1.620548328e+00	6.446915168e-15
1.245000000e-01	3.670635859e+00	-1.620531170e+00	1.462879649e-15
1.250000000e-01	3.670637147e+00	-1.620513943e+00	2.764349635e-15
1.255000000e-01	3.670638441e+00	-1.620496647e+00	3.162613845e-15
1.260000000e-01	3.670639740e+00	-1.620479282e+00	2.589051848e-15
1.265000000e-01	3.670641043e+00	-1.620461848e+00	3.756619185e-15
1.270000000e-01	3.670642352e+00	-1.620444345e+00	2.004992206e-15
1.275000000e-01	3.670643667e+00	-1.620426773e+00	2.842863124e-15
1.280000000e-01	3.670644986e+00	-1.620409131e+00	3.029902426e-15
1.285000000e-01	3.670646311e+00	-1.620391421e+00	2.911040613e-15
1.290000000e-01	3.670647641e+00	-1.620373641e+00	6.676828259e-15
1.295000000e-01	3.670648976e+00	-1.620355792e+00	1.705809415e-15
1.300000000e-01	3.670650316e+00	-1.620337874e+00	4.980766345e-15
1.305000000e-01	3.670651661e+00	-1.620319887e+00	1.791165679e-15
1.310000000e-01	3.670653011e+00	-1.620301831e+00	6.523430696e-16
1.315000000e-01	3.670654367e+00	-1.620283706e+00	1.501229861e-15
1.320000000e-01	3.670655728e+00	-1.620265511e+00	2.219276814e-15
1.325000000e-01	3.670657094e+00	-1.620247248e+00	1.971553529e-15
1.330000000e-01	3.670658465e+00	-1.620228915e+00	2.706981497e-15
1.335000000e-01	3.670659842e+00	-1.620210513e+00	2.616092844e-15
1.340000000e-01	3.670661223e+00	-1.620192042e+00	4.129128314e-15
1.345000000e-01	3.670662610e+00	-1.620173502e+00	2.633339638e-15
1.350000000e-01	3.670664002e+00	-1.620154893e+00	2.877790497e-15
1.355000000e-01	3.670665399e+00	-1.620136215e+00	3.112632215e-15
1.360000000e-01	3.670666801e+00	-1.620117468e+00	4.306444749e-15
1.365000000e-01	3.670668209e+00	-1.620098651e+00	3.777786797e-15
1.370000000e-01	3.670669621e+00	-1.620079766e+00	3.399821224e-15
1.375000000e-01	3.670671039e+00	-1.620060811e+00	2.432214752e-15
1.380000000e-01	3.670672462e+00	-1.620041787e+00	4.248094070e-15
1.385000000e-01	3.670673890e+00	-1.620022694e+00	2.420199288e-15
1.390000000e-01	3.670675324e+00	-1.620003532e+00	1.952317684e-15
1.395000000e-01	3.670676762e+00	-1.619984301e+00	4.237181436e-15
1.400000000e-01	3.670678206e+00	-1.619965000e+00	1.273021681e-15
1.405000000e-01	3.670679655e+00	-1.619945631e+00	3.660570100e-15
1.410000000e-01	3.670681109e+00	-1.619926192e+00	4.171265001e-15
1.415000000e-01	3.670682568e+00	-1.619906685e+00	2.892052190e-15
1.420000000e-01	3.670684033e+00	-1.619887108e+00	2.930407663e-15
1.425000000e-01	3.670685502e+00	-1.619867462e+00	2.576954459e-15
1.430000000e-01	3.670686977e+00	-1.619847747e+00	3.977198537e-15
1.435000000e-01	3.670688457e+00	-1.619827962e+00	4.728689669e-15
1.440000000e-01	3.670689942e+00	-1.619808109e+00	1.766350004e-15
1.445000000e-01	3.670691432e+00	-1.619788186e+00	7.382621698e-15
1.450000000e-01	3.670692928e+00	-1.619768195e+00	4.941843183e-15
1.455000000e-01	3.670694429e+00	-1.619748134e+00	4.033606281e-15
1.460000000e-01	3.670695935e+00	-1.619728004e+00	3.518479077e-15
1.465000000e-01	3.670697446e+00	-1.619707805e+00	2.479063933e-15
1.470000000e-01	3.670698962e+00	-1.619687537e+00	4.166683633e-15
1.475000000e-01	3.670700483e+00	-1.619667199e+00	2.738932242e-15
1.480000000e-01	3.670702010e+00	-1.619646793e+00	1.864808482e-15
1.485000000e-01	3.670703542e+00	-1.619626317e+00	2.799711033e-15
1.490000000e-01	3.670705079e+00	-1.619605772e+00	2.847624524e-15
1.495000000e-01	3.670706621e+00	-1.619585158e+00	2.530713419e-15
1.500000000e-01	3.670708168e+00	-1.619564475e+00	1.883414013e-15
1.505000000e-01	3.670709721e+00	-1.619543723e+00	1.825036398e-15
1.510000000e-01	3.670711279e+00	-1.619522902e+00	3.260672793e-15
1.515000000e-01	3.670712841e+00	-1.619502011e+00	1.857772715e-15
1.520000000e-01	3.670714410e+00	-1.619481052e+00	8.991985707e-16
1.525000000e-01	3.670715983e+00	-1.619460023e+00	4.381294215e-15
1.530000000e-01	3.670717561e+00	-1.619438925e+00	4.042399050e-16
1.535000000e-01	3.670719145e+00	-1.619417758e+00	3.792407921e-15
1.540000000e-01	3.670720734e+00	-1.619396521e+00	3.188100797e-15
1.545000000e-01	3.670722328e+00	-1.619375216e+00	6.314283350e-15
1.550000000e-01	3.670723927e+00	-1.619353841e+00	2.698171005e-15
1.555000000e-01	3.670725531e+00	-1.619332398e+00	2.626928666e-15
1.560000000e-01	3.670727141e+00	-1.619310885e+00	3.443104553e-15
1.565000000e-01	3.670728756e+00	-1.619289303e+00	5.160702091e-16
1.570000000e-01	3.670730376e+00	-1.619267652e+00	3.205727994e-15
1.575000000e-01	3.670732001e+00	-1.619245931e+00	3.379999677e-15
1.580000000e-01	3.670733631e+00	-1.619224142e+00	1.969765186e-15
1.585000000e-01	3.670735267e+00	-1.619202283e+00	3.312367716e-15
1.590000000e-01	3.670736907e+00	-1.619180355e+00	1.817841878e-15
1.595000000e-01	3.670738553e+00	-1.619158358e+00	2.868498810e-15
1.600000000e-01	3.670740204e+00	-1.619136292e+00	3.013656128e-15
1.605000000e-01	3.670741860e+00	-1.619114157e+00	3.003136462e-15
1.610000000e-01	3.670743522e+00	-1.619091952e+00	3.998314807e-15
1.615000000e-01	3.670745189e+00	-1.619069679e+00	2.771760357e-15
1.620000000e-01	3.670746860e+00	-1.619047336e+00	3.265199302e-15
1.625000000e-01	3.670748537e+00	-1.619024924e+00	2.103898030e-15
1.630000000e-01	3.670750220e+00	-1.619002443e+00	2.988360480e-15
1.635000000e-01	3.670751907e+00	-1.618979892e+00	1.702677662e-15
1.640000000e-01	3.670753599e+00	-1.618957273e+00	2.122563327e-15
1.645000000e-01	3.670755297e+00	-1.618934584e+00	3.382952940e-15
1.650000000e-01	3.670757000e+00	-1.618911826e+00	2.795807972e-15
1.655000000e-01	3.670758708e+00	-1.618888999e+00	5.546600469e-15
1.660000000e-01	3.670760422e+00	-1.618866103e+00	2.205005094e-15
1.665000000e-01	3.670762140e+00	-1.618843138e+00	4.980301223e-15
1.670000000e-01	3.670763864e+00	-1.618820103e+00	1.931154189e-15
1.675000000e-01	3.670765593e+00	-1.618797000e+00	3.389787831e-15
1.680000000e-01	3.670767327e+00	-1.618773827e+00	2.874801907e-15
1.685000000e-01	3.670769066e+00	-1.618750585e+00	1.309293740e-15
1.690000000e-01	3.670770811e+00	-1.618727273e+00	3.328862494e-15
1.695000000e-01	3.670772560e+00	-1.618703893e+00	2.665091771e-15
1.700000000e-01	3.670774315e+00	-1.618680443e+00	2.693329012e-15
1.705000000e-01	3.670776075e+00	-1.618656925e+00	2.854915774e-15
1.710000000e-01	3.670777840e+00	-1.618633337e+00	3.303724881e-15
1.715000000e-01	3.670779611e+00	-1.618609679e+00	2.850663986e-15
1.720000000e-01	3.670781386e+00	-1.618585953e+00	3.411298232e-15
1.725000000e-01	3.670783167e+00	-1.618562158e+00	1.705361136e-15
1.730000000e-01	3.670784953e+00	-1.618538293e+00	3.336768899e-15
1.735000000e-01	3.670786744e+00	-1.618514359e+00	4.334518547e-15
1.740000000e-01	3.670788541e+00	-1.618490356e+00	2.810899023e-15
1.745000000e-01	3.670790342e+00	-1.618466284e+00	4.982336730e-15
1.750000000e-01	3.670792149e+00	-1.618442142e+00	2.066079274e-15
1.755000000e-01	3.670793961e+00	-1.618417931e+00	2.338418014e-15
1.760000000e-01	3.670795778e+00	-1.618393652e+00	2.248818247e-15
1.765000000e-01	3.670797601e+00	-1.618369303e+00	2.396432134e-15
1.770000000e-01	3.670799428e+00	-1.618344884e+00	1.967574881e-15
1.775000000e-01	3.670801261e+00	-1.618320397e+00	1.397830774e-15
1.780000000e-01	3.670803099e+00	-1.618295840e+00	2.564002552e-15
1.785000000e-01	3.670804942e+00	-1.618271214e+00	2.828578145e-15
1.790000000e-01	3.670806790e+00	-1.618246519e+00	2.978373388e-15
1.795000000e-01	3.670808644e+00	-1.618221755e+00	2.204350301e-15
1.800000000e-01	3.670810503e+00	-1.618196922e+00	3.155055709e-15
1.805000000e-01	3.670812367e+00	-1.618172019e+00	4.435116235e-15
1.810000000e-01	3.670814236e+00	-1.618147047e+00	4.380217950e-15
1.815000000e-01	3.670816110e+00	-1.618122006e+00	3.258209183e-15
1.820000000e-01	3.670817989e+00	-1.618096896e+00	2.423407412e-15
1.825000000e-01	3.670819874e+00	-1.618071716e+00	2.052188562e-15
1.830000000e-01	3.670821764e+00	-1.618046468e+00	1.500209150e-15
1.835000000e-01	3.670823659e+00	-1.618021150e+00	1.744597389e-15
1.840000000e-01	3.670825559e+00	-1.617995763e+00	2.625535567e-15
1.845000000e-01	3.670827465e+00	-1.617970307e+00	1.832648719e-15
1.850000000e-01	3.670829376e+00	-1.617944781e+00	1.926018991e-15
1.855000000e-01	3.670831291e+00	-1.617919186e+00	2.587077022e-15
1.860000000e-01	3.670833213e+00	-1.617893522e+00	2.026729344e-15
1.865000000e-01	3.670835139e+00	-1.617867789e+00	2.575901493e-15
1.870000000e-01	3.670837070e+00	-1.617841987e+00	2.494538816e-15
