# kz [eV]     Omega/c [1/micrones]    Im(epsi1)     Eq(det).Opt det con kz, R=0.25 \mum, Re(epsi1)=16.00, $\mu_c$ = 0.300 eV, solve_det_conkz_vs_kz.py
0.000000000e+00	2.037520120e-01	-9.525307080e-02	1.961159072e-10
1.500000000e-03	2.037520125e-01	-9.525307085e-02	1.246262590e-09
2.000000000e-03	2.037520129e-01	-9.525307089e-02	6.575669368e-11
2.500000000e-03	2.037520134e-01	-9.525307094e-02	6.670110573e-10
3.000000000e-03	2.037520140e-01	-9.525307100e-02	5.232786503e-10
3.500000000e-03	2.037520148e-01	-9.525307108e-02	3.794496830e-09
4.000000000e-03	2.037520157e-01	-9.525307116e-02	4.188115806e-09
4.500000000e-03	2.037520167e-01	-9.525307126e-02	4.586617805e-10
5.000000000e-03	2.037520178e-01	-9.525307137e-02	1.359070854e-09
5.500000000e-03	2.037520190e-01	-9.525307149e-02	2.585872097e-09
6.000000000e-03	2.037520203e-01	-9.525307162e-02	3.096890947e-10
7.000000000e-03	2.037520233e-01	-9.525307192e-02	2.112172436e-09
7.500000000e-03	2.037520250e-01	-9.525307209e-02	9.862846606e-10
8.500000000e-03	2.037520287e-01	-9.525307246e-02	3.760627102e-09
9.000000000e-03	2.037520307e-01	-9.525307266e-02	1.164004131e-09
9.500000000e-03	2.037520329e-01	-9.525307287e-02	2.731149060e-09
1.050000000e-02	2.037520375e-01	-9.525307334e-02	4.071883907e-10
1.100000000e-02	2.037520400e-01	-9.525307358e-02	1.244117730e-09
1.150000000e-02	2.037520426e-01	-9.525307384e-02	1.582782367e-09
1.200000000e-02	2.037520453e-01	-9.525307411e-02	1.056828248e-09
1.300000000e-02	2.037520511e-01	-9.525307469e-02	3.588867708e-09
1.400000000e-02	2.037520574e-01	-9.525307531e-02	1.462964367e-09
1.450000000e-02	2.037520607e-01	-9.525307564e-02	4.181103405e-09
1.500000000e-02	2.037520641e-01	-9.525307598e-02	1.219361206e-09
1.650000000e-02	2.037520750e-01	-9.525307707e-02	2.821357976e-09
1.700000000e-02	2.037520789e-01	-9.525307745e-02	2.810285880e-09
1.750000000e-02	2.037520829e-01	-9.525307785e-02	2.185176926e-10
1.800000000e-02	2.037520870e-01	-9.525307826e-02	9.883001573e-10
1.850000000e-02	2.037520912e-01	-9.525307868e-02	1.943838903e-09
1.900000000e-02	2.037520956e-01	-9.525307911e-02	1.766552167e-09
1.950000000e-02	2.037521000e-01	-9.525307956e-02	7.513945702e-10
2.000000000e-02	2.037521046e-01	-9.525308001e-02	6.320368909e-10
2.100000000e-02	2.037521141e-01	-9.525308096e-02	2.116217685e-09
2.150000000e-02	2.037521190e-01	-9.525308145e-02	1.613332947e-09
2.250000000e-02	2.037521292e-01	-9.525308246e-02	3.606382701e-09
2.300000000e-02	2.037521345e-01	-9.525308298e-02	1.173212114e-10
2.350000000e-02	2.037521399e-01	-9.525308352e-02	3.129468758e-10
2.450000000e-02	2.037521510e-01	-9.525308463e-02	2.445056788e-09
2.500000000e-02	2.037521567e-01	-9.525308520e-02	2.830340717e-09
2.550000000e-02	2.037521625e-01	-9.525308578e-02	3.679616051e-10
2.650000000e-02	2.037521746e-01	-9.525308698e-02	2.201276429e-09
2.800000000e-02	2.037521935e-01	-9.525308886e-02	2.589223038e-09
2.850000000e-02	2.037522001e-01	-9.525308951e-02	4.471324009e-09
2.950000000e-02	2.037522135e-01	-9.525309085e-02	4.744522332e-10
3.000000000e-02	2.037522204e-01	-9.525309153e-02	2.471272236e-09
3.050000000e-02	2.037522274e-01	-9.525309223e-02	5.146681891e-09
3.100000000e-02	2.037522345e-01	-9.525309294e-02	2.881719763e-09
3.250000000e-02	2.037522566e-01	-9.525309513e-02	1.213423858e-09
3.300000000e-02	2.037522642e-01	-9.525309589e-02	2.211981039e-09
3.350000000e-02	2.037522719e-01	-9.525309665e-02	5.973623803e-10
3.400000000e-02	2.037522797e-01	-9.525309743e-02	1.515055231e-09
3.550000000e-02	2.037523038e-01	-9.525309983e-02	2.121456717e-09
3.650000000e-02	2.037523205e-01	-9.525310149e-02	4.496110826e-10
3.700000000e-02	2.037523290e-01	-9.525310234e-02	2.603447942e-09
3.750000000e-02	2.037523376e-01	-9.525310320e-02	1.122086629e-09
3.850000000e-02	2.037523552e-01	-9.525310495e-02	3.604123888e-09
3.950000000e-02	2.037523733e-01	-9.525310674e-02	4.927248172e-09
4.000000000e-02	2.037523825e-01	-9.525310766e-02	5.281196694e-09
4.050000000e-02	2.037523918e-01	-9.525310859e-02	4.161233067e-09
4.200000000e-02	2.037524205e-01	-9.525311144e-02	1.484731956e-09
4.250000000e-02	2.037524303e-01	-9.525311241e-02	6.913733093e-10
4.300000000e-02	2.037524402e-01	-9.525311340e-02	4.494518016e-09
4.350000000e-02	2.037524502e-01	-9.525311439e-02	1.096287170e-10
4.400000000e-02	2.037524603e-01	-9.525311540e-02	5.216644355e-09
4.450000000e-02	2.037524705e-01	-9.525311642e-02	8.427276728e-10
4.500000000e-02	2.037524809e-01	-9.525311745e-02	2.862898288e-09
4.600000000e-02	2.037525020e-01	-9.525311955e-02	2.396639225e-09
4.800000000e-02	2.037525455e-01	-9.525312388e-02	2.227261175e-09
4.900000000e-02	2.037525680e-01	-9.525312612e-02	3.166882716e-09
5.050000000e-02	2.037526025e-01	-9.525312955e-02	4.328168269e-10
5.150000000e-02	2.037526262e-01	-9.525313190e-02	1.252349324e-09
5.200000000e-02	2.037526381e-01	-9.525313310e-02	1.425690706e-09
5.250000000e-02	2.037526502e-01	-9.525313430e-02	4.808813938e-09
5.300000000e-02	2.037526625e-01	-9.525313552e-02	1.480577056e-09
5.350000000e-02	2.037526748e-01	-9.525313674e-02	3.854065368e-09
5.400000000e-02	2.037526872e-01	-9.525313798e-02	1.070313216e-09
5.550000000e-02	2.037527253e-01	-9.525314177e-02	4.241649356e-09
5.650000000e-02	2.037527512e-01	-9.525314435e-02	1.420645054e-09
5.850000000e-02	2.037528045e-01	-9.525314965e-02	2.405104352e-09
5.900000000e-02	2.037528181e-01	-9.525315100e-02	2.118611129e-09
5.950000000e-02	2.037528318e-01	-9.525315236e-02	3.021303529e-09
6.050000000e-02	2.037528596e-01	-9.525315513e-02	8.925657617e-10
6.200000000e-02	2.037529021e-01	-9.525315936e-02	6.380131860e-09
6.300000000e-02	2.037529311e-01	-9.525316224e-02	3.593180950e-09
6.350000000e-02	2.037529457e-01	-9.525316370e-02	6.802986086e-09
6.400000000e-02	2.037529605e-01	-9.525316517e-02	1.401096682e-09
6.450000000e-02	2.037529754e-01	-9.525316665e-02	2.657974985e-09
6.500000000e-02	2.037529904e-01	-9.525316814e-02	6.920699541e-09
6.850000000e-02	2.037530986e-01	-9.525317891e-02	1.435429438e-09
6.950000000e-02	2.037531305e-01	-9.525318209e-02	1.947284121e-09
7.000000000e-02	2.037531467e-01	-9.525318369e-02	1.788360568e-09
7.250000000e-02	2.037532292e-01	-9.525319190e-02	4.719671714e-09
7.350000000e-02	2.037532630e-01	-9.525319526e-02	2.694875548e-09
7.400000000e-02	2.037532801e-01	-9.525319696e-02	2.974704831e-09
7.450000000e-02	2.037532973e-01	-9.525319867e-02	4.054977930e-09
7.550000000e-02	2.037533320e-01	-9.525320213e-02	9.883922149e-09
7.600000000e-02	2.037533495e-01	-9.525320388e-02	6.742895251e-10
7.650000000e-02	2.037533672e-01	-9.525320563e-02	1.526936737e-10
7.900000000e-02	2.037534572e-01	-9.525321459e-02	5.017139086e-09
8.000000000e-02	2.037534940e-01	-9.525321825e-02	5.649911518e-10
8.100000000e-02	2.037535313e-01	-9.525322196e-02	7.590808582e-09
8.150000000e-02	2.037535501e-01	-9.525322383e-02	1.649561430e-09
8.200000000e-02	2.037535691e-01	-9.525322572e-02	5.403051489e-09
8.300000000e-02	2.037536073e-01	-9.525322952e-02	4.617390515e-10
8.800000000e-02	2.037538053e-01	-9.525324922e-02	8.081192616e-10
8.850000000e-02	2.037538257e-01	-9.525325125e-02	9.335242694e-09
8.950000000e-02	2.037538669e-01	-9.525325535e-02	7.279185053e-09
9.100000000e-02	2.037539296e-01	-9.525326159e-02	9.597010203e-09
9.250000000e-02	2.037539934e-01	-9.525326793e-02	3.100698011e-09
9.350000000e-02	2.037540364e-01	-9.525327222e-02	5.840927887e-10
9.450000000e-02	2.037540800e-01	-9.525327655e-02	6.168194412e-09
9.550000000e-02	2.037541240e-01	-9.525328093e-02	2.727540212e-09
9.700000000e-02	2.037541908e-01	-9.525328758e-02	8.407744203e-09
9.750000000e-02	2.037542134e-01	-9.525328982e-02	2.448800978e-10
9.900000000e-02	2.037542816e-01	-9.525329661e-02	5.366385770e-09
1.000000000e-01	2.037543277e-01	-9.525330120e-02	1.284827806e-08
1.005000000e-01	2.037543509e-01	-9.525330351e-02	1.642011864e-08
1.025000000e-01	2.037544449e-01	-9.525331286e-02	5.560325242e-09
1.030000000e-01	2.037544687e-01	-9.525331523e-02	1.048159753e-09
1.040000000e-01	2.037545167e-01	-9.525332000e-02	2.186117143e-08
1.045000000e-01	2.037545408e-01	-9.525332240e-02	1.854776291e-08
1.055000000e-01	2.037545894e-01	-9.525332724e-02	4.217464081e-10
1.060000000e-01	2.037546139e-01	-9.525332968e-02	1.262793797e-08
1.065000000e-01	2.037546385e-01	-9.525333212e-02	2.067936846e-08
1.070000000e-01	2.037546632e-01	-9.525333458e-02	1.158251898e-08
1.080000000e-01	2.037547130e-01	-9.525333954e-02	5.811703402e-09
1.085000000e-01	2.037547381e-01	-9.525334203e-02	3.596698983e-09
1.100000000e-01	2.037548140e-01	-9.525334958e-02	1.205241736e-08
1.105000000e-01	2.037548395e-01	-9.525335212e-02	7.537212665e-09
1.115000000e-01	2.037548909e-01	-9.525335724e-02	1.364382700e-08
1.125000000e-01	2.037549428e-01	-9.525336240e-02	2.084351138e-10
1.135000000e-01	2.037549951e-01	-9.525336761e-02	2.052044287e-08
1.145000000e-01	2.037550479e-01	-9.525337286e-02	1.679162126e-08
1.165000000e-01	2.037551549e-01	-9.525338350e-02	7.653792552e-09
1.170000000e-01	2.037551820e-01	-9.525338619e-02	1.874987743e-08
1.175000000e-01	2.037552091e-01	-9.525338889e-02	1.993429787e-08
1.185000000e-01	2.037552638e-01	-9.525339433e-02	3.392257941e-08
1.190000000e-01	2.037552913e-01	-9.525339707e-02	2.981396335e-08
1.195000000e-01	2.037553189e-01	-9.525339982e-02	1.077086424e-08
1.205000000e-01	2.037553744e-01	-9.525340535e-02	1.031225035e-08
1.210000000e-01	2.037554024e-01	-9.525340813e-02	2.586710385e-09
1.220000000e-01	2.037554587e-01	-9.525341373e-02	1.075963238e-08
1.225000000e-01	2.037554870e-01	-9.525341654e-02	6.846877157e-09
1.235000000e-01	2.037555440e-01	-9.525342221e-02	3.242256119e-08
1.260000000e-01	2.037556884e-01	-9.525343658e-02	7.718864257e-09
1.265000000e-01	2.037557176e-01	-9.525343949e-02	2.567430814e-08
1.275000000e-01	2.037557764e-01	-9.525344534e-02	1.965880246e-08
1.285000000e-01	2.037558357e-01	-9.525345124e-02	1.608958208e-09
1.290000000e-01	2.037558655e-01	-9.525345421e-02	1.627578372e-08
1.295000000e-01	2.037558955e-01	-9.525345719e-02	5.026665683e-08
1.320000000e-01	2.037560469e-01	-9.525347225e-02	5.648258873e-08
1.325000000e-01	2.037560775e-01	-9.525347530e-02	5.066396276e-08
1.330000000e-01	2.037561082e-01	-9.525347835e-02	3.361205838e-08
1.340000000e-01	2.037561700e-01	-9.525348451e-02	7.361954859e-08
1.345000000e-01	2.037562011e-01	-9.525348760e-02	1.726844424e-08
1.350000000e-01	2.037562323e-01	-9.525349070e-02	1.695172788e-09
1.355000000e-01	2.037562637e-01	-9.525349382e-02	3.941454219e-08
1.360000000e-01	2.037562951e-01	-9.525349695e-02	2.587341306e-08
1.370000000e-01	2.037563583e-01	-9.525350324e-02	2.987208504e-09
1.385000000e-01	2.037564540e-01	-9.525351276e-02	4.811444833e-08
1.415000000e-01	2.037566485e-01	-9.525353211e-02	6.163015981e-08
1.420000000e-01	2.037566813e-01	-9.525353538e-02	2.948043670e-08
1.430000000e-01	2.037567473e-01	-9.525354194e-02	9.494685562e-08
1.440000000e-01	2.037568138e-01	-9.525354856e-02	1.206703786e-07
1.450000000e-01	2.037568807e-01	-9.525355522e-02	4.126936880e-08
1.505000000e-01	2.037572571e-01	-9.525359266e-02	1.977799491e-07
1.515000000e-01	2.037573270e-01	-9.525359962e-02	2.935247633e-09
1.520000000e-01	2.037573621e-01	-9.525360312e-02	2.182543700e-07
1.535000000e-01	2.037574682e-01	-9.525361367e-02	1.327681633e-07
1.540000000e-01	2.037575038e-01	-9.525361722e-02	2.541179072e-07
1.550000000e-01	2.037575754e-01	-9.525362433e-02	2.790246651e-07
1.555000000e-01	2.037576113e-01	-9.525362791e-02	2.116788306e-07
1.570000000e-01	2.037577199e-01	-9.525363871e-02	3.590788697e-07
1.585000000e-01	2.037578295e-01	-9.525364962e-02	5.727669906e-07
1.605000000e-01	2.037579772e-01	-9.525366432e-02	5.202597168e-07
1.610000000e-01	2.037580144e-01	-9.525366802e-02	2.593638204e-07
1.615000000e-01	2.037580518e-01	-9.525367173e-02	3.411735459e-07
1.645000000e-01	2.037582782e-01	-9.525369427e-02	7.796310933e-07
1.655000000e-01	2.037583546e-01	-9.525370187e-02	2.718653726e-07
1.660000000e-01	2.037583930e-01	-9.525370569e-02	9.485312893e-07
1.690000000e-01	2.037586257e-01	-9.525372884e-02	3.902466985e-07
1.695000000e-01	2.037586649e-01	-9.525373274e-02	7.220169652e-08
1.700000000e-01	2.037587042e-01	-9.525373665e-02	1.404902518e-06
1.710000000e-01	2.037587832e-01	-9.525374451e-02	1.180186461e-06
1.720000000e-01	2.037588626e-01	-9.525375241e-02	8.876021486e-07
1.730000000e-01	2.037589425e-01	-9.525376036e-02	1.523617298e-06
1.770000000e-01	2.037592667e-01	-9.525379262e-02	1.625367679e-07
1.785000000e-01	2.037593901e-01	-9.525380490e-02	1.187159893e-06
1.790000000e-01	2.037594315e-01	-9.525380902e-02	5.027841034e-06
1.795000000e-01	2.037594730e-01	-9.525381315e-02	3.949870120e-07
1.805000000e-01	2.037595564e-01	-9.525382145e-02	4.903480125e-06
1.820000000e-01	2.037596823e-01	-9.525383397e-02	5.913718956e-06
1.830000000e-01	2.037597668e-01	-9.525384238e-02	6.949691656e-06
1.835000000e-01	2.037598093e-01	-9.525384661e-02	4.461796803e-06
1.885000000e-01	2.037602399e-01	-9.525388946e-02	4.323333406e-05
1.890000000e-01	2.037602836e-01	-9.525389381e-02	7.463545822e-05
1.900000000e-01	2.037603714e-01	-9.525390254e-02	3.403928521e-06
1.910000000e-01	2.037604596e-01	-9.525391132e-02	8.413246763e-05
1.915000000e-01	2.037605039e-01	-9.525391573e-02	8.734578286e-05
1.930000000e-01	2.037606375e-01	-9.525392901e-02	3.115015005e-04
1.935000000e-01	2.037606822e-01	-9.525393347e-02	2.445757782e-04
1.950000000e-01	2.037608171e-01	-9.525394689e-02	3.686267145e-04
1.960000000e-01	2.037609077e-01	-9.525395590e-02	2.608225822e-04
1.975000000e-01	2.037610443e-01	-9.525396950e-02	1.207038953e-03
1.980000000e-01	2.037610901e-01	-9.525397406e-02	1.181409884e-03
1.985000000e-01	2.037611360e-01	-9.525397862e-02	2.156811330e-03
1.995000000e-01	2.037612282e-01	-9.525398779e-02	1.085726611e-02
2.000000000e-01	2.037612744e-01	-9.525399240e-02	6.503541329e-02
2.030000000e-01	9.627789632e+00	-1.161307642e-01	1.156315442e-14
2.035000000e-01	9.627789913e+00	-1.161308127e-01	9.936556977e-15
2.040000000e-01	9.627790195e+00	-1.161308614e-01	1.384670239e-14
2.045000000e-01	9.627790478e+00	-1.161309101e-01	1.450306062e-14
2.050000000e-01	9.627790762e+00	-1.161309590e-01	5.588890875e-15
2.055000000e-01	9.627791046e+00	-1.161310080e-01	8.348295731e-15
2.060000000e-01	9.627791331e+00	-1.161310571e-01	1.168806864e-14
2.065000000e-01	9.627791617e+00	-1.161311063e-01	4.606511351e-15
2.070000000e-01	9.627791903e+00	-1.161311556e-01	1.037278326e-14
2.075000000e-01	9.627792190e+00	-1.161312050e-01	9.840179098e-15
2.080000000e-01	9.627792478e+00	-1.161312546e-01	8.544009057e-15
2.085000000e-01	9.627792766e+00	-1.161313042e-01	1.026644829e-14
2.090000000e-01	9.627793055e+00	-1.161313540e-01	9.934901200e-15
2.095000000e-01	9.627793345e+00	-1.161314039e-01	5.481528922e-15
2.100000000e-01	9.627793636e+00	-1.161314539e-01	1.140226570e-14
2.105000000e-01	9.627793927e+00	-1.161315040e-01	1.233299352e-14
2.110000000e-01	9.627794219e+00	-1.161315542e-01	9.207262093e-15
2.115000000e-01	9.627794511e+00	-1.161316046e-01	5.397747292e-15
2.120000000e-01	9.627794804e+00	-1.161316550e-01	1.355586209e-14
2.125000000e-01	9.627795098e+00	-1.161317056e-01	9.271759535e-15
2.130000000e-01	9.627795393e+00	-1.161317563e-01	7.196053773e-15
2.135000000e-01	9.627795688e+00	-1.161318071e-01	7.812992935e-15
2.140000000e-01	9.627795984e+00	-1.161318580e-01	5.637242173e-15
2.145000000e-01	9.627796281e+00	-1.161319090e-01	6.342211603e-15
2.150000000e-01	9.627796579e+00	-1.161319602e-01	8.530997698e-15
2.155000000e-01	9.627796877e+00	-1.161320114e-01	6.368397709e-15
2.160000000e-01	9.627797176e+00	-1.161320628e-01	8.893118660e-15
2.165000000e-01	9.627797475e+00	-1.161321143e-01	1.013831465e-14
2.170000000e-01	9.627797775e+00	-1.161321659e-01	1.453367170e-14
2.175000000e-01	9.627798076e+00	-1.161322176e-01	8.289179547e-15
2.180000000e-01	9.627798378e+00	-1.161322694e-01	6.801425353e-15
2.185000000e-01	9.627798680e+00	-1.161323213e-01	5.627590792e-15
2.190000000e-01	9.627798983e+00	-1.161323734e-01	7.214898661e-15
2.195000000e-01	9.627799287e+00	-1.161324255e-01	7.261187849e-15
2.200000000e-01	9.627799591e+00	-1.161324778e-01	1.245627783e-14
2.205000000e-01	9.627799896e+00	-1.161325302e-01	1.075267449e-14
2.210000000e-01	9.627800202e+00	-1.161325827e-01	1.275661371e-14
2.215000000e-01	9.627800508e+00	-1.161326353e-01	5.982120221e-15
2.220000000e-01	9.627800815e+00	-1.161326880e-01	6.975896697e-15
2.225000000e-01	9.627801123e+00	-1.161327408e-01	1.198344069e-14
2.230000000e-01	9.627801432e+00	-1.161327938e-01	4.914965345e-15
2.235000000e-01	9.627801741e+00	-1.161328468e-01	7.006095690e-15
2.240000000e-01	9.627802051e+00	-1.161329000e-01	7.435710393e-15
2.245000000e-01	9.627802362e+00	-1.161329533e-01	4.003115016e-15
2.250000000e-01	9.627802673e+00	-1.161330067e-01	9.431557359e-15
2.255000000e-01	9.627802985e+00	-1.161330602e-01	7.005788635e-15
2.260000000e-01	9.627803298e+00	-1.161331138e-01	6.851494131e-15
2.265000000e-01	9.627803611e+00	-1.161331675e-01	7.107419002e-15
2.270000000e-01	9.627803925e+00	-1.161332214e-01	1.498713200e-14
2.275000000e-01	9.627804240e+00	-1.161332753e-01	8.591809457e-15
2.280000000e-01	9.627804555e+00	-1.161333294e-01	6.497242127e-15
2.285000000e-01	9.627804871e+00	-1.161333836e-01	1.048095804e-14
2.290000000e-01	9.627805188e+00	-1.161334379e-01	5.003925302e-15
2.295000000e-01	9.627805506e+00	-1.161334923e-01	1.096316326e-14
2.300000000e-01	9.627805824e+00	-1.161335468e-01	6.064817712e-15
2.305000000e-01	9.627806143e+00	-1.161336015e-01	4.218609474e-15
2.310000000e-01	9.627806463e+00	-1.161336562e-01	1.270071175e-14
2.315000000e-01	9.627806783e+00	-1.161337111e-01	1.138634622e-14
2.320000000e-01	9.627807104e+00	-1.161337660e-01	7.126299682e-15
2.325000000e-01	9.627807426e+00	-1.161338211e-01	9.644390572e-15
2.330000000e-01	9.627807748e+00	-1.161338763e-01	1.248366783e-14
2.335000000e-01	9.627808071e+00	-1.161339316e-01	1.575092179e-14
2.340000000e-01	9.627808395e+00	-1.161339870e-01	7.644976020e-15
2.345000000e-01	9.627808719e+00	-1.161340425e-01	7.843505219e-15
2.350000000e-01	9.627809045e+00	-1.161340982e-01	9.512159481e-15
2.355000000e-01	9.627809371e+00	-1.161341539e-01	9.709613746e-15
2.360000000e-01	9.627809697e+00	-1.161342098e-01	7.415773278e-15
2.365000000e-01	9.627810024e+00	-1.161342658e-01	8.256770897e-15
2.370000000e-01	9.627810352e+00	-1.161343218e-01	8.789168644e-15
2.375000000e-01	9.627810681e+00	-1.161343780e-01	1.082338190e-14
2.380000000e-01	9.627811010e+00	-1.161344343e-01	6.900472605e-15
2.385000000e-01	9.627811340e+00	-1.161344908e-01	1.826505351e-14
2.390000000e-01	9.627811671e+00	-1.161345473e-01	6.627897656e-15
2.395000000e-01	9.627812003e+00	-1.161346039e-01	9.764486482e-15
2.400000000e-01	9.627812335e+00	-1.161346607e-01	6.014919912e-15
2.405000000e-01	9.627812667e+00	-1.161347176e-01	7.237857035e-15
2.410000000e-01	9.627813001e+00	-1.161347745e-01	1.067571649e-14
2.415000000e-01	9.627813335e+00	-1.161348316e-01	5.984552787e-15
2.420000000e-01	9.627813670e+00	-1.161348888e-01	8.126182088e-15
2.425000000e-01	9.627814006e+00	-1.161349461e-01	9.281892123e-15
2.430000000e-01	9.627814342e+00	-1.161350035e-01	1.032394091e-14
2.435000000e-01	9.627814679e+00	-1.161350611e-01	5.693409988e-15
2.440000000e-01	9.627815017e+00	-1.161351187e-01	1.642301190e-14
2.445000000e-01	9.627815355e+00	-1.161351765e-01	1.018857462e-14
2.450000000e-01	9.627815694e+00	-1.161352343e-01	9.993991448e-15
2.455000000e-01	9.627816034e+00	-1.161352923e-01	7.605820324e-15
2.460000000e-01	9.627816374e+00	-1.161353504e-01	1.302768994e-14
2.465000000e-01	9.627816716e+00	-1.161354086e-01	5.913051697e-15
2.470000000e-01	9.627817057e+00	-1.161354669e-01	6.338671885e-15
2.475000000e-01	9.627817400e+00	-1.161355253e-01	1.456153188e-14
2.480000000e-01	9.627817743e+00	-1.161355838e-01	1.690727549e-14
2.485000000e-01	9.627818087e+00	-1.161356425e-01	9.579850535e-15
2.490000000e-01	9.627818432e+00	-1.161357012e-01	1.464106990e-14
2.495000000e-01	9.627818777e+00	-1.161357601e-01	9.310311571e-15
2.500000000e-01	9.627819123e+00	-1.161358190e-01	9.549581126e-15
2.505000000e-01	9.627819470e+00	-1.161358781e-01	1.048482338e-14
2.510000000e-01	9.627819817e+00	-1.161359373e-01	1.689059615e-14
