# kz [eV]     Omega/c [1/micrones]    Im(epsi1)     Eq(det).Opt det con kz, R=0.25 \mum, Re(epsi1)=16.00, $\mu_c$ = 0.300 eV, solve_det_conkz_vs_kz.py
5.000000000e-04	1.765299614e-01	-9.416594540e-02	3.551677556e-10
1.000000000e-03	1.765299616e-01	-9.416594542e-02	9.682700166e-11
2.000000000e-03	1.765299627e-01	-9.416594546e-02	1.091162643e-10
2.500000000e-03	1.765299636e-01	-9.416594549e-02	1.923437891e-10
3.000000000e-03	1.765299646e-01	-9.416594553e-02	7.593613122e-11
4.000000000e-03	1.765299672e-01	-9.416594563e-02	2.941761916e-11
4.500000000e-03	1.765299687e-01	-9.416594569e-02	2.101698074e-10
5.000000000e-03	1.765299705e-01	-9.416594575e-02	1.959534522e-10
5.500000000e-03	1.765299724e-01	-9.416594583e-02	2.417106795e-10
6.000000000e-03	1.765299745e-01	-9.416594591e-02	1.596747272e-10
6.500000000e-03	1.765299768e-01	-9.416594600e-02	1.860652410e-10
7.000000000e-03	1.765299793e-01	-9.416594609e-02	6.166539938e-11
7.500000000e-03	1.765299820e-01	-9.416594620e-02	5.086162940e-11
9.000000000e-03	1.765299911e-01	-9.416594655e-02	1.393328488e-10
1.000000000e-02	1.765299981e-01	-9.416594681e-02	9.394468532e-11
1.200000000e-02	1.765300143e-01	-9.416594744e-02	2.146052283e-11
1.250000000e-02	1.765300188e-01	-9.416594761e-02	1.192188084e-10
1.400000000e-02	1.765300335e-01	-9.416594817e-02	1.091857245e-10
1.500000000e-02	1.765300442e-01	-9.416594858e-02	6.049316881e-11
1.600000000e-02	1.765300556e-01	-9.416594902e-02	8.705295552e-11
1.700000000e-02	1.765300677e-01	-9.416594948e-02	1.387805319e-10
1.750000000e-02	1.765300741e-01	-9.416594973e-02	4.693118539e-10
1.800000000e-02	1.765300806e-01	-9.416594998e-02	8.048450175e-11
1.850000000e-02	1.765300874e-01	-9.416595024e-02	8.934194134e-11
1.900000000e-02	1.765300943e-01	-9.416595050e-02	3.817432564e-10
2.000000000e-02	1.765301086e-01	-9.416595105e-02	4.391775470e-11
2.050000000e-02	1.765301161e-01	-9.416595134e-02	2.896803222e-10
2.100000000e-02	1.765301237e-01	-9.416595163e-02	3.139034775e-11
2.150000000e-02	1.765301316e-01	-9.416595193e-02	1.974195535e-10
2.200000000e-02	1.765301396e-01	-9.416595224e-02	1.523782456e-10
2.250000000e-02	1.765301478e-01	-9.416595255e-02	1.684246447e-10
2.400000000e-02	1.765301735e-01	-9.416595354e-02	5.047878835e-10
2.500000000e-02	1.765301915e-01	-9.416595423e-02	1.546373449e-10
2.550000000e-02	1.765302008e-01	-9.416595459e-02	5.061195252e-11
2.600000000e-02	1.765302103e-01	-9.416595495e-02	1.044879678e-10
2.700000000e-02	1.765302299e-01	-9.416595570e-02	6.392324928e-11
2.800000000e-02	1.765302501e-01	-9.416595648e-02	4.458063004e-11
2.850000000e-02	1.765302605e-01	-9.416595687e-02	1.210243749e-10
2.950000000e-02	1.765302819e-01	-9.416595769e-02	2.059460905e-10
3.000000000e-02	1.765302929e-01	-9.416595811e-02	1.992252814e-10
3.050000000e-02	1.765303040e-01	-9.416595854e-02	1.191755787e-10
3.150000000e-02	1.765303268e-01	-9.416595942e-02	1.850938012e-10
3.200000000e-02	1.765303385e-01	-9.416595987e-02	5.790018687e-11
3.250000000e-02	1.765303504e-01	-9.416596032e-02	2.284954444e-10
3.350000000e-02	1.765303747e-01	-9.416596125e-02	1.895665026e-10
3.400000000e-02	1.765303872e-01	-9.416596173e-02	1.732770627e-10
3.550000000e-02	1.765304256e-01	-9.416596320e-02	1.747777136e-10
3.600000000e-02	1.765304388e-01	-9.416596371e-02	4.327221589e-11
3.650000000e-02	1.765304521e-01	-9.416596422e-02	6.765457642e-11
3.700000000e-02	1.765304657e-01	-9.416596474e-02	1.564114406e-10
3.800000000e-02	1.765304933e-01	-9.416596580e-02	2.001589830e-10
3.950000000e-02	1.765305361e-01	-9.416596744e-02	2.587556485e-10
4.000000000e-02	1.765305508e-01	-9.416596800e-02	1.968120171e-10
4.200000000e-02	1.765306112e-01	-9.416597032e-02	2.016479095e-10
4.250000000e-02	1.765306268e-01	-9.416597091e-02	4.408090369e-11
4.350000000e-02	1.765306584e-01	-9.416597213e-02	4.162687221e-12
4.400000000e-02	1.765306746e-01	-9.416597275e-02	2.478982252e-10
4.550000000e-02	1.765307240e-01	-9.416597464e-02	9.779755232e-11
4.650000000e-02	1.765307579e-01	-9.416597594e-02	5.261221954e-11
4.700000000e-02	1.765307751e-01	-9.416597660e-02	1.178452082e-10
4.750000000e-02	1.765307925e-01	-9.416597727e-02	1.230972819e-11
4.800000000e-02	1.765308101e-01	-9.416597795e-02	6.422725256e-11
4.850000000e-02	1.765308279e-01	-9.416597863e-02	6.464740891e-11
5.000000000e-02	1.765308824e-01	-9.416598071e-02	1.178702477e-10
5.050000000e-02	1.765309009e-01	-9.416598142e-02	9.264664041e-12
5.100000000e-02	1.765309196e-01	-9.416598214e-02	9.945229864e-11
5.200000000e-02	1.765309575e-01	-9.416598360e-02	2.049880870e-10
5.250000000e-02	1.765309768e-01	-9.416598433e-02	1.863098808e-10
5.350000000e-02	1.765310158e-01	-9.416598583e-02	1.305118290e-10
5.450000000e-02	1.765310556e-01	-9.416598736e-02	3.395669651e-11
5.500000000e-02	1.765310758e-01	-9.416598813e-02	1.521612237e-10
5.550000000e-02	1.765310961e-01	-9.416598891e-02	1.398400042e-10
5.650000000e-02	1.765311374e-01	-9.416599049e-02	8.384090670e-11
5.750000000e-02	1.765311794e-01	-9.416599210e-02	4.852335162e-11
5.800000000e-02	1.765312007e-01	-9.416599292e-02	4.260934658e-11
5.850000000e-02	1.765312221e-01	-9.416599374e-02	5.794021282e-11
5.900000000e-02	1.765312438e-01	-9.416599457e-02	8.498059145e-11
5.950000000e-02	1.765312656e-01	-9.416599541e-02	1.486035017e-10
6.000000000e-02	1.765312876e-01	-9.416599625e-02	1.309638509e-10
6.050000000e-02	1.765313098e-01	-9.416599710e-02	1.426340409e-10
6.100000000e-02	1.765313322e-01	-9.416599796e-02	3.708696419e-10
6.200000000e-02	1.765313775e-01	-9.416599970e-02	2.659704673e-10
6.300000000e-02	1.765314236e-01	-9.416600146e-02	6.961874318e-11
6.350000000e-02	1.765314469e-01	-9.416600236e-02	3.610310561e-10
6.400000000e-02	1.765314704e-01	-9.416600326e-02	3.183080000e-10
6.500000000e-02	1.765315179e-01	-9.416600508e-02	1.914829983e-10
6.550000000e-02	1.765315419e-01	-9.416600600e-02	1.783457587e-10
6.600000000e-02	1.765315662e-01	-9.416600693e-02	4.478840714e-10
6.650000000e-02	1.765315906e-01	-9.416600786e-02	6.824578984e-11
6.700000000e-02	1.765316152e-01	-9.416600881e-02	2.975841864e-10
6.750000000e-02	1.765316399e-01	-9.416600976e-02	5.083373798e-10
6.800000000e-02	1.765316649e-01	-9.416601071e-02	1.946721804e-10
6.900000000e-02	1.765317154e-01	-9.416601265e-02	2.532397082e-10
6.950000000e-02	1.765317409e-01	-9.416601363e-02	2.708970943e-10
7.000000000e-02	1.765317666e-01	-9.416601461e-02	7.720988782e-10
7.050000000e-02	1.765317925e-01	-9.416601561e-02	2.366031930e-11
7.100000000e-02	1.765318185e-01	-9.416601660e-02	1.853639518e-10
7.200000000e-02	1.765318712e-01	-9.416601862e-02	2.273139490e-10
7.250000000e-02	1.765318978e-01	-9.416601964e-02	4.195244808e-12
7.350000000e-02	1.765319516e-01	-9.416602171e-02	1.985422526e-10
7.450000000e-02	1.765320061e-01	-9.416602380e-02	1.202233078e-10
7.500000000e-02	1.765320337e-01	-9.416602485e-02	7.349635942e-11
7.550000000e-02	1.765320614e-01	-9.416602592e-02	4.434872379e-10
7.650000000e-02	1.765321174e-01	-9.416602806e-02	5.188895855e-10
7.700000000e-02	1.765321457e-01	-9.416602915e-02	4.278271472e-10
7.750000000e-02	1.765321741e-01	-9.416603024e-02	5.514190564e-10
7.800000000e-02	1.765322028e-01	-9.416603134e-02	1.890817815e-10
7.900000000e-02	1.765322606e-01	-9.416603355e-02	1.242378646e-10
8.000000000e-02	1.765323192e-01	-9.416603580e-02	3.230119145e-10
8.100000000e-02	1.765323785e-01	-9.416603807e-02	1.549231320e-11
8.200000000e-02	1.765324386e-01	-9.416604038e-02	2.567816842e-10
8.300000000e-02	1.765324994e-01	-9.416604271e-02	2.280431126e-10
8.450000000e-02	1.765325919e-01	-9.416604626e-02	1.801986211e-10
8.500000000e-02	1.765326232e-01	-9.416604745e-02	9.468800440e-10
8.700000000e-02	1.765327499e-01	-9.416605231e-02	2.701599277e-10
8.750000000e-02	1.765327820e-01	-9.416605354e-02	4.455741514e-10
8.800000000e-02	1.765328144e-01	-9.416605478e-02	1.799842598e-10
9.050000000e-02	1.765329788e-01	-9.416606109e-02	2.553576029e-10
9.100000000e-02	1.765330122e-01	-9.416606237e-02	3.260711941e-11
9.300000000e-02	1.765331478e-01	-9.416606757e-02	3.714472510e-11
9.350000000e-02	1.765331821e-01	-9.416606888e-02	3.644027288e-10
9.400000000e-02	1.765332167e-01	-9.416607021e-02	4.206928987e-13
9.550000000e-02	1.765333214e-01	-9.416607422e-02	8.520966879e-10
9.600000000e-02	1.765333567e-01	-9.416607557e-02	5.550309773e-10
9.650000000e-02	1.765333921e-01	-9.416607693e-02	5.745702981e-10
9.750000000e-02	1.765334636e-01	-9.416607967e-02	1.268461848e-10
9.800000000e-02	1.765334996e-01	-9.416608105e-02	6.208927888e-10
9.850000000e-02	1.765335358e-01	-9.416608244e-02	7.066913220e-10
9.900000000e-02	1.765335722e-01	-9.416608384e-02	1.206630365e-09
9.950000000e-02	1.765336088e-01	-9.416608524e-02	7.448101257e-10
1.005000000e-01	1.765336824e-01	-9.416608806e-02	3.782230450e-10
1.010000000e-01	1.765337196e-01	-9.416608949e-02	2.070595586e-10
1.015000000e-01	1.765337569e-01	-9.416609092e-02	1.338722596e-09
1.020000000e-01	1.765337944e-01	-9.416609235e-02	8.444502897e-10
1.025000000e-01	1.765338320e-01	-9.416609380e-02	1.066211983e-09
1.035000000e-01	1.765339079e-01	-9.416609671e-02	1.508318508e-09
1.040000000e-01	1.765339461e-01	-9.416609817e-02	1.253344092e-09
1.045000000e-01	1.765339845e-01	-9.416609964e-02	5.137611482e-10
1.050000000e-01	1.765340231e-01	-9.416610112e-02	7.616129794e-10
1.055000000e-01	1.765340619e-01	-9.416610261e-02	7.951237206e-10
1.065000000e-01	1.765341400e-01	-9.416610560e-02	5.401951839e-10
1.070000000e-01	1.765341793e-01	-9.416610711e-02	5.410739025e-10
1.075000000e-01	1.765342189e-01	-9.416610863e-02	1.746204259e-09
1.085000000e-01	1.765342984e-01	-9.416611168e-02	4.956822191e-10
1.090000000e-01	1.765343385e-01	-9.416611321e-02	1.845412905e-09
1.095000000e-01	1.765343787e-01	-9.416611476e-02	2.717986535e-10
1.100000000e-01	1.765344192e-01	-9.416611631e-02	8.457759435e-10
1.105000000e-01	1.765344598e-01	-9.416611786e-02	1.222850665e-09
1.110000000e-01	1.765345006e-01	-9.416611943e-02	4.289170003e-10
1.115000000e-01	1.765345416e-01	-9.416612100e-02	7.988330515e-10
1.120000000e-01	1.765345828e-01	-9.416612258e-02	8.167225379e-10
1.130000000e-01	1.765346656e-01	-9.416612576e-02	2.277764802e-09
1.140000000e-01	1.765347493e-01	-9.416612896e-02	9.917811986e-11
1.145000000e-01	1.765347914e-01	-9.416613058e-02	9.187128841e-10
1.155000000e-01	1.765348761e-01	-9.416613382e-02	1.972164476e-09
1.170000000e-01	1.765350046e-01	-9.416613875e-02	8.178543715e-10
1.175000000e-01	1.765350478e-01	-9.416614041e-02	8.650584215e-10
1.185000000e-01	1.765351347e-01	-9.416614374e-02	1.003705734e-09
1.190000000e-01	1.765351785e-01	-9.416614542e-02	8.555128864e-10
1.195000000e-01	1.765352224e-01	-9.416614710e-02	6.144301161e-10
1.205000000e-01	1.765353108e-01	-9.416615049e-02	9.874796797e-10
1.220000000e-01	1.765354448e-01	-9.416615563e-02	1.300446417e-09
1.225000000e-01	1.765354899e-01	-9.416615736e-02	3.017705221e-09
1.235000000e-01	1.765355805e-01	-9.416616083e-02	3.429768792e-11
1.240000000e-01	1.765356261e-01	-9.416616258e-02	9.418685921e-10
1.260000000e-01	1.765358103e-01	-9.416616964e-02	2.202045541e-09
1.270000000e-01	1.765359035e-01	-9.416617321e-02	1.156229857e-09
1.280000000e-01	1.765359974e-01	-9.416617681e-02	2.548840816e-09
1.285000000e-01	1.765360447e-01	-9.416617863e-02	2.828966656e-09
1.300000000e-01	1.765361875e-01	-9.416618410e-02	2.594140686e-09
1.310000000e-01	1.765362837e-01	-9.416618779e-02	4.391915921e-09
1.325000000e-01	1.765364293e-01	-9.416619337e-02	1.545276738e-09
1.340000000e-01	1.765365766e-01	-9.416619902e-02	1.681769835e-09
1.345000000e-01	1.765366260e-01	-9.416620091e-02	2.280986516e-10
1.360000000e-01	1.765367755e-01	-9.416620665e-02	8.351470387e-09
1.365000000e-01	1.765368257e-01	-9.416620857e-02	6.463204044e-09
1.370000000e-01	1.765368761e-01	-9.416621050e-02	4.344821430e-09
1.385000000e-01	1.765370283e-01	-9.416621634e-02	9.182414713e-09
1.390000000e-01	1.765370794e-01	-9.416621830e-02	9.649515644e-09
1.395000000e-01	1.765371307e-01	-9.416622026e-02	4.860966930e-09
1.405000000e-01	1.765372339e-01	-9.416622422e-02	3.451220973e-09
1.410000000e-01	1.765372857e-01	-9.416622621e-02	6.399931323e-09
1.415000000e-01	1.765373378e-01	-9.416622820e-02	1.029157168e-08
1.435000000e-01	1.765375477e-01	-9.416623625e-02	1.567257714e-08
1.450000000e-01	1.765377072e-01	-9.416624237e-02	1.048801173e-09
1.460000000e-01	1.765378144e-01	-9.416624648e-02	1.040933884e-08
1.475000000e-01	1.765379765e-01	-9.416625269e-02	2.765265611e-09
1.480000000e-01	1.765380310e-01	-9.416625478e-02	7.130333139e-08
1.500000000e-01	1.765382505e-01	-9.416626320e-02	5.248720352e-08
1.505000000e-01	1.765383059e-01	-9.416626532e-02	2.538187354e-08
1.515000000e-01	1.765384171e-01	-9.416626959e-02	6.049936454e-09
1.525000000e-01	1.765385291e-01	-9.416627388e-02	2.896886379e-08
1.530000000e-01	1.765385854e-01	-9.416627604e-02	2.290350880e-08
1.555000000e-01	1.765388695e-01	-9.416628693e-02	4.312416034e-08
1.560000000e-01	1.765389269e-01	-9.416628913e-02	1.528630368e-08
1.580000000e-01	1.765391582e-01	-9.416629800e-02	2.387955179e-08
1.595000000e-01	1.765393337e-01	-9.416630473e-02	3.420359399e-08
1.610000000e-01	1.765395108e-01	-9.416631152e-02	1.308785677e-07
1.620000000e-01	1.765396298e-01	-9.416631608e-02	2.154432576e-07
1.625000000e-01	1.765396895e-01	-9.416631837e-02	1.730386916e-07
1.635000000e-01	1.765398096e-01	-9.416632298e-02	1.995303165e-07
1.640000000e-01	1.765398700e-01	-9.416632529e-02	5.732329469e-07
1.650000000e-01	1.765399911e-01	-9.416632994e-02	1.035196964e-07
1.690000000e-01	1.765404833e-01	-9.416634881e-02	9.265747922e-07
1.705000000e-01	1.765406709e-01	-9.416635600e-02	1.091844318e-06
1.720000000e-01	1.765408601e-01	-9.416636326e-02	1.007427268e-05
1.725000000e-01	1.765409236e-01	-9.416636569e-02	2.612329118e-05
1.745000000e-01	1.765411793e-01	-9.416637550e-02	7.517214171e-05
1.760000000e-01	1.765413729e-01	-9.416638292e-02	1.448010265e-01
1.765000000e-01	9.469084020e+00	-5.726027116e-01	1.998326743e-15
1.770000000e-01	9.469084934e+00	-5.725996010e-01	2.595211498e-15
1.775000000e-01	9.469085852e+00	-5.725964815e-01	1.765669358e-15
1.780000000e-01	9.469086771e+00	-5.725933533e-01	3.260746528e-15
1.785000000e-01	9.469087694e+00	-5.725902163e-01	1.607687045e-15
1.790000000e-01	9.469088619e+00	-5.725870705e-01	1.537998810e-15
1.795000000e-01	9.469089546e+00	-5.725839159e-01	1.447913652e-15
1.800000000e-01	9.469090477e+00	-5.725807525e-01	1.207607434e-15
1.805000000e-01	9.469091409e+00	-5.725775803e-01	2.105749588e-15
1.810000000e-01	9.469092345e+00	-5.725743994e-01	1.520900067e-15
1.815000000e-01	9.469093283e+00	-5.725712096e-01	2.386812840e-15
1.820000000e-01	9.469094223e+00	-5.725680110e-01	1.655756946e-15
1.825000000e-01	9.469095166e+00	-5.725648037e-01	1.508762866e-15
1.830000000e-01	9.469096112e+00	-5.725615875e-01	1.408451551e-15
1.835000000e-01	9.469097060e+00	-5.725583626e-01	1.557611673e-15
1.840000000e-01	9.469098011e+00	-5.725551289e-01	1.310194491e-15
1.845000000e-01	9.469098965e+00	-5.725518863e-01	1.447613960e-15
1.850000000e-01	9.469099921e+00	-5.725486350e-01	1.266024688e-15
1.855000000e-01	9.469100879e+00	-5.725453749e-01	7.710628002e-16
1.860000000e-01	9.469101841e+00	-5.725421060e-01	1.765663699e-15
1.865000000e-01	9.469102805e+00	-5.725388283e-01	1.625266239e-15
1.870000000e-01	9.469103771e+00	-5.725355418e-01	2.116015637e-15
1.875000000e-01	9.469104740e+00	-5.725322466e-01	3.139113656e-15
1.880000000e-01	9.469105712e+00	-5.725289425e-01	2.499290917e-15
1.885000000e-01	9.469106686e+00	-5.725256296e-01	1.112953335e-15
1.890000000e-01	9.469107663e+00	-5.725223080e-01	1.036939200e-15
1.895000000e-01	9.469108642e+00	-5.725189775e-01	1.461601831e-15
1.900000000e-01	9.469109624e+00	-5.725156383e-01	2.163077821e-15
1.905000000e-01	9.469110609e+00	-5.725122903e-01	2.325865496e-15
1.910000000e-01	9.469111596e+00	-5.725089334e-01	5.052039698e-16
1.915000000e-01	9.469112586e+00	-5.725055678e-01	1.501420895e-15
1.920000000e-01	9.469113578e+00	-5.725021934e-01	1.230264689e-15
1.925000000e-01	9.469114573e+00	-5.724988102e-01	3.614620715e-15
1.930000000e-01	9.469115571e+00	-5.724954182e-01	1.990708847e-15
1.935000000e-01	9.469116571e+00	-5.724920174e-01	1.629918047e-15
1.940000000e-01	9.469117573e+00	-5.724886079e-01	3.487757267e-15
1.945000000e-01	9.469118579e+00	-5.724851895e-01	2.814474093e-15
1.950000000e-01	9.469119587e+00	-5.724817624e-01	2.170523550e-15
1.955000000e-01	9.469120597e+00	-5.724783264e-01	7.712358137e-16
1.960000000e-01	9.469121610e+00	-5.724748817e-01	2.461603078e-15
1.965000000e-01	9.469122626e+00	-5.724714281e-01	2.074266111e-15
1.970000000e-01	9.469123644e+00	-5.724679658e-01	1.060890516e-15
1.975000000e-01	9.469124665e+00	-5.724644947e-01	1.695574006e-15
1.980000000e-01	9.469125689e+00	-5.724610148e-01	2.376445340e-15
1.985000000e-01	9.469126715e+00	-5.724575261e-01	2.523372235e-15
1.990000000e-01	9.469127743e+00	-5.724540286e-01	2.562221788e-15
1.995000000e-01	9.469128775e+00	-5.724505224e-01	2.582291450e-15
2.000000000e-01	9.469129808e+00	-5.724470073e-01	1.536142635e-15
2.005000000e-01	9.469130845e+00	-5.724434834e-01	1.388195576e-15
2.010000000e-01	9.469131884e+00	-5.724399508e-01	3.328956961e-15
2.015000000e-01	9.469132925e+00	-5.724364094e-01	1.360333084e-15
2.020000000e-01	9.469133970e+00	-5.724328591e-01	9.236967437e-16
2.025000000e-01	9.469135016e+00	-5.724293001e-01	1.610544633e-15
2.030000000e-01	9.469136066e+00	-5.724257323e-01	7.973580382e-16
2.035000000e-01	9.469137118e+00	-5.724221557e-01	1.426563213e-15
2.040000000e-01	9.469138172e+00	-5.724185703e-01	1.409023758e-15
2.045000000e-01	9.469139230e+00	-5.724149761e-01	1.687136939e-15
2.050000000e-01	9.469140289e+00	-5.724113732e-01	1.261257019e-15
2.055000000e-01	9.469141352e+00	-5.724077614e-01	1.038072803e-15
2.060000000e-01	9.469142417e+00	-5.724041409e-01	2.025834386e-15
2.065000000e-01	9.469143484e+00	-5.724005115e-01	7.043509875e-16
2.070000000e-01	9.469144554e+00	-5.723968734e-01	1.159122920e-15
2.075000000e-01	9.469145627e+00	-5.723932265e-01	1.346906899e-15
2.080000000e-01	9.469146702e+00	-5.723895708e-01	1.468435776e-15
2.085000000e-01	9.469147780e+00	-5.723859063e-01	9.065411354e-16
2.090000000e-01	9.469148861e+00	-5.723822330e-01	1.056227576e-15
2.095000000e-01	9.469149944e+00	-5.723785509e-01	1.483537962e-15
2.100000000e-01	9.469151029e+00	-5.723748600e-01	1.189043242e-15
2.105000000e-01	9.469152118e+00	-5.723711604e-01	1.644363727e-15
2.110000000e-01	9.469153209e+00	-5.723674519e-01	7.367097413e-16
2.115000000e-01	9.469154302e+00	-5.723637347e-01	1.813313615e-15
2.120000000e-01	9.469155398e+00	-5.723600087e-01	2.141477565e-15
2.125000000e-01	9.469156497e+00	-5.723562738e-01	2.647121559e-15
2.130000000e-01	9.469157598e+00	-5.723525302e-01	2.354663695e-15
2.135000000e-01	9.469158702e+00	-5.723487778e-01	1.304237716e-15
2.140000000e-01	9.469159808e+00	-5.723450167e-01	1.808156710e-15
2.145000000e-01	9.469160917e+00	-5.723412467e-01	2.241240973e-15
2.150000000e-01	9.469162029e+00	-5.723374679e-01	9.020658145e-16
2.155000000e-01	9.469163143e+00	-5.723336804e-01	7.127275271e-16
2.160000000e-01	9.469164260e+00	-5.723298840e-01	1.444266249e-15
2.165000000e-01	9.469165379e+00	-5.723260789e-01	1.603921034e-15
2.170000000e-01	9.469166501e+00	-5.723222650e-01	2.692764882e-15
2.175000000e-01	9.469167626e+00	-5.723184423e-01	5.663328250e-16
2.180000000e-01	9.469168753e+00	-5.723146108e-01	2.109391458e-15
2.185000000e-01	9.469169883e+00	-5.723107705e-01	1.353479657e-15
2.190000000e-01	9.469171015e+00	-5.723069214e-01	1.534869739e-15
2.195000000e-01	9.469172150e+00	-5.723030636e-01	1.506340025e-15
2.200000000e-01	9.469173288e+00	-5.722991969e-01	7.622259745e-16
2.205000000e-01	9.469174428e+00	-5.722953215e-01	1.511494055e-15
2.210000000e-01	9.469175571e+00	-5.722914373e-01	2.213502828e-15
2.215000000e-01	9.469176716e+00	-5.722875443e-01	1.064962253e-15
2.220000000e-01	9.469177864e+00	-5.722836425e-01	2.372022518e-15
2.225000000e-01	9.469179014e+00	-5.722797319e-01	8.411316076e-16
2.230000000e-01	9.469180168e+00	-5.722758125e-01	9.476743291e-16
2.235000000e-01	9.469181323e+00	-5.722718844e-01	1.222701504e-15
2.240000000e-01	9.469182482e+00	-5.722679474e-01	2.632812435e-15
