# R [micrones]     Omega/c [1/micrones]    Im(epsi1)     Eq(det).Opt det SIN kz, mu = 0.3 eV, Re(epsi1)=3.90, solve_det_sinkz_vs_R.py
5.000000000e-01	2.678461165e-01	-2.985471497e-02	3.796959520e-11
5.500000000e-01	2.554507467e-01	-2.924366288e-02	4.529409207e-11
6.000000000e-01	2.446277283e-01	-2.875593686e-02	1.333487621e-11
6.500000000e-01	2.350703717e-01	-2.836453806e-02	9.756958550e-12
7.000000000e-01	2.265496940e-01	-2.804979605e-02	2.170501879e-11
7.500000000e-01	2.188908094e-01	-2.779702537e-02	1.131285126e-11
8.000000000e-01	2.119575336e-01	-2.759503207e-02	3.930776282e-11
8.500000000e-01	2.056420255e-01	-2.743512953e-02	2.838033973e-11
9.000000000e-01	1.998576276e-01	-2.731047112e-02	8.145209783e-12
9.500000000e-01	1.945337996e-01	-2.721558614e-02	5.005811452e-11
1.000000000e+00	1.896124582e-01	-2.714605018e-02	9.584900367e-12
1.050000000e+00	1.850452844e-01	-2.709824626e-02	6.847908895e-12
1.100000000e+00	1.807917097e-01	-2.706918876e-02	8.900682037e-12
1.150000000e+00	1.768173872e-01	-2.705639174e-02	5.286165633e-12
1.200000000e+00	1.730930166e-01	-2.705776892e-02	1.335552009e-11
1.250000000e+00	1.695934290e-01	-2.707155681e-02	1.009886861e-11
1.300000000e+00	1.662968668e-01	-2.709625506e-02	3.160435643e-11
1.350000000e+00	1.631844115e-01	-2.713057944e-02	8.346314747e-12
1.400000000e+00	1.602395242e-01	-2.717342471e-02	7.805039685e-12
1.450000000e+00	1.574476745e-01	-2.722383476e-02	1.093154961e-11
1.500000000e+00	1.547960370e-01	-2.728097866e-02	1.235126934e-11
1.550000000e+00	1.522732427e-01	-2.734413105e-02	1.041900074e-11
1.600000000e+00	1.498691727e-01	-2.741265621e-02	1.660079014e-11
1.650000000e+00	1.475747872e-01	-2.748599487e-02	6.753958926e-12
1.700000000e+00	1.453819816e-01	-2.756365327e-02	1.255339370e-11
1.750000000e+00	1.432834658e-01	-2.764519405e-02	3.048419421e-11
1.800000000e+00	1.412726619e-01	-2.773022864e-02	1.064373119e-11
1.850000000e+00	1.393436173e-01	-2.781841078e-02	2.295222833e-11
1.900000000e+00	1.374909298e-01	-2.790943113e-02	4.822070933e-11
1.950000000e+00	1.357096845e-01	-2.800301258e-02	5.380339106e-12
2.000000000e+00	1.339953982e-01	-2.809890632e-02	1.484382364e-11
2.050000000e+00	1.323439721e-01	-2.819688846e-02	5.437137991e-12
2.100000000e+00	1.307516503e-01	-2.829675706e-02	1.024283337e-11
2.150000000e+00	1.292149837e-01	-2.839832967e-02	7.659162211e-12
2.200000000e+00	1.277307990e-01	-2.850144110e-02	9.364267935e-12
2.250000000e+00	1.262961702e-01	-2.860594151e-02	1.230916312e-11
2.300000000e+00	1.249083951e-01	-2.871169479e-02	6.446768742e-12
2.350000000e+00	1.235649731e-01	-2.881857710e-02	1.981330443e-11
2.400000000e+00	1.222635869e-01	-2.892647555e-02	7.958383203e-12
2.450000000e+00	1.210020851e-01	-2.903528712e-02	1.370913378e-11
2.500000000e+00	1.197784675e-01	-2.914491770e-02	1.514397321e-11
2.550000000e+00	1.185908715e-01	-2.925528113e-02	2.015424620e-11
2.600000000e+00	1.174375604e-01	-2.936629851e-02	4.009042931e-11
2.650000000e+00	1.163169124e-01	-2.947789745e-02	7.052947855e-12
2.700000000e+00	1.152274112e-01	-2.959001152e-02	1.068585706e-11
2.750000000e+00	1.141676373e-01	-2.970257963e-02	3.005533366e-11
2.800000000e+00	1.131362603e-01	-2.981554561e-02	1.438147309e-11
2.850000000e+00	1.121320314e-01	-2.992885772e-02	9.763354272e-12
2.900000000e+00	1.111537777e-01	-3.004246828e-02	7.940931321e-12
2.950000000e+00	1.102003959e-01	-3.015633333e-02	9.023978658e-12
3.000000000e+00	1.092708472e-01	-3.027041230e-02	1.056311122e-11
3.050000000e+00	1.083641526e-01	-3.038466769e-02	1.604008771e-11
3.100000000e+00	1.074793887e-01	-3.049906488e-02	9.726177753e-12
3.150000000e+00	1.066156833e-01	-3.061357185e-02	2.596791134e-11
3.200000000e+00	1.057722120e-01	-3.072815895e-02	9.368400929e-12
3.250000000e+00	1.049481950e-01	-3.084279876e-02	1.256913130e-11
3.300000000e+00	1.041428940e-01	-3.095746589e-02	2.216810437e-11
3.350000000e+00	1.033556092e-01	-3.107213680e-02	3.980478378e-11
3.400000000e+00	1.025856770e-01	-3.118678969e-02	1.760490742e-11
3.450000000e+00	1.018324676e-01	-3.130140435e-02	1.120333530e-11
3.500000000e+00	1.010953827e-01	-3.141596202e-02	5.472859868e-11
3.550000000e+00	1.003738534e-01	-3.153044535e-02	1.737199263e-11
3.600000000e+00	9.966733877e-02	-3.164483819e-02	6.415955621e-12
3.650000000e+00	9.897532374e-02	-3.175912560e-02	6.350541305e-12
3.700000000e+00	9.829731767e-02	-3.187329370e-02	1.371767388e-11
3.750000000e+00	9.763285285e-02	-3.198732962e-02	9.759087402e-12
3.800000000e+00	9.698148318e-02	-3.210122142e-02	9.690996678e-12
3.850000000e+00	9.634278284e-02	-3.221495803e-02	8.879656755e-12
3.900000000e+00	9.571634520e-02	-3.232852918e-02	2.406522565e-11
3.950000000e+00	9.510178163e-02	-3.244192536e-02	1.586042171e-11
4.000000000e+00	9.449872057e-02	-3.255513773e-02	1.055077400e-10
4.050000000e+00	9.390680653e-02	-3.266815812e-02	4.109905072e-12
4.100000000e+00	9.332569923e-02	-3.278097897e-02	2.210048321e-11
4.150000000e+00	9.275507275e-02	-3.289359327e-02	6.612781807e-12
4.200000000e+00	9.219461478e-02	-3.300599454e-02	1.022874075e-11
4.250000000e+00	9.164402589e-02	-3.311817680e-02	6.243639017e-12
4.300000000e+00	9.110301887e-02	-3.323013451e-02	1.019444493e-11
4.350000000e+00	9.057131806e-02	-3.334186258e-02	5.710381367e-12
4.400000000e+00	9.004865881e-02	-3.345335631e-02	6.969350519e-12
4.450000000e+00	8.953478686e-02	-3.356461137e-02	1.148140676e-11
4.500000000e+00	8.902945787e-02	-3.367562378e-02	1.200112933e-11
4.550000000e+00	8.853243693e-02	-3.378638990e-02	7.779652279e-12
4.600000000e+00	8.804349806e-02	-3.389690638e-02	9.068565856e-12
4.650000000e+00	8.756242379e-02	-3.400717019e-02	9.545902876e-12
4.700000000e+00	8.708900478e-02	-3.411717852e-02	2.124268851e-11
4.750000000e+00	8.662303940e-02	-3.422692884e-02	1.125643486e-11
4.800000000e+00	8.616433338e-02	-3.433641887e-02	1.146730847e-11
4.850000000e+00	8.571269947e-02	-3.444564652e-02	9.541614243e-12
4.900000000e+00	8.526795714e-02	-3.455460993e-02	2.574648120e-11
4.950000000e+00	8.482993222e-02	-3.466330743e-02	7.904157406e-12
5.000000000e+00	8.439845666e-02	-3.477173752e-02	1.389600443e-11
5.050000000e+00	8.397336823e-02	-3.487989888e-02	1.128074143e-11
5.100000000e+00	8.355451028e-02	-3.498779037e-02	1.537847203e-11
5.150000000e+00	8.314173150e-02	-3.509541097e-02	1.151302410e-11
5.200000000e+00	8.273488567e-02	-3.520275981e-02	9.513067320e-12
5.250000000e+00	8.233383144e-02	-3.530983617e-02	8.379917322e-12
5.300000000e+00	8.193843214e-02	-3.541663944e-02	1.881192463e-11
5.350000000e+00	8.154855558e-02	-3.552316912e-02	7.332640364e-12
5.400000000e+00	8.116407386e-02	-3.562942483e-02	1.073593761e-11
5.450000000e+00	8.078486319e-02	-3.573540629e-02	2.369368462e-11
5.500000000e+00	8.041080372e-02	-3.584111334e-02	1.469394460e-11
5.550000000e+00	8.004177937e-02	-3.594654586e-02	1.040631612e-11
5.600000000e+00	7.967767772e-02	-3.605170387e-02	8.903131339e-12
5.650000000e+00	7.931838982e-02	-3.615658742e-02	8.539190896e-12
5.700000000e+00	7.896381006e-02	-3.626119669e-02	7.376524063e-12
5.750000000e+00	7.861383607e-02	-3.636553187e-02	6.188230475e-11
5.800000000e+00	7.826836855e-02	-3.646959327e-02	1.655876231e-11
5.850000000e+00	7.792731119e-02	-3.657338122e-02	4.872953484e-12
5.900000000e+00	7.759057053e-02	-3.667689614e-02	1.139301430e-11
5.950000000e+00	7.725805585e-02	-3.678013848e-02	1.002345830e-11
6.000000000e+00	7.692967911e-02	-3.688310876e-02	1.995192722e-11
6.050000000e+00	7.660535479e-02	-3.698580754e-02	7.555960752e-12
6.100000000e+00	7.628499983e-02	-3.708823542e-02	8.848407112e-12
6.150000000e+00	7.596853356e-02	-3.719039304e-02	1.125854725e-11
6.200000000e+00	7.565587756e-02	-3.729228109e-02	2.205239635e-11
6.250000000e+00	7.534695562e-02	-3.739390029e-02	1.105473946e-11
6.300000000e+00	7.504169365e-02	-3.749525140e-02	3.367195055e-11
6.350000000e+00	7.474001960e-02	-3.759633520e-02	2.258439072e-11
6.400000000e+00	7.444186338e-02	-3.769715251e-02	3.237291696e-11
6.450000000e+00	7.414715684e-02	-3.779770417e-02	2.952390576e-11
6.500000000e+00	7.385583362e-02	-3.789799106e-02	1.480512449e-11
6.550000000e+00	7.356782916e-02	-3.799801406e-02	1.098091587e-11
6.600000000e+00	7.328308062e-02	-3.809777409e-02	2.275830636e-11
6.650000000e+00	7.300152679e-02	-3.819727209e-02	6.315947783e-12
6.700000000e+00	7.272310809e-02	-3.829650900e-02	6.152623412e-12
6.750000000e+00	7.244776645e-02	-3.839548582e-02	1.817026580e-11
6.800000000e+00	7.217544534e-02	-3.849420351e-02	7.552328121e-12
6.850000000e+00	7.190608962e-02	-3.859266310e-02	1.394831089e-11
6.900000000e+00	7.163964561e-02	-3.869086558e-02	6.103690509e-11
6.950000000e+00	7.137606094e-02	-3.878881200e-02	1.212010423e-11
7.000000000e+00	7.111528455e-02	-3.888650339e-02	7.427527557e-12
7.050000000e+00	7.085726668e-02	-3.898394081e-02	1.136907359e-11
7.100000000e+00	7.060195877e-02	-3.908112531e-02	1.092706443e-11
7.150000000e+00	7.034931346e-02	-3.917805797e-02	7.948502968e-12
7.200000000e+00	7.009928453e-02	-3.927473987e-02	1.983906459e-11
7.250000000e+00	6.985182689e-02	-3.937117207e-02	2.076214115e-11
7.300000000e+00	6.960689653e-02	-3.946735568e-02	1.845323397e-11
7.350000000e+00	6.936445049e-02	-3.956329180e-02	7.669466943e-12
7.400000000e+00	6.912444681e-02	-3.965898151e-02	2.196122258e-11
7.450000000e+00	6.888684453e-02	-3.975442593e-02	2.261469734e-11
7.500000000e+00	6.865160365e-02	-3.984962616e-02	1.927595067e-11
7.550000000e+00	6.841868508e-02	-3.994458331e-02	4.764497185e-12
7.600000000e+00	6.818805066e-02	-4.003929849e-02	1.648581882e-11
7.650000000e+00	6.795966307e-02	-4.013377282e-02	7.550089450e-12
7.700000000e+00	6.773348586e-02	-4.022800741e-02	1.374521207e-11
7.750000000e+00	6.750948340e-02	-4.032200337e-02	8.086131060e-12
7.800000000e+00	6.728762086e-02	-4.041576184e-02	2.933903021e-11
7.850000000e+00	6.706786417e-02	-4.050928390e-02	1.204174547e-11
7.900000000e+00	6.685018004e-02	-4.060257070e-02	9.078728855e-12
7.950000000e+00	6.663453590e-02	-4.069562333e-02	1.253714737e-11
8.000000000e+00	6.642089989e-02	-4.078844291e-02	8.368340820e-12
8.050000000e+00	6.620924086e-02	-4.088103056e-02	5.243348273e-12
8.100000000e+00	6.599952831e-02	-4.097338738e-02	1.009231991e-11
8.150000000e+00	6.579173241e-02	-4.106551448e-02	1.062449083e-11
8.200000000e+00	6.558582396e-02	-4.115741296e-02	3.829860059e-11
8.250000000e+00	6.538177439e-02	-4.124908394e-02	1.900579333e-11
8.300000000e+00	6.517955571e-02	-4.134052850e-02	2.590153744e-11
8.350000000e+00	6.497914055e-02	-4.143174776e-02	1.910709604e-11
8.400000000e+00	6.478050208e-02	-4.152274278e-02	1.290065947e-11
8.450000000e+00	6.458361405e-02	-4.161351469e-02	2.290175663e-11
8.500000000e+00	6.438845073e-02	-4.170406454e-02	1.292982842e-11
8.550000000e+00	6.419498692e-02	-4.179439343e-02	1.900238456e-11
8.600000000e+00	6.400319795e-02	-4.188450244e-02	2.332992831e-11
8.650000000e+00	6.381305963e-02	-4.197439263e-02	1.872320240e-11
8.700000000e+00	6.362454826e-02	-4.206406509e-02	9.211580797e-12
8.750000000e+00	6.343764063e-02	-4.215352087e-02	6.081920399e-12
8.800000000e+00	6.325231398e-02	-4.224276104e-02	8.000527762e-12
8.850000000e+00	6.306854599e-02	-4.233178664e-02	8.493348794e-12
8.900000000e+00	6.288631480e-02	-4.242059874e-02	1.400470839e-11
8.950000000e+00	6.270559896e-02	-4.250919837e-02	1.000009719e-11
9.000000000e+00	6.252637744e-02	-4.259758658e-02	1.994038927e-11
9.050000000e+00	6.234862963e-02	-4.268576441e-02	1.998520401e-11
9.100000000e+00	6.217233530e-02	-4.277373288e-02	1.669366022e-11
9.150000000e+00	6.199747462e-02	-4.286149303e-02	2.516503357e-11
9.200000000e+00	6.182402813e-02	-4.294904587e-02	1.956167901e-11
9.250000000e+00	6.165197673e-02	-4.303639241e-02	1.303520096e-11
9.300000000e+00	6.148130171e-02	-4.312353367e-02	1.422941617e-11
9.350000000e+00	6.131198466e-02	-4.321047065e-02	1.025544483e-11
9.400000000e+00	6.114400756e-02	-4.329720434e-02	1.652886210e-11
9.450000000e+00	6.097735271e-02	-4.338373575e-02	1.812101071e-11
9.500000000e+00	6.081200272e-02	-4.347006585e-02	1.006876680e-11
9.550000000e+00	6.064794053e-02	-4.355619564e-02	1.067566130e-11
9.600000000e+00	6.048514940e-02	-4.364212608e-02	7.190960506e-12
9.650000000e+00	6.032361289e-02	-4.372785814e-02	3.116055847e-11
9.700000000e+00	6.016331483e-02	-4.381339280e-02	8.995292880e-12
9.750000000e+00	6.000423938e-02	-4.389873100e-02	7.925783846e-12
9.800000000e+00	5.984637096e-02	-4.398387371e-02	9.743825102e-12
9.850000000e+00	5.968969426e-02	-4.406882187e-02	1.156322724e-11
9.900000000e+00	5.953419428e-02	-4.415357641e-02	2.432764722e-11
9.950000000e+00	5.937985622e-02	-4.423813829e-02	1.721076113e-11
1.000000000e+01	5.922666561e-02	-4.432250842e-02	1.824682498e-11
1.005000000e+01	5.907460817e-02	-4.440668773e-02	1.768741476e-11
1.010000000e+01	5.892366991e-02	-4.449067715e-02	1.109857840e-11
1.015000000e+01	5.877383705e-02	-4.457447757e-02	1.000639974e-11
1.020000000e+01	5.862509608e-02	-4.465808992e-02	1.027623324e-11
1.025000000e+01	5.847743370e-02	-4.474151508e-02	9.006330678e-12
1.030000000e+01	5.833083682e-02	-4.482475396e-02	9.980407757e-12
1.035000000e+01	5.818529261e-02	-4.490780745e-02	3.868624015e-11
1.040000000e+01	5.804078843e-02	-4.499067643e-02	1.400449804e-11
1.045000000e+01	5.789731185e-02	-4.507336177e-02	1.230744494e-11
1.050000000e+01	5.775485067e-02	-4.515586436e-02	1.110107330e-11
1.055000000e+01	5.761339286e-02	-4.523818505e-02	2.241360335e-11
1.060000000e+01	5.747292661e-02	-4.532032472e-02	3.723832731e-11
1.065000000e+01	5.733344030e-02	-4.540228421e-02	6.601038819e-12
1.070000000e+01	5.719492251e-02	-4.548406437e-02	1.165073412e-11
1.075000000e+01	5.705736198e-02	-4.556566606e-02	1.080524808e-11
1.080000000e+01	5.692074766e-02	-4.564709010e-02	1.687469781e-11
1.085000000e+01	5.678506866e-02	-4.572833734e-02	1.271975976e-11
1.090000000e+01	5.665031427e-02	-4.580940859e-02	1.537700669e-11
1.095000000e+01	5.651647395e-02	-4.589030469e-02	5.812954228e-12
1.100000000e+01	5.638353733e-02	-4.597102644e-02	2.316130821e-11
1.105000000e+01	5.625149421e-02	-4.605157468e-02	1.691614187e-11
1.110000000e+01	5.612033454e-02	-4.613195018e-02	1.349358535e-11
1.115000000e+01	5.599004844e-02	-4.621215376e-02	2.422273379e-11
1.120000000e+01	5.586062616e-02	-4.629218622e-02	1.158640008e-11
1.125000000e+01	5.573205814e-02	-4.637204834e-02	1.155363997e-11
1.130000000e+01	5.560433492e-02	-4.645174091e-02	7.164937032e-12
1.135000000e+01	5.547744724e-02	-4.653126471e-02	1.428148539e-11
1.140000000e+01	5.535138593e-02	-4.661062050e-02	6.531598068e-12
1.145000000e+01	5.522614200e-02	-4.668980907e-02	3.158558135e-11
1.150000000e+01	5.510170657e-02	-4.676883117e-02	8.171054954e-12
1.155000000e+01	5.497807091e-02	-4.684768757e-02	1.103799757e-11
1.160000000e+01	5.485522643e-02	-4.692637902e-02	1.829345305e-11
1.165000000e+01	5.473316464e-02	-4.700490626e-02	1.150104909e-11
1.170000000e+01	5.461187719e-02	-4.708327003e-02	3.535673549e-11
1.175000000e+01	5.449135587e-02	-4.716147110e-02	3.626536828e-11
1.180000000e+01	5.437159258e-02	-4.723951017e-02	1.275593544e-11
1.185000000e+01	5.425257933e-02	-4.731738797e-02	1.578436993e-11
1.190000000e+01	5.413430826e-02	-4.739510525e-02	1.259023612e-11
1.195000000e+01	5.401677162e-02	-4.747266271e-02	1.473045810e-11
1.200000000e+01	5.389996177e-02	-4.755006106e-02	2.465428433e-11
1.205000000e+01	5.378387120e-02	-4.762730102e-02	6.847877997e-12
1.210000000e+01	5.366849248e-02	-4.770438329e-02	8.755239766e-12
1.215000000e+01	5.355381830e-02	-4.778130858e-02	1.106659006e-11
1.220000000e+01	5.343984147e-02	-4.785807757e-02	1.484769484e-11
1.225000000e+01	5.332655487e-02	-4.793469094e-02	3.425807795e-11
1.230000000e+01	5.321395151e-02	-4.801114941e-02	5.648732145e-12
1.235000000e+01	5.310202449e-02	-4.808745364e-02	8.495857198e-12
1.240000000e+01	5.299076700e-02	-4.816360430e-02	2.015530547e-11
1.245000000e+01	5.288017234e-02	-4.823960208e-02	1.605739691e-11
1.250000000e+01	5.277023389e-02	-4.831544764e-02	1.147105730e-11
1.255000000e+01	5.266094512e-02	-4.839114164e-02	1.202483875e-11
1.260000000e+01	5.255229961e-02	-4.846668473e-02	1.193878232e-11
1.265000000e+01	5.244429101e-02	-4.854207759e-02	6.099838037e-12
1.270000000e+01	5.233691307e-02	-4.861732084e-02	5.513593541e-11
1.275000000e+01	5.223015962e-02	-4.869241515e-02	6.390321616e-12
1.280000000e+01	5.212402457e-02	-4.876736115e-02	1.032621032e-11
1.285000000e+01	5.201850191e-02	-4.884215947e-02	1.140994471e-11
1.290000000e+01	5.191358574e-02	-4.891681076e-02	1.104504354e-11
1.295000000e+01	5.180927020e-02	-4.899131563e-02	1.293226747e-11
1.300000000e+01	5.170554954e-02	-4.906567472e-02	1.420935373e-11
1.305000000e+01	5.160241807e-02	-4.913988864e-02	2.083102625e-11
1.310000000e+01	5.149987017e-02	-4.921395801e-02	1.333025400e-11
1.315000000e+01	5.139790032e-02	-4.928788344e-02	1.022384197e-11
1.320000000e+01	5.129650305e-02	-4.936166554e-02	3.544410270e-11
1.325000000e+01	5.119567298e-02	-4.943530492e-02	1.017492392e-11
1.330000000e+01	5.109540478e-02	-4.950880216e-02	8.226537337e-12
1.335000000e+01	5.099569321e-02	-4.958215788e-02	1.996365345e-11
1.340000000e+01	5.089653308e-02	-4.965537266e-02	9.770554855e-12
1.345000000e+01	5.079791929e-02	-4.972844708e-02	1.418089549e-11
1.350000000e+01	5.069984678e-02	-4.980138174e-02	9.225218343e-12
1.355000000e+01	5.060231058e-02	-4.987417722e-02	2.319682449e-11
1.360000000e+01	5.050530576e-02	-4.994683408e-02	1.006786404e-11
1.365000000e+01	5.040882748e-02	-5.001935291e-02	1.049247358e-11
1.370000000e+01	5.031287093e-02	-5.009173427e-02	1.311861778e-11
1.375000000e+01	5.021743140e-02	-5.016397873e-02	1.372515410e-11
1.380000000e+01	5.012250420e-02	-5.023608685e-02	1.899362839e-11
1.385000000e+01	5.002808472e-02	-5.030805919e-02	1.910982707e-11
1.390000000e+01	4.993416842e-02	-5.037989630e-02	1.236091002e-11
1.395000000e+01	4.984075078e-02	-5.045159872e-02	4.848790667e-11
1.400000000e+01	4.974782738e-02	-5.052316704e-02	1.909949143e-11
1.405000000e+01	4.965539382e-02	-5.059460176e-02	9.928882221e-12
1.410000000e+01	4.956344578e-02	-5.066590343e-02	1.086526387e-11
1.415000000e+01	4.947197897e-02	-5.073707260e-02	2.353399395e-11
1.420000000e+01	4.938098916e-02	-5.080810979e-02	8.278399322e-12
1.425000000e+01	4.929047220e-02	-5.087901554e-02	8.350540755e-12
1.430000000e+01	4.920042395e-02	-5.094979037e-02	2.672015839e-11
1.435000000e+01	4.911084033e-02	-5.102043482e-02	2.260621457e-11
1.440000000e+01	4.902171734e-02	-5.109094938e-02	1.556653401e-11
1.445000000e+01	4.893305099e-02	-5.116133458e-02	1.689470565e-11
1.450000000e+01	4.884483736e-02	-5.123159095e-02	9.037046624e-12
1.455000000e+01	4.875707257e-02	-5.130171897e-02	8.450797556e-12
1.460000000e+01	4.866975278e-02	-5.137171917e-02	1.152928619e-11
1.465000000e+01	4.858287422e-02	-5.144159205e-02	1.410694988e-11
1.470000000e+01	4.849643313e-02	-5.151133810e-02	5.546101654e-12
1.475000000e+01	4.841042582e-02	-5.158095783e-02	1.444260097e-11
1.480000000e+01	4.832484864e-02	-5.165045172e-02	8.105483022e-12
1.485000000e+01	4.823969797e-02	-5.171982028e-02	6.493565909e-12
1.490000000e+01	4.815497025e-02	-5.178906398e-02	8.621478438e-12
1.495000000e+01	4.807066196e-02	-5.185818331e-02	1.594158324e-11
1.500000000e+01	4.798676959e-02	-5.192717876e-02	1.598778134e-11
1.505000000e+01	4.790328972e-02	-5.199605080e-02	2.233100158e-11
1.510000000e+01	4.782021894e-02	-5.206479991e-02	1.398000654e-11
1.515000000e+01	4.773755387e-02	-5.213342656e-02	4.001384363e-11
1.520000000e+01	4.765529120e-02	-5.220193122e-02	1.414681952e-11
1.525000000e+01	4.757342763e-02	-5.227031437e-02	7.462560826e-12
1.530000000e+01	4.749195992e-02	-5.233857646e-02	1.099703608e-11
1.535000000e+01	4.741088484e-02	-5.240671795e-02	1.069920506e-11
1.540000000e+01	4.733019922e-02	-5.247473930e-02	2.357052328e-11
1.545000000e+01	4.724989992e-02	-5.254264098e-02	9.766718716e-12
1.550000000e+01	4.716998384e-02	-5.261042343e-02	1.586902763e-11
1.555000000e+01	4.709044789e-02	-5.267808710e-02	1.357931459e-11
1.560000000e+01	4.701128905e-02	-5.274563244e-02	9.980895262e-12
1.565000000e+01	4.693250431e-02	-5.281305989e-02	1.361460723e-11
1.570000000e+01	4.685409070e-02	-5.288036991e-02	2.949276170e-11
