# R [micrones]     Omega/c [1/micrones]    Im(epsi1)     Eq(det).Opt det SIN kz, mu = 0.3 eV, Re(epsi1)=3.90, solve_det_sinkz_vs_R.py
5.000000000e-01	1.896417113e-01	-2.718569244e-02	1.138104641e-11
5.500000000e-01	1.808223906e-01	-2.711423360e-02	1.674683704e-11
6.000000000e-01	1.731250582e-01	-2.710856573e-02	8.029129921e-12
6.500000000e-01	1.663302102e-01	-2.715315294e-02	1.374747185e-11
7.000000000e-01	1.602741174e-01	-2.723677213e-02	1.028462165e-11
7.500000000e-01	1.548318335e-01	-2.735112324e-02	5.920546065e-12
8.000000000e-01	1.499061308e-01	-2.748994454e-02	9.102280289e-12
8.500000000e-01	1.454200633e-01	-2.764843079e-02	8.521330864e-12
9.000000000e-01	1.413118329e-01	-2.782283957e-02	1.436941756e-11
9.500000000e-01	1.375311584e-01	-2.801021842e-02	8.333833346e-12
1.000000000e+00	1.340366554e-01	-2.820821157e-02	2.316380213e-11
1.050000000e+00	1.307939091e-01	-2.841492052e-02	7.482608925e-12
1.100000000e+00	1.277740346e-01	-2.862880165e-02	1.295871619e-11
1.150000000e+00	1.249525842e-01	-2.884858992e-02	1.613328768e-11
1.200000000e+00	1.223087079e-01	-2.907324134e-02	1.393205627e-11
1.250000000e+00	1.198245001e-01	-2.930188886e-02	4.198671389e-11
1.300000000e+00	1.174844856e-01	-2.953380833e-02	6.612122767e-12
1.350000000e+00	1.152752110e-01	-2.976839190e-02	1.060405623e-11
1.400000000e+00	1.131849178e-01	-3.000512706e-02	1.343403563e-11
1.450000000e+00	1.112032770e-01	-3.024357993e-02	1.660363293e-11
1.500000000e+00	1.093211731e-01	-3.048338187e-02	8.021269520e-12
1.550000000e+00	1.075305270e-01	-3.072421875e-02	8.606208577e-12
1.600000000e+00	1.058241489e-01	-3.096582211e-02	1.316427920e-11
1.650000000e+00	1.041956166e-01	-3.120796200e-02	3.488731698e-11
1.700000000e+00	1.026391730e-01	-3.145044102e-02	6.539233521e-12
1.750000000e+00	1.011496401e-01	-3.169308954e-02	6.186409560e-12
1.800000000e+00	9.972234651e-02	-3.193576150e-02	8.995178528e-12
1.850000000e+00	9.835306490e-02	-3.217833109e-02	3.529923851e-11
1.900000000e+00	9.703795957e-02	-3.242068986e-02	2.026259468e-11
1.950000000e+00	9.577354085e-02	-3.266274434e-02	3.448359135e-11
2.000000000e+00	9.455662599e-02	-3.290441396e-02	1.081119553e-11
2.050000000e+00	9.338430528e-02	-3.314562935e-02	7.984234548e-12
2.100000000e+00	9.225391270e-02	-3.338633086e-02	1.121975067e-11
2.150000000e+00	9.116300021e-02	-3.362646727e-02	1.812494428e-11
2.200000000e+00	9.010931544e-02	-3.386599473e-02	1.064990698e-11
2.250000000e+00	8.909078196e-02	-3.410487586e-02	9.812280609e-12
2.300000000e+00	8.810548204e-02	-3.434307883e-02	1.114748395e-11
2.350000000e+00	8.715164135e-02	-3.458057681e-02	1.340801526e-11
2.400000000e+00	8.622761549e-02	-3.481734723e-02	7.409243988e-12
2.450000000e+00	8.533187799e-02	-3.505337137e-02	2.094530567e-11
2.500000000e+00	8.446300964e-02	-3.528863380e-02	1.272558321e-11
2.550000000e+00	8.361968902e-02	-3.552312206e-02	1.620142302e-11
2.600000000e+00	8.280068399e-02	-3.575682624e-02	7.994466487e-12
2.650000000e+00	8.200484406e-02	-3.598973873e-02	3.083376224e-11
2.700000000e+00	8.123109358e-02	-3.622185393e-02	1.591088134e-11
2.750000000e+00	8.047842559e-02	-3.645316798e-02	5.294181620e-12
2.800000000e+00	7.974589631e-02	-3.668367861e-02	3.552839506e-11
2.850000000e+00	7.903262005e-02	-3.691338488e-02	5.176918980e-12
2.900000000e+00	7.833776480e-02	-3.714228712e-02	1.199701678e-11
2.950000000e+00	7.766054802e-02	-3.737038666e-02	7.825186814e-12
3.000000000e+00	7.700023299e-02	-3.759768580e-02	9.869181525e-12
3.050000000e+00	7.635612538e-02	-3.782418767e-02	2.256958273e-11
3.100000000e+00	7.572757016e-02	-3.804989611e-02	1.377871406e-11
3.150000000e+00	7.511394882e-02	-3.827481556e-02	2.993604157e-11
3.200000000e+00	7.451467676e-02	-3.849895106e-02	1.381668374e-11
3.250000000e+00	7.392920096e-02	-3.872230811e-02	4.364466559e-11
3.300000000e+00	7.335699778e-02	-3.894489261e-02	1.123925484e-11
3.350000000e+00	7.279757104e-02	-3.916671085e-02	1.360004703e-11
3.400000000e+00	7.225045014e-02	-3.938776940e-02	1.316962787e-11
3.450000000e+00	7.171518843e-02	-3.960807511e-02	1.131596884e-11
3.500000000e+00	7.119136164e-02	-3.982763505e-02	9.078639335e-12
3.550000000e+00	7.067856648e-02	-4.004645648e-02	9.597092585e-12
3.600000000e+00	7.017641929e-02	-4.026454681e-02	2.308639066e-11
3.650000000e+00	6.968455486e-02	-4.048191356e-02	2.407734431e-11
3.700000000e+00	6.920262530e-02	-4.069856442e-02	1.363699807e-11
3.750000000e+00	6.873029899e-02	-4.091450707e-02	1.366196704e-11
3.800000000e+00	6.826725959e-02	-4.112974929e-02	1.358841395e-11
3.850000000e+00	6.781320522e-02	-4.134429892e-02	1.716839983e-11
3.900000000e+00	6.736784753e-02	-4.155816379e-02	1.306071440e-11
3.950000000e+00	6.693091099e-02	-4.177135175e-02	9.587343523e-12
4.000000000e+00	6.650213216e-02	-4.198387064e-02	8.862401260e-12
4.050000000e+00	6.608125898e-02	-4.219572831e-02	1.263107338e-11
4.100000000e+00	6.566805019e-02	-4.240693255e-02	1.489942507e-11
4.150000000e+00	6.526227472e-02	-4.261749114e-02	1.306037751e-11
4.200000000e+00	6.486371115e-02	-4.282741181e-02	7.580156109e-12
4.250000000e+00	6.447214717e-02	-4.303670224e-02	1.462662826e-11
4.300000000e+00	6.408737916e-02	-4.324537006e-02	8.174769426e-12
4.350000000e+00	6.370921169e-02	-4.345342283e-02	9.895363619e-12
4.400000000e+00	6.333745711e-02	-4.366086805e-02	1.406771696e-11
4.450000000e+00	6.297193517e-02	-4.386771314e-02	1.324152209e-11
4.500000000e+00	6.261247264e-02	-4.407396547e-02	1.377663911e-11
4.550000000e+00	6.225890297e-02	-4.427963231e-02	1.447692239e-11
4.600000000e+00	6.191106595e-02	-4.448472086e-02	8.862531821e-12
4.650000000e+00	6.156880740e-02	-4.468923824e-02	9.521148382e-12
4.700000000e+00	6.123197891e-02	-4.489319149e-02	1.418892136e-11
4.750000000e+00	6.090043753e-02	-4.509658754e-02	7.548018879e-12
4.800000000e+00	6.057404553e-02	-4.529943328e-02	1.566932720e-11
4.850000000e+00	6.025267017e-02	-4.550173547e-02	1.090104011e-11
4.900000000e+00	5.993618344e-02	-4.570350079e-02	1.145717874e-11
4.950000000e+00	5.962446188e-02	-4.590473586e-02	9.345759751e-12
5.000000000e+00	5.931738633e-02	-4.610544718e-02	5.706960164e-12
5.050000000e+00	5.901484180e-02	-4.630564117e-02	1.124036922e-11
5.100000000e+00	5.871671723e-02	-4.650532418e-02	9.578794999e-12
5.150000000e+00	5.842290533e-02	-4.670450242e-02	1.296311239e-11
5.200000000e+00	5.813330244e-02	-4.690318208e-02	9.300573899e-12
5.250000000e+00	5.784780837e-02	-4.710136921e-02	1.644379001e-11
5.300000000e+00	5.756632621e-02	-4.729906979e-02	9.548965505e-12
5.350000000e+00	5.728876225e-02	-4.749628972e-02	8.921762726e-12
5.400000000e+00	5.701502581e-02	-4.769303480e-02	1.387247457e-11
5.450000000e+00	5.674502913e-02	-4.788931074e-02	1.234440508e-11
5.500000000e+00	5.647868724e-02	-4.808512319e-02	1.043189790e-11
5.550000000e+00	5.621591785e-02	-4.828047770e-02	1.349321336e-11
5.600000000e+00	5.595664126e-02	-4.847537972e-02	5.334313290e-12
5.650000000e+00	5.570078022e-02	-4.866983465e-02	1.166717452e-11
5.700000000e+00	5.544825986e-02	-4.886384779e-02	1.184659556e-11
5.750000000e+00	5.519900760e-02	-4.905742435e-02	6.227878093e-12
5.800000000e+00	5.495295305e-02	-4.925056948e-02	7.000611511e-12
5.850000000e+00	5.471002792e-02	-4.944328825e-02	2.079855150e-11
5.900000000e+00	5.447016594e-02	-4.963558564e-02	3.528939776e-12
5.950000000e+00	5.423330282e-02	-4.982746654e-02	1.604425464e-11
6.000000000e+00	5.399937612e-02	-5.001893582e-02	1.023637981e-11
6.050000000e+00	5.376832521e-02	-5.020999821e-02	1.500777767e-11
6.100000000e+00	5.354009122e-02	-5.040065840e-02	3.112954554e-11
6.150000000e+00	5.331461693e-02	-5.059092100e-02	1.346251445e-11
6.200000000e+00	5.309184676e-02	-5.078079057e-02	5.487362517e-12
6.250000000e+00	5.287172666e-02	-5.097027155e-02	9.676273258e-12
6.300000000e+00	5.265420412e-02	-5.115936836e-02	1.671694350e-11
6.350000000e+00	5.243922804e-02	-5.134808534e-02	8.923783306e-12
6.400000000e+00	5.222674874e-02	-5.153642674e-02	8.676125112e-12
6.450000000e+00	5.201671789e-02	-5.172439677e-02	9.485114593e-12
6.500000000e+00	5.180908845e-02	-5.191199955e-02	7.193517134e-12
6.550000000e+00	5.160381465e-02	-5.209923916e-02	1.238297380e-11
6.600000000e+00	5.140085192e-02	-5.228611962e-02	2.200510029e-11
6.650000000e+00	5.120015687e-02	-5.247264485e-02	7.975845956e-12
6.700000000e+00	5.100168725e-02	-5.265881875e-02	1.895910381e-11
6.750000000e+00	5.080540190e-02	-5.284464514e-02	1.159672588e-11
6.800000000e+00	5.061126072e-02	-5.303012779e-02	1.126262375e-11
6.850000000e+00	5.041922463e-02	-5.321527041e-02	1.884351898e-11
6.900000000e+00	5.022925556e-02	-5.340007663e-02	9.673290784e-12
6.950000000e+00	5.004131637e-02	-5.358455006e-02	7.172931470e-12
7.000000000e+00	4.985537088e-02	-5.376869424e-02	1.145232313e-11
7.050000000e+00	4.967138379e-02	-5.395251264e-02	9.030980405e-12
7.100000000e+00	4.948932066e-02	-5.413600870e-02	5.765414690e-12
7.150000000e+00	4.930914793e-02	-5.431918579e-02	6.136817803e-12
7.200000000e+00	4.913083281e-02	-5.450204725e-02	4.268848520e-12
7.250000000e+00	4.895434334e-02	-5.468459635e-02	7.060377425e-12
7.300000000e+00	4.877964830e-02	-5.486683630e-02	6.959125941e-12
7.350000000e+00	4.860671724e-02	-5.504877030e-02	1.658862877e-11
7.400000000e+00	4.843552040e-02	-5.523040146e-02	7.986731985e-12
7.450000000e+00	4.826602873e-02	-5.541173286e-02	1.059968001e-11
7.500000000e+00	4.809821388e-02	-5.559276754e-02	8.534650710e-12
7.550000000e+00	4.793204813e-02	-5.577350849e-02	1.015054267e-11
7.600000000e+00	4.776750440e-02	-5.595395865e-02	6.509895897e-12
7.650000000e+00	4.760455625e-02	-5.613412091e-02	1.305089087e-11
7.700000000e+00	4.744317782e-02	-5.631399812e-02	5.412198265e-12
7.750000000e+00	4.728334384e-02	-5.649359311e-02	1.022030170e-11
7.800000000e+00	4.712502962e-02	-5.667290863e-02	7.837715815e-12
7.850000000e+00	4.696821100e-02	-5.685194742e-02	1.207124037e-11
7.900000000e+00	4.681286436e-02	-5.703071216e-02	1.208994883e-11
7.950000000e+00	4.665896662e-02	-5.720920549e-02	1.029355844e-11
8.000000000e+00	4.650649518e-02	-5.738743003e-02	7.708715268e-12
8.050000000e+00	4.635542793e-02	-5.756538833e-02	1.318601112e-11
8.100000000e+00	4.620574327e-02	-5.774308294e-02	1.642345523e-11
8.150000000e+00	4.605742003e-02	-5.792051633e-02	1.241340683e-11
8.200000000e+00	4.591043751e-02	-5.809769097e-02	1.341739595e-11
8.250000000e+00	4.576477543e-02	-5.827460928e-02	2.514543915e-11
8.300000000e+00	4.562041397e-02	-5.845127363e-02	9.015620334e-12
8.350000000e+00	4.547733369e-02	-5.862768637e-02	1.336356942e-11
8.400000000e+00	4.533551557e-02	-5.880384982e-02	1.067891449e-11
8.450000000e+00	4.519494100e-02	-5.897976626e-02	2.923032398e-11
8.500000000e+00	4.505559173e-02	-5.915543792e-02	7.988758802e-12
8.550000000e+00	4.491744988e-02	-5.933086703e-02	8.613309117e-12
8.600000000e+00	4.478049796e-02	-5.950605576e-02	1.019065093e-11
8.650000000e+00	4.464471882e-02	-5.968100626e-02	1.116194128e-11
8.700000000e+00	4.451009564e-02	-5.985572064e-02	8.892408450e-12
8.750000000e+00	4.437661195e-02	-6.003020100e-02	1.151218795e-11
8.800000000e+00	4.424425163e-02	-6.020444939e-02	1.010508579e-11
8.850000000e+00	4.411299883e-02	-6.037846783e-02	6.199700517e-12
8.900000000e+00	4.398283805e-02	-6.055225833e-02	8.346456120e-12
8.950000000e+00	4.385375408e-02	-6.072582283e-02	1.756300622e-11
9.000000000e+00	4.372573200e-02	-6.089916330e-02	1.290873713e-11
9.050000000e+00	4.359875720e-02	-6.107228164e-02	8.035770658e-12
9.100000000e+00	4.347281532e-02	-6.124517972e-02	8.677444754e-12
9.150000000e+00	4.334789229e-02	-6.141785942e-02	1.148887685e-11
9.200000000e+00	4.322397432e-02	-6.159032255e-02	1.107862349e-11
9.250000000e+00	4.310104785e-02	-6.176257093e-02	9.070408701e-12
9.300000000e+00	4.297909961e-02	-6.193460633e-02	1.086310335e-11
9.350000000e+00	4.285811656e-02	-6.210643050e-02	1.095106712e-11
9.400000000e+00	4.273808590e-02	-6.227804517e-02	7.295083783e-12
9.450000000e+00	4.261899507e-02	-6.244945203e-02	1.129781186e-11
9.500000000e+00	4.250083174e-02	-6.262065278e-02	5.962388333e-12
9.550000000e+00	4.238358382e-02	-6.279164907e-02	1.292415407e-11
9.600000000e+00	4.226723941e-02	-6.296244253e-02	8.856407185e-12
9.650000000e+00	4.215178686e-02	-6.313303475e-02	1.120240219e-11
9.700000000e+00	4.203721471e-02	-6.330342734e-02	6.568170184e-12
9.750000000e+00	4.192351171e-02	-6.347362184e-02	1.204143766e-11
9.800000000e+00	4.181066681e-02	-6.364361982e-02	6.890866160e-12
9.850000000e+00	4.169866916e-02	-6.381342278e-02	1.695389917e-11
9.900000000e+00	4.158750809e-02	-6.398303222e-02	1.140487788e-11
9.950000000e+00	4.147717313e-02	-6.415244962e-02	8.946425432e-12
1.000000000e+01	4.136765400e-02	-6.432167643e-02	1.130234053e-11
1.005000000e+01	4.125894057e-02	-6.449071409e-02	7.257300193e-12
1.010000000e+01	4.115102291e-02	-6.465956402e-02	1.040624257e-11
1.015000000e+01	4.104389126e-02	-6.482822761e-02	1.224961997e-11
1.020000000e+01	4.093753602e-02	-6.499670623e-02	6.356616421e-12
1.025000000e+01	4.083194776e-02	-6.516500125e-02	1.263697342e-11
1.030000000e+01	4.072711719e-02	-6.533311401e-02	8.266736825e-12
1.035000000e+01	4.062303521e-02	-6.550104581e-02	1.058626293e-11
1.040000000e+01	4.051969284e-02	-6.566879797e-02	1.516523000e-11
1.045000000e+01	4.041708128e-02	-6.583637177e-02	8.725826470e-12
1.050000000e+01	4.031519186e-02	-6.600376847e-02	5.447292385e-12
1.055000000e+01	4.021401605e-02	-6.617098932e-02	7.201970397e-12
1.060000000e+01	4.011354547e-02	-6.633803556e-02	1.319273378e-11
1.065000000e+01	4.001377187e-02	-6.650490838e-02	1.411575557e-11
1.070000000e+01	3.991468715e-02	-6.667160900e-02	1.041847909e-11
1.075000000e+01	3.981628332e-02	-6.683813858e-02	7.194807910e-12
1.080000000e+01	3.971855254e-02	-6.700449831e-02	7.579727014e-12
1.085000000e+01	3.962148708e-02	-6.717068932e-02	1.137097626e-11
1.090000000e+01	3.952507935e-02	-6.733671275e-02	1.653354500e-11
1.095000000e+01	3.942932186e-02	-6.750256971e-02	1.624109434e-11
1.100000000e+01	3.933420725e-02	-6.766826131e-02	1.258424755e-11
1.105000000e+01	3.923972829e-02	-6.783378862e-02	1.680669401e-11
1.110000000e+01	3.914587784e-02	-6.799915273e-02	6.939946095e-12
1.115000000e+01	3.905264889e-02	-6.816435468e-02	5.212121542e-12
1.120000000e+01	3.896003454e-02	-6.832939553e-02	1.158771242e-11
1.125000000e+01	3.886802797e-02	-6.849427630e-02	1.376380631e-11
1.130000000e+01	3.877662250e-02	-6.865899800e-02	6.894511945e-12
1.135000000e+01	3.868581153e-02	-6.882356163e-02	1.016892937e-11
1.140000000e+01	3.859558858e-02	-6.898796818e-02	1.033883786e-11
1.145000000e+01	3.850594725e-02	-6.915221863e-02	8.737169348e-12
1.150000000e+01	3.841688124e-02	-6.931631393e-02	7.271636901e-12
1.155000000e+01	3.832838437e-02	-6.948025502e-02	6.224713086e-12
1.160000000e+01	3.824045052e-02	-6.964404286e-02	9.428499340e-12
1.165000000e+01	3.815307368e-02	-6.980767834e-02	8.263776338e-12
1.170000000e+01	3.806624792e-02	-6.997116239e-02	8.520687396e-12
1.175000000e+01	3.797996741e-02	-7.013449590e-02	8.510585384e-12
1.180000000e+01	3.789422640e-02	-7.029767975e-02	9.816064256e-12
1.185000000e+01	3.780901923e-02	-7.046071481e-02	1.299675038e-11
1.190000000e+01	3.772434031e-02	-7.062360195e-02	8.581795685e-12
1.195000000e+01	3.764018414e-02	-7.078634202e-02	1.182994572e-11
1.200000000e+01	3.755654531e-02	-7.094893584e-02	8.137735093e-12
1.205000000e+01	3.747341847e-02	-7.111138425e-02	1.523827114e-11
1.210000000e+01	3.739079836e-02	-7.127368808e-02	2.138696404e-11
1.215000000e+01	3.730867978e-02	-7.143584809e-02	7.376743341e-12
1.220000000e+01	3.722705763e-02	-7.159786511e-02	1.029407538e-11
1.225000000e+01	3.714592687e-02	-7.175973991e-02	7.396163175e-12
1.230000000e+01	3.706528252e-02	-7.192147325e-02	8.505784508e-12
1.235000000e+01	3.698511969e-02	-7.208306591e-02	1.817985364e-11
1.240000000e+01	3.690543354e-02	-7.224451864e-02	1.275447648e-11
1.245000000e+01	3.682621932e-02	-7.240583216e-02	7.081762986e-12
1.250000000e+01	3.674747232e-02	-7.256700722e-02	1.402820442e-11
1.255000000e+01	3.666918792e-02	-7.272804453e-02	8.911987614e-12
1.260000000e+01	3.659136156e-02	-7.288894481e-02	4.389121461e-12
1.265000000e+01	3.651398872e-02	-7.304970875e-02	1.561824545e-11
1.270000000e+01	3.643706497e-02	-7.321033705e-02	1.561553939e-11
1.275000000e+01	3.636058592e-02	-7.337083040e-02	1.801751627e-11
1.280000000e+01	3.628454727e-02	-7.353118945e-02	8.410606944e-12
1.285000000e+01	3.620894474e-02	-7.369141488e-02	1.807419097e-11
1.290000000e+01	3.613377412e-02	-7.385150735e-02	5.346090462e-12
1.295000000e+01	3.605903129e-02	-7.401146749e-02	1.508534151e-11
1.300000000e+01	3.598471213e-02	-7.417129595e-02	1.301421534e-11
1.305000000e+01	3.591081263e-02	-7.433099337e-02	5.747785184e-12
1.310000000e+01	3.583732878e-02	-7.449056034e-02	9.472278061e-12
1.315000000e+01	3.576425667e-02	-7.464999749e-02	6.326182127e-12
1.320000000e+01	3.569159241e-02	-7.480930542e-02	7.429578277e-12
1.325000000e+01	3.561933219e-02	-7.496848473e-02	8.185918361e-12
1.330000000e+01	3.554747221e-02	-7.512753601e-02	7.048213407e-12
1.335000000e+01	3.547600876e-02	-7.528645984e-02	5.594996089e-12
1.340000000e+01	3.540493815e-02	-7.544525678e-02	9.007779154e-12
1.345000000e+01	3.533425677e-02	-7.560392739e-02	2.474799090e-11
1.350000000e+01	3.526396101e-02	-7.576247225e-02	1.065152755e-11
1.355000000e+01	3.519404735e-02	-7.592089189e-02	8.195583484e-12
1.360000000e+01	3.512451229e-02	-7.607918686e-02	7.786551273e-12
1.365000000e+01	3.505535238e-02	-7.623735769e-02	1.366491372e-11
1.370000000e+01	3.498656423e-02	-7.639540490e-02	6.133915455e-12
1.375000000e+01	3.491814447e-02	-7.655332903e-02	6.598108127e-12
1.380000000e+01	3.485008978e-02	-7.671113058e-02	6.914692809e-12
1.385000000e+01	3.478239689e-02	-7.686881005e-02	8.336485036e-12
1.390000000e+01	3.471506257e-02	-7.702636795e-02	8.764996039e-12
1.395000000e+01	3.464808361e-02	-7.718380476e-02	1.244998608e-11
1.400000000e+01	3.458145687e-02	-7.734112097e-02	1.177062272e-11
1.405000000e+01	3.451517923e-02	-7.749831707e-02	5.540153389e-12
1.410000000e+01	3.444924761e-02	-7.765539352e-02	9.899577107e-12
1.415000000e+01	3.438365898e-02	-7.781235078e-02	5.981484700e-12
1.420000000e+01	3.431841033e-02	-7.796918933e-02	9.965782352e-12
1.425000000e+01	3.425349870e-02	-7.812590960e-02	9.450509674e-12
1.430000000e+01	3.418892116e-02	-7.828251205e-02	8.496757489e-12
1.435000000e+01	3.412467483e-02	-7.843899713e-02	1.415601457e-11
1.440000000e+01	3.406075683e-02	-7.859536525e-02	9.120395900e-12
1.445000000e+01	3.399716436e-02	-7.875161686e-02	6.822860028e-12
1.450000000e+01	3.393389461e-02	-7.890775237e-02	8.472949993e-12
1.455000000e+01	3.387094484e-02	-7.906377220e-02	1.668955816e-11
1.460000000e+01	3.380831232e-02	-7.921967675e-02	1.906303607e-11
1.465000000e+01	3.374599436e-02	-7.937546646e-02	8.582449804e-12
1.470000000e+01	3.368398831e-02	-7.953114170e-02	8.751675130e-12
1.475000000e+01	3.362229153e-02	-7.968670288e-02	8.130139882e-12
1.480000000e+01	3.356090144e-02	-7.984215037e-02	7.603677959e-12
1.485000000e+01	3.349981547e-02	-7.999748457e-02	2.284277938e-11
1.490000000e+01	3.343903107e-02	-8.015270586e-02	1.043762227e-11
1.495000000e+01	3.337854576e-02	-8.030781460e-02	1.782327413e-11
1.500000000e+01	3.331835704e-02	-8.046281116e-02	9.847969892e-12
1.505000000e+01	3.325846248e-02	-8.061769592e-02	1.779339080e-11
1.510000000e+01	3.319885965e-02	-8.077246922e-02	9.011060062e-12
1.515000000e+01	3.313954617e-02	-8.092713142e-02	5.123707780e-12
1.520000000e+01	3.308051967e-02	-8.108168287e-02	1.160471230e-11
1.525000000e+01	3.302177780e-02	-8.123612390e-02	8.812449466e-12
1.530000000e+01	3.296331827e-02	-8.139045486e-02	1.194218555e-11
1.535000000e+01	3.290513879e-02	-8.154467608e-02	1.011541932e-11
1.540000000e+01	3.284723710e-02	-8.169878789e-02	6.807182658e-12
1.545000000e+01	3.278961097e-02	-8.185279061e-02	7.737697822e-12
1.550000000e+01	3.273225819e-02	-8.200668458e-02	8.691353883e-12
1.555000000e+01	3.267517658e-02	-8.216047008e-02	7.361718328e-12
1.560000000e+01	3.261836398e-02	-8.231414744e-02	1.033447158e-11
1.565000000e+01	3.256181826e-02	-8.246771697e-02	4.903010964e-12
1.570000000e+01	3.250553731e-02	-8.262117897e-02	6.979555260e-12
