# R [micrones]     Omega/c [1/micrones]    Im(epsi1)     Eq(det).Opt det SIN kz, mu = 0.3 eV, Re(epsi1)=3.90, solve_det_sinkz_vs_R.py
5.000000000e-01	1.340054624e-01	-3.530719975e-02	1.121991390e-11
5.500000000e-01	1.277446175e-01	-3.642759181e-02	8.995493879e-12
6.000000000e-01	1.222811437e-01	-3.756974517e-02	1.534914076e-11
6.500000000e-01	1.174588362e-01	-3.872591480e-02	8.971882316e-12
7.000000000e-01	1.131612340e-01	-3.989070506e-02	1.304993319e-11
7.500000000e-01	1.092994962e-01	-4.106028244e-02	8.277546283e-12
8.000000000e-01	1.058045133e-01	-4.223188047e-02	1.291536417e-11
8.500000000e-01	1.026216071e-01	-4.340347831e-02	7.742246452e-12
9.000000000e-01	9.970687415e-02	-4.457358630e-02	1.002019496e-11
9.500000000e-01	9.702460043e-02	-4.574109962e-02	1.437817252e-11
1.000000000e+00	9.454539652e-02	-4.690519615e-02	1.605624566e-11
1.050000000e+00	9.224482655e-02	-4.806526414e-02	1.613176555e-11
1.100000000e+00	9.010238389e-02	-4.922084991e-02	1.174231315e-11
1.150000000e+00	8.810071435e-02	-5.037161976e-02	2.027948693e-11
1.200000000e+00	8.622501918e-02	-5.151733163e-02	5.404733639e-12
1.250000000e+00	8.446259072e-02	-5.265781399e-02	1.490004746e-11
1.300000000e+00	8.280244719e-02	-5.379294981e-02	9.621804363e-12
1.350000000e+00	8.123504246e-02	-5.492266437e-02	1.436493244e-11
1.400000000e+00	7.975203346e-02	-5.604691588e-02	7.109374436e-12
1.450000000e+00	7.834609193e-02	-5.716568817e-02	1.383275060e-11
1.500000000e+00	7.701075103e-02	-5.827898506e-02	1.970596412e-11
1.550000000e+00	7.574027935e-02	-5.938682591e-02	1.359222810e-11
1.600000000e+00	7.452957676e-02	-6.048924211e-02	3.178546878e-11
1.650000000e+00	7.337408768e-02	-6.158627431e-02	1.323716123e-11
1.700000000e+00	7.226972856e-02	-6.267797025e-02	2.057172487e-11
1.750000000e+00	7.121282678e-02	-6.376438296e-02	2.702415213e-11
1.800000000e+00	7.020006894e-02	-6.484556943e-02	1.818521574e-11
1.850000000e+00	6.922845693e-02	-6.592158944e-02	1.083208812e-11
1.900000000e+00	6.829527035e-02	-6.699250469e-02	1.243385239e-11
1.950000000e+00	6.739803429e-02	-6.805837811e-02	6.452539443e-12
2.000000000e+00	6.653449153e-02	-6.911927323e-02	1.207365518e-11
2.050000000e+00	6.570257858e-02	-7.017525378e-02	1.259071803e-11
2.100000000e+00	6.490040473e-02	-7.122638331e-02	1.081091760e-11
2.150000000e+00	6.412623394e-02	-7.227272490e-02	2.299960523e-11
2.200000000e+00	6.337846891e-02	-7.331434095e-02	9.844744650e-12
2.250000000e+00	6.265563715e-02	-7.435129296e-02	9.934990361e-12
2.300000000e+00	6.195637871e-02	-7.538364146e-02	2.494766766e-11
2.350000000e+00	6.127943534e-02	-7.641144587e-02	8.785042367e-12
2.400000000e+00	6.062364094e-02	-7.743476443e-02	1.783706066e-11
2.450000000e+00	5.998791303e-02	-7.845365415e-02	9.368887079e-12
2.500000000e+00	5.937124521e-02	-7.946817075e-02	4.866298437e-12
2.550000000e+00	5.877270043e-02	-8.047836870e-02	2.520566370e-11
2.600000000e+00	5.819140492e-02	-8.148430114e-02	1.213133980e-11
2.650000000e+00	5.762654284e-02	-8.248601992e-02	1.284452657e-11
2.700000000e+00	5.707735142e-02	-8.348357560e-02	1.776896286e-11
2.750000000e+00	5.654311660e-02	-8.447701746e-02	1.063545332e-11
2.800000000e+00	5.602316908e-02	-8.546639353e-02	8.508912087e-12
2.850000000e+00	5.551688081e-02	-8.645175058e-02	1.113056989e-11
2.900000000e+00	5.502366177e-02	-8.743313417e-02	7.218941780e-12
2.950000000e+00	5.454295702e-02	-8.841058869e-02	1.581419974e-11
3.000000000e+00	5.407424412e-02	-8.938415734e-02	1.620339500e-11
3.050000000e+00	5.361703068e-02	-9.035388222e-02	1.649161533e-11
3.100000000e+00	5.317085218e-02	-9.131980431e-02	1.454454749e-11
3.150000000e+00	5.273527000e-02	-9.228196352e-02	1.021334345e-11
3.200000000e+00	5.230986955e-02	-9.324039873e-02	1.192154257e-11
3.250000000e+00	5.189425864e-02	-9.419514781e-02	7.122435430e-12
3.300000000e+00	5.148806592e-02	-9.514624763e-02	1.297657090e-11
3.350000000e+00	5.109093949e-02	-9.609373415e-02	7.824259008e-12
3.400000000e+00	5.070254561e-02	-9.703764237e-02	1.014256580e-11
3.450000000e+00	5.032256752e-02	-9.797800644e-02	1.590170350e-11
3.500000000e+00	4.995070431e-02	-9.891485959e-02	1.456600965e-11
3.550000000e+00	4.958666996e-02	-9.984823429e-02	6.250103565e-12
3.600000000e+00	4.923019236e-02	-1.007781621e-01	6.548449299e-12
3.650000000e+00	4.888101250e-02	-1.017046740e-01	7.599020528e-12
3.700000000e+00	4.853888364e-02	-1.026277999e-01	1.218419698e-11
3.750000000e+00	4.820357056e-02	-1.035475693e-01	8.544240997e-12
3.800000000e+00	4.787484891e-02	-1.044640107e-01	1.158679458e-11
3.850000000e+00	4.755250456e-02	-1.053771521e-01	1.307211977e-11
3.900000000e+00	4.723633299e-02	-1.062870209e-01	9.130174908e-12
3.950000000e+00	4.692613877e-02	-1.071936437e-01	1.023561551e-11
4.000000000e+00	4.662173504e-02	-1.080970464e-01	1.099883784e-11
4.050000000e+00	4.632294301e-02	-1.089972546e-01	1.425115514e-11
4.100000000e+00	4.602959155e-02	-1.098942931e-01	1.345047271e-11
4.150000000e+00	4.574151674e-02	-1.107881862e-01	1.647736592e-11
4.200000000e+00	4.545856152e-02	-1.116789575e-01	7.895326436e-12
4.250000000e+00	4.518057531e-02	-1.125666305e-01	1.453111844e-11
4.300000000e+00	4.490741363e-02	-1.134512276e-01	9.036845728e-12
4.350000000e+00	4.463893787e-02	-1.143327712e-01	9.277556794e-12
4.400000000e+00	4.437501491e-02	-1.152112830e-01	7.449526437e-12
4.450000000e+00	4.411551687e-02	-1.160867842e-01	1.520794724e-11
4.500000000e+00	4.386032087e-02	-1.169592957e-01	1.480993201e-11
4.550000000e+00	4.360930875e-02	-1.178288378e-01	1.429251602e-11
4.600000000e+00	4.336236684e-02	-1.186954305e-01	8.321382245e-12
4.650000000e+00	4.311938577e-02	-1.195590934e-01	1.103486357e-11
4.700000000e+00	4.288026025e-02	-1.204198456e-01	9.310820433e-12
4.750000000e+00	4.264488885e-02	-1.212777059e-01	1.425264695e-11
4.800000000e+00	4.241317386e-02	-1.221326927e-01	1.610360345e-11
4.850000000e+00	4.218502109e-02	-1.229848240e-01	1.734037572e-11
4.900000000e+00	4.196033973e-02	-1.238341176e-01	8.195821431e-12
4.950000000e+00	4.173904216e-02	-1.246805907e-01	1.088179675e-11
5.000000000e+00	4.152104387e-02	-1.255242604e-01	7.546724187e-12
5.050000000e+00	4.130626323e-02	-1.263651433e-01	5.832925127e-12
5.100000000e+00	4.109462145e-02	-1.272032560e-01	8.926652745e-12
5.150000000e+00	4.088604241e-02	-1.280386143e-01	1.305277570e-11
5.200000000e+00	4.068045255e-02	-1.288712343e-01	1.595176884e-11
5.250000000e+00	4.047778075e-02	-1.297011312e-01	9.884321208e-12
5.300000000e+00	4.027795828e-02	-1.305283205e-01	6.855416080e-12
5.350000000e+00	4.008091861e-02	-1.313528170e-01	8.991229790e-12
5.400000000e+00	3.988659741e-02	-1.321746355e-01	7.465181716e-12
5.450000000e+00	3.969493239e-02	-1.329937903e-01	6.294576787e-12
5.500000000e+00	3.950586325e-02	-1.338102958e-01	1.098449482e-11
5.550000000e+00	3.931933160e-02	-1.346241658e-01	5.385905149e-12
5.600000000e+00	3.913528086e-02	-1.354354140e-01	1.400467317e-11
5.650000000e+00	3.895365623e-02	-1.362440541e-01	9.072938733e-12
5.700000000e+00	3.877440455e-02	-1.370500992e-01	1.228465525e-11
5.750000000e+00	3.859747432e-02	-1.378535624e-01	8.600516716e-12
5.800000000e+00	3.842281557e-02	-1.386544567e-01	9.918723292e-12
5.850000000e+00	3.825037985e-02	-1.394527945e-01	5.766743587e-12
5.900000000e+00	3.808012011e-02	-1.402485885e-01	9.332965419e-12
5.950000000e+00	3.791199071e-02	-1.410418508e-01	8.930322041e-12
6.000000000e+00	3.774594735e-02	-1.418325936e-01	1.674879843e-11
6.050000000e+00	3.758194698e-02	-1.426208286e-01	1.024813946e-11
6.100000000e+00	3.741994781e-02	-1.434065677e-01	5.145076847e-12
6.150000000e+00	3.725990924e-02	-1.441898224e-01	1.774412482e-11
6.200000000e+00	3.710179179e-02	-1.449706040e-01	8.216422416e-12
6.250000000e+00	3.694555713e-02	-1.457489238e-01	6.029393217e-12
6.300000000e+00	3.679116794e-02	-1.465247927e-01	7.570657426e-12
6.350000000e+00	3.663858798e-02	-1.472982218e-01	8.803234501e-12
6.400000000e+00	3.648778197e-02	-1.480692217e-01	8.601883055e-12
6.450000000e+00	3.633871559e-02	-1.488378029e-01	1.050740734e-11
6.500000000e+00	3.619135545e-02	-1.496039761e-01	4.943977980e-12
6.550000000e+00	3.604566906e-02	-1.503677514e-01	1.065723937e-11
6.600000000e+00	3.590162477e-02	-1.511291390e-01	9.682658273e-12
6.650000000e+00	3.575919178e-02	-1.518881490e-01	5.636024014e-12
6.700000000e+00	3.561834010e-02	-1.526447912e-01	7.333377329e-12
6.750000000e+00	3.547904049e-02	-1.533990754e-01	1.443215157e-11
6.800000000e+00	3.534126449e-02	-1.541510113e-01	1.345241961e-11
6.850000000e+00	3.520498435e-02	-1.549006083e-01	1.103413559e-11
6.900000000e+00	3.507017303e-02	-1.556478760e-01	5.405016218e-12
6.950000000e+00	3.493680417e-02	-1.563928235e-01	9.855143998e-12
7.000000000e+00	3.480485207e-02	-1.571354600e-01	9.636865358e-12
7.050000000e+00	3.467429167e-02	-1.578757946e-01	6.913178452e-12
7.100000000e+00	3.454509852e-02	-1.586138363e-01	1.002057758e-11
7.150000000e+00	3.441724877e-02	-1.593495939e-01	5.726215264e-12
7.200000000e+00	3.429071915e-02	-1.600830760e-01	7.980944964e-12
7.250000000e+00	3.416548696e-02	-1.608142915e-01	9.433554838e-12
7.300000000e+00	3.404153004e-02	-1.615432488e-01	8.277007432e-12
7.350000000e+00	3.391882674e-02	-1.622699563e-01	1.403873759e-11
7.400000000e+00	3.379735594e-02	-1.629944224e-01	8.525648118e-12
7.450000000e+00	3.367709702e-02	-1.637166553e-01	1.064736103e-11
7.500000000e+00	3.355802982e-02	-1.644366633e-01	8.681078621e-12
7.550000000e+00	3.344013467e-02	-1.651544544e-01	7.008733341e-12
7.600000000e+00	3.332339234e-02	-1.658700365e-01	8.871001984e-12
7.650000000e+00	3.320778404e-02	-1.665834176e-01	8.113470961e-12
7.700000000e+00	3.309329140e-02	-1.672946056e-01	5.045761430e-12
7.750000000e+00	3.297989649e-02	-1.680036080e-01	1.249312700e-11
7.800000000e+00	3.286758175e-02	-1.687104327e-01	8.411338048e-12
7.850000000e+00	3.275633003e-02	-1.694150872e-01	5.055115609e-12
7.900000000e+00	3.264612456e-02	-1.701175789e-01	7.582609406e-12
7.950000000e+00	3.253694893e-02	-1.708179154e-01	9.427008971e-12
8.000000000e+00	3.242878710e-02	-1.715161040e-01	1.817988071e-11
8.050000000e+00	3.232162336e-02	-1.722121519e-01	1.078681087e-11
8.100000000e+00	3.221544236e-02	-1.729060664e-01	8.820388941e-12
8.150000000e+00	3.211022906e-02	-1.735978546e-01	2.234607874e-11
8.200000000e+00	3.200596876e-02	-1.742875236e-01	1.098448569e-11
8.250000000e+00	3.190264705e-02	-1.749750804e-01	1.473014615e-11
8.300000000e+00	3.180024985e-02	-1.756605320e-01	4.431394322e-12
8.350000000e+00	3.169876336e-02	-1.763438853e-01	1.855667691e-11
8.400000000e+00	3.159817406e-02	-1.770251470e-01	1.281116827e-11
8.450000000e+00	3.149846871e-02	-1.777043240e-01	1.498378954e-11
8.500000000e+00	3.139963437e-02	-1.783814229e-01	1.123253087e-11
8.550000000e+00	3.130165832e-02	-1.790564504e-01	5.656102228e-12
8.600000000e+00	3.120452814e-02	-1.797294130e-01	7.318790481e-12
8.650000000e+00	3.110823164e-02	-1.804003174e-01	7.284592404e-12
8.700000000e+00	3.101275688e-02	-1.810691699e-01	1.064629184e-11
8.750000000e+00	3.091809215e-02	-1.817359770e-01	5.319021131e-12
8.800000000e+00	3.082422599e-02	-1.824007451e-01	1.063922493e-11
8.850000000e+00	3.073114715e-02	-1.830634804e-01	1.364837034e-11
8.900000000e+00	3.063884460e-02	-1.837241893e-01	6.308569918e-12
8.950000000e+00	3.054730754e-02	-1.843828780e-01	1.087601478e-11
9.000000000e+00	3.045652538e-02	-1.850395525e-01	7.981545433e-12
9.050000000e+00	3.036648771e-02	-1.856942191e-01	6.111644124e-12
9.100000000e+00	3.027718434e-02	-1.863468838e-01	1.137620986e-11
9.150000000e+00	3.018860528e-02	-1.869975526e-01	9.873328994e-12
9.200000000e+00	3.010074072e-02	-1.876462315e-01	9.548612005e-12
9.250000000e+00	3.001358103e-02	-1.882929265e-01	3.950845928e-12
9.300000000e+00	2.992711677e-02	-1.889376433e-01	1.668558807e-11
9.350000000e+00	2.984133867e-02	-1.895803879e-01	1.621501547e-11
9.400000000e+00	2.975623765e-02	-1.902211661e-01	1.082770815e-11
9.450000000e+00	2.967180476e-02	-1.908599836e-01	1.508561908e-11
9.500000000e+00	2.958803126e-02	-1.914968461e-01	6.901870032e-12
9.550000000e+00	2.950490854e-02	-1.921317594e-01	9.267808662e-12
9.600000000e+00	2.942242815e-02	-1.927647289e-01	1.013733801e-11
9.650000000e+00	2.934058180e-02	-1.933957605e-01	8.851568532e-12
9.700000000e+00	2.925936136e-02	-1.940248595e-01	6.314617429e-12
9.750000000e+00	2.917875882e-02	-1.946520316e-01	1.410393789e-11
9.800000000e+00	2.909876633e-02	-1.952772822e-01	1.260429639e-11
9.850000000e+00	2.901937617e-02	-1.959006168e-01	6.353957683e-12
9.900000000e+00	2.894058078e-02	-1.965220408e-01	1.470656545e-11
9.950000000e+00	2.886237269e-02	-1.971415595e-01	1.679461797e-11
1.000000000e+01	2.878474459e-02	-1.977591783e-01	1.142787348e-11
1.005000000e+01	2.870768931e-02	-1.983749025e-01	9.177172861e-12
1.010000000e+01	2.863119977e-02	-1.989887374e-01	1.179983316e-11
1.015000000e+01	2.855526903e-02	-1.996006882e-01	1.028005804e-11
1.020000000e+01	2.847989026e-02	-2.002107602e-01	1.172720144e-11
1.025000000e+01	2.840505677e-02	-2.008189585e-01	7.618717915e-12
1.030000000e+01	2.833076195e-02	-2.014252883e-01	4.827723376e-12
1.035000000e+01	2.825699933e-02	-2.020297546e-01	8.352822704e-12
1.040000000e+01	2.818376252e-02	-2.026323626e-01	1.050139185e-11
1.045000000e+01	2.811104528e-02	-2.032331173e-01	1.493360444e-11
1.050000000e+01	2.803884142e-02	-2.038320238e-01	7.108236669e-12
1.055000000e+01	2.796714490e-02	-2.044290870e-01	9.740677399e-12
1.060000000e+01	2.789594975e-02	-2.050243119e-01	8.378649991e-12
1.065000000e+01	2.782525010e-02	-2.056177035e-01	5.526494044e-12
1.070000000e+01	2.775504020e-02	-2.062092667e-01	7.874937132e-12
1.075000000e+01	2.768531436e-02	-2.067990063e-01	8.191174184e-12
1.080000000e+01	2.761606701e-02	-2.073869272e-01	7.473818115e-12
1.085000000e+01	2.754729266e-02	-2.079730342e-01	6.065162951e-12
1.090000000e+01	2.747898590e-02	-2.085573322e-01	1.376790201e-11
1.095000000e+01	2.741114140e-02	-2.091398260e-01	1.070204110e-11
1.100000000e+01	2.734375395e-02	-2.097205202e-01	6.869541966e-12
1.105000000e+01	2.727681839e-02	-2.102994196e-01	7.636838818e-12
1.110000000e+01	2.721032965e-02	-2.108765290e-01	1.297457306e-11
1.115000000e+01	2.714428274e-02	-2.114518529e-01	1.186433014e-11
1.120000000e+01	2.707867274e-02	-2.120253962e-01	6.782499120e-12
1.125000000e+01	2.701349483e-02	-2.125971633e-01	7.044333158e-12
1.130000000e+01	2.694874424e-02	-2.131671589e-01	7.540964953e-12
1.135000000e+01	2.688441628e-02	-2.137353876e-01	8.480690901e-12
1.140000000e+01	2.682050634e-02	-2.143018540e-01	8.599654722e-12
1.145000000e+01	2.675700987e-02	-2.148665625e-01	1.106242962e-11
1.150000000e+01	2.669392240e-02	-2.154295178e-01	3.936280307e-12
1.155000000e+01	2.663123951e-02	-2.159907243e-01	7.609548529e-12
1.160000000e+01	2.656895686e-02	-2.165501865e-01	2.550385281e-12
1.165000000e+01	2.650707017e-02	-2.171079089e-01	5.884808452e-12
1.170000000e+01	2.644557524e-02	-2.176638959e-01	1.092707347e-11
1.175000000e+01	2.638446791e-02	-2.182181519e-01	7.199680337e-12
1.180000000e+01	2.632374409e-02	-2.187706813e-01	6.502653938e-12
1.185000000e+01	2.626339975e-02	-2.193214884e-01	1.102458897e-11
1.190000000e+01	2.620343092e-02	-2.198705778e-01	7.564053247e-12
1.195000000e+01	2.614383369e-02	-2.204179536e-01	5.829432802e-12
1.200000000e+01	2.608460420e-02	-2.209636202e-01	1.143879632e-11
1.205000000e+01	2.602573866e-02	-2.215075818e-01	9.552771812e-12
1.210000000e+01	2.596723332e-02	-2.220498429e-01	8.890332534e-12
1.215000000e+01	2.590908448e-02	-2.225904076e-01	6.268141862e-12
1.220000000e+01	2.585128852e-02	-2.231292802e-01	5.181137558e-12
1.225000000e+01	2.579384184e-02	-2.236664649e-01	6.820877651e-12
1.230000000e+01	2.573674091e-02	-2.242019660e-01	9.094499199e-12
1.235000000e+01	2.567998224e-02	-2.247357875e-01	7.663258993e-12
1.240000000e+01	2.562356240e-02	-2.252679337e-01	7.656261921e-12
1.245000000e+01	2.556747800e-02	-2.257984088e-01	1.657513459e-11
1.250000000e+01	2.551172570e-02	-2.263272168e-01	6.287524267e-12
1.255000000e+01	2.545630220e-02	-2.268543619e-01	1.283313786e-11
1.260000000e+01	2.540120426e-02	-2.273798483e-01	5.594041511e-12
1.265000000e+01	2.534642867e-02	-2.279036800e-01	5.066106219e-12
1.270000000e+01	2.529197227e-02	-2.284258610e-01	8.196993018e-12
1.275000000e+01	2.523783195e-02	-2.289463954e-01	6.040508978e-12
1.280000000e+01	2.518400464e-02	-2.294652874e-01	4.211849160e-12
1.285000000e+01	2.513048729e-02	-2.299825408e-01	5.265981617e-12
1.290000000e+01	2.507727692e-02	-2.304981598e-01	4.682552524e-12
1.295000000e+01	2.502437057e-02	-2.310121483e-01	8.921401172e-12
1.300000000e+01	2.497176535e-02	-2.315245103e-01	5.911532950e-12
1.305000000e+01	2.491945837e-02	-2.320352497e-01	1.366380234e-11
1.310000000e+01	2.486744680e-02	-2.325443706e-01	9.497764783e-12
1.315000000e+01	2.481572784e-02	-2.330518768e-01	8.648545251e-12
1.320000000e+01	2.476429874e-02	-2.335577723e-01	1.110082256e-11
1.325000000e+01	2.471315677e-02	-2.340620610e-01	9.917138305e-12
1.330000000e+01	2.466229924e-02	-2.345647468e-01	5.996618775e-12
1.335000000e+01	2.461172351e-02	-2.350658335e-01	6.931554795e-12
1.340000000e+01	2.456142695e-02	-2.355653251e-01	6.220350207e-12
1.345000000e+01	2.451140698e-02	-2.360632254e-01	9.728994849e-12
1.350000000e+01	2.446166105e-02	-2.365595382e-01	7.138123928e-12
1.355000000e+01	2.441218665e-02	-2.370542674e-01	9.654715132e-12
1.360000000e+01	2.436298128e-02	-2.375474168e-01	7.728630777e-12
1.365000000e+01	2.431404249e-02	-2.380389902e-01	7.766309921e-12
1.370000000e+01	2.426536787e-02	-2.385289913e-01	7.412741401e-12
1.375000000e+01	2.421695503e-02	-2.390174240e-01	5.978869664e-12
1.380000000e+01	2.416880159e-02	-2.395042919e-01	5.759103834e-12
1.385000000e+01	2.412090523e-02	-2.399895990e-01	1.238881993e-11
1.390000000e+01	2.407326364e-02	-2.404733489e-01	3.806514101e-12
1.395000000e+01	2.402587456e-02	-2.409555453e-01	6.019838782e-12
1.400000000e+01	2.397873574e-02	-2.414361919e-01	9.413473035e-12
1.405000000e+01	2.393184496e-02	-2.419152925e-01	7.540216784e-12
1.410000000e+01	2.388520004e-02	-2.423928508e-01	3.145810230e-12
1.415000000e+01	2.383879880e-02	-2.428688703e-01	8.134873690e-12
1.420000000e+01	2.379263911e-02	-2.433433549e-01	1.246193440e-11
1.425000000e+01	2.374671887e-02	-2.438163081e-01	8.822420072e-12
1.430000000e+01	2.370103599e-02	-2.442877337e-01	1.166427653e-11
1.435000000e+01	2.365558841e-02	-2.447576351e-01	8.639677419e-12
1.440000000e+01	2.361037410e-02	-2.452260161e-01	9.080803209e-12
1.445000000e+01	2.356539104e-02	-2.456928803e-01	6.606567114e-12
1.450000000e+01	2.352063726e-02	-2.461582313e-01	1.029707055e-11
1.455000000e+01	2.347611078e-02	-2.466220726e-01	8.553374932e-12
1.460000000e+01	2.343180968e-02	-2.470844079e-01	8.278513575e-12
1.465000000e+01	2.338773204e-02	-2.475452407e-01	1.297897179e-11
1.470000000e+01	2.334387597e-02	-2.480045745e-01	1.018275762e-11
1.475000000e+01	2.330023960e-02	-2.484624130e-01	3.974546030e-12
1.480000000e+01	2.325682107e-02	-2.489187596e-01	9.095278542e-12
1.485000000e+01	2.321361857e-02	-2.493736180e-01	1.364975150e-11
1.490000000e+01	2.317063028e-02	-2.498269915e-01	6.798526309e-12
1.495000000e+01	2.312785444e-02	-2.502788837e-01	1.274270059e-11
1.500000000e+01	2.308528926e-02	-2.507292982e-01	7.587961031e-12
1.505000000e+01	2.304293302e-02	-2.511782383e-01	9.238713065e-12
1.510000000e+01	2.300078399e-02	-2.516257076e-01	7.421871900e-12
1.515000000e+01	2.295884046e-02	-2.520717096e-01	5.594740136e-12
1.520000000e+01	2.291710076e-02	-2.525162477e-01	6.628518450e-12
1.525000000e+01	2.287556321e-02	-2.529593253e-01	8.692995048e-12
1.530000000e+01	2.283422619e-02	-2.534009459e-01	5.150943753e-12
1.535000000e+01	2.279308805e-02	-2.538411130e-01	7.355670243e-12
1.540000000e+01	2.275214720e-02	-2.542798298e-01	8.414007422e-12
1.545000000e+01	2.271140204e-02	-2.547171000e-01	9.527100582e-12
1.550000000e+01	2.267085100e-02	-2.551529268e-01	2.068716768e-11
1.555000000e+01	2.263049253e-02	-2.555873136e-01	7.017284063e-12
1.560000000e+01	2.259032509e-02	-2.560202639e-01	7.039908539e-12
1.565000000e+01	2.255034717e-02	-2.564517810e-01	8.868015330e-12
1.570000000e+01	2.251055726e-02	-2.568818683e-01	8.574887366e-12
