# Re(epsi1)     Omega/c [1/micrones]    Im(epsi1)     Eq(det).Opt det SIN kz, mu = 0.9 eV, R = 0.5 micrones, solve_det_sinkz_vs_re_epsi1.py
1.000000000e+00	6.282927327e-01	-3.763503431e-03	4.239090627e-14
1.010000000e+00	6.267418520e-01	-3.780165710e-03	4.449578160e-14
1.020000000e+00	6.252023029e-01	-3.796849184e-03	6.140216512e-14
1.030000000e+00	6.236739493e-01	-3.813553797e-03	2.994167394e-14
1.040000000e+00	6.221566571e-01	-3.830279494e-03	9.216226684e-14
1.050000000e+00	6.206502949e-01	-3.847026219e-03	6.614265128e-14
1.060000000e+00	6.191547331e-01	-3.863793921e-03	5.130233949e-14
1.070000000e+00	6.176698442e-01	-3.880582548e-03	5.630003273e-14
1.080000000e+00	6.161955031e-01	-3.897392050e-03	3.660169125e-14
1.090000000e+00	6.147315865e-01	-3.914222378e-03	3.736399355e-14
1.100000000e+00	6.132779730e-01	-3.931073483e-03	5.368269618e-14
1.110000000e+00	6.118345433e-01	-3.947945318e-03	5.315757414e-14
1.120000000e+00	6.104011801e-01	-3.964837838e-03	5.982475387e-14
1.130000000e+00	6.089777677e-01	-3.981750997e-03	2.392056063e-14
1.140000000e+00	6.075641925e-01	-3.998684751e-03	5.110759154e-14
1.150000000e+00	6.061603425e-01	-4.015639057e-03	3.172866144e-14
1.160000000e+00	6.047661075e-01	-4.032613873e-03	4.379524651e-14
1.170000000e+00	6.033813792e-01	-4.049609158e-03	5.255699133e-14
1.180000000e+00	6.020060508e-01	-4.066624871e-03	3.284758410e-14
1.190000000e+00	6.006400173e-01	-4.083660971e-03	7.874576744e-14
1.200000000e+00	5.992831750e-01	-4.100717421e-03	8.282440497e-14
1.210000000e+00	5.979354223e-01	-4.117794182e-03	6.335529217e-14
1.220000000e+00	5.965966587e-01	-4.134891216e-03	2.643193851e-14
1.230000000e+00	5.952667855e-01	-4.152008487e-03	6.730167410e-14
1.240000000e+00	5.939457055e-01	-4.169145958e-03	6.483077458e-14
1.250000000e+00	5.926333228e-01	-4.186303594e-03	8.715727420e-14
1.260000000e+00	5.913295431e-01	-4.203481360e-03	4.691543461e-14
1.270000000e+00	5.900342734e-01	-4.220679222e-03	3.841981167e-14
1.280000000e+00	5.887474222e-01	-4.237897147e-03	4.823718616e-14
1.290000000e+00	5.874688993e-01	-4.255135100e-03	3.017716901e-14
1.300000000e+00	5.861986159e-01	-4.272393051e-03	5.223923879e-14
1.310000000e+00	5.849364844e-01	-4.289670966e-03	1.100515303e-13
1.320000000e+00	5.836824186e-01	-4.306968814e-03	6.848951431e-14
1.330000000e+00	5.824363334e-01	-4.324286565e-03	5.060166875e-14
1.340000000e+00	5.811981452e-01	-4.341624187e-03	9.337417868e-14
1.350000000e+00	5.799677714e-01	-4.358981652e-03	8.176602997e-14
1.360000000e+00	5.787451307e-01	-4.376358929e-03	6.285439961e-14
1.370000000e+00	5.775301430e-01	-4.393755989e-03	8.166773445e-14
1.380000000e+00	5.763227291e-01	-4.411172804e-03	6.751068120e-14
1.390000000e+00	5.751228113e-01	-4.428609346e-03	7.857929469e-14
1.400000000e+00	5.739303127e-01	-4.446065586e-03	6.921010736e-14
1.410000000e+00	5.727451577e-01	-4.463541498e-03	7.398993035e-14
1.420000000e+00	5.715672717e-01	-4.481037054e-03	8.215420418e-14
1.430000000e+00	5.703965810e-01	-4.498552227e-03	3.793858010e-14
1.440000000e+00	5.692330133e-01	-4.516086992e-03	8.558618854e-14
1.450000000e+00	5.680764969e-01	-4.533641321e-03	7.352931355e-14
1.460000000e+00	5.669269614e-01	-4.551215191e-03	9.305571177e-14
1.470000000e+00	5.657843372e-01	-4.568808575e-03	6.428245579e-14
1.480000000e+00	5.646485557e-01	-4.586421448e-03	1.316975801e-13
1.490000000e+00	5.635195492e-01	-4.604053786e-03	4.896904808e-14
1.500000000e+00	5.623972512e-01	-4.621705563e-03	6.759399653e-14
1.510000000e+00	5.612815957e-01	-4.639376758e-03	1.219974819e-13
1.520000000e+00	5.601725178e-01	-4.657067344e-03	7.114312260e-14
1.530000000e+00	5.590699536e-01	-4.674777299e-03	6.990329884e-14
1.540000000e+00	5.579738398e-01	-4.692506600e-03	5.979889007e-14
1.550000000e+00	5.568841142e-01	-4.710255224e-03	8.844726487e-14
1.560000000e+00	5.558007153e-01	-4.728023146e-03	7.851785016e-14
1.570000000e+00	5.547235824e-01	-4.745810347e-03	7.935859430e-14
1.580000000e+00	5.536526556e-01	-4.763616802e-03	3.294370526e-14
1.590000000e+00	5.525878760e-01	-4.781442490e-03	8.491663370e-14
1.600000000e+00	5.515291852e-01	-4.799287389e-03	7.961206801e-14
1.610000000e+00	5.504765257e-01	-4.817151477e-03	6.058565983e-14
1.620000000e+00	5.494298407e-01	-4.835034733e-03	7.807020579e-14
1.630000000e+00	5.483890743e-01	-4.852937136e-03	5.010172785e-14
1.640000000e+00	5.473541711e-01	-4.870858665e-03	8.450713887e-14
1.650000000e+00	5.463250766e-01	-4.888799299e-03	1.061789210e-13
1.660000000e+00	5.453017370e-01	-4.906759017e-03	7.109774898e-14
1.670000000e+00	5.442840989e-01	-4.924737799e-03	6.849030228e-14
1.680000000e+00	5.432721100e-01	-4.942735624e-03	9.889227947e-14
1.690000000e+00	5.422657184e-01	-4.960752473e-03	8.271109171e-14
1.700000000e+00	5.412648730e-01	-4.978788325e-03	8.493452964e-14
1.710000000e+00	5.402695232e-01	-4.996843162e-03	6.275634620e-14
1.720000000e+00	5.392796192e-01	-5.014916962e-03	9.440842324e-14
1.730000000e+00	5.382951117e-01	-5.033009707e-03	7.696981473e-14
1.740000000e+00	5.373159521e-01	-5.051121378e-03	1.337261287e-13
1.750000000e+00	5.363420924e-01	-5.069251955e-03	9.679505800e-14
1.760000000e+00	5.353734852e-01	-5.087401420e-03	8.866728375e-14
1.770000000e+00	5.344100836e-01	-5.105569752e-03	8.709653883e-14
1.780000000e+00	5.334518414e-01	-5.123756935e-03	7.368731093e-14
1.790000000e+00	5.324987128e-01	-5.141962949e-03	1.097264966e-13
1.800000000e+00	5.315506529e-01	-5.160187775e-03	1.229718546e-13
1.810000000e+00	5.306076169e-01	-5.178431396e-03	8.372983862e-14
1.820000000e+00	5.296695609e-01	-5.196693793e-03	1.047986179e-13
1.830000000e+00	5.287364415e-01	-5.214974949e-03	9.492907609e-14
1.840000000e+00	5.278082155e-01	-5.233274844e-03	1.296744770e-13
1.850000000e+00	5.268848407e-01	-5.251593462e-03	9.314594188e-14
1.860000000e+00	5.259662751e-01	-5.269930784e-03	1.799436780e-13
1.870000000e+00	5.250524772e-01	-5.288286793e-03	1.260100573e-13
1.880000000e+00	5.241434061e-01	-5.306661471e-03	1.069334486e-13
1.890000000e+00	5.232390214e-01	-5.325054802e-03	7.210674723e-14
1.900000000e+00	5.223392831e-01	-5.343466767e-03	1.219344302e-13
1.910000000e+00	5.214441517e-01	-5.361897349e-03	1.867327986e-13
1.920000000e+00	5.205535883e-01	-5.380346532e-03	9.298765715e-14
1.930000000e+00	5.196675542e-01	-5.398814298e-03	1.400719711e-13
1.940000000e+00	5.187860113e-01	-5.417300631e-03	1.133504075e-13
1.950000000e+00	5.179089220e-01	-5.435805513e-03	1.582240202e-13
1.960000000e+00	5.170362491e-01	-5.454328928e-03	9.948339427e-14
1.970000000e+00	5.161679557e-01	-5.472870858e-03	1.330589912e-13
1.980000000e+00	5.153040055e-01	-5.491431289e-03	9.673604370e-14
1.990000000e+00	5.144443626e-01	-5.510010202e-03	1.226500585e-13
2.000000000e+00	5.135889913e-01	-5.528607583e-03	1.326532265e-13
2.010000000e+00	5.127378567e-01	-5.547223413e-03	5.408753632e-14
2.020000000e+00	5.118909239e-01	-5.565857678e-03	1.167234160e-13
2.030000000e+00	5.110481586e-01	-5.584510360e-03	8.203235385e-14
2.040000000e+00	5.102095269e-01	-5.603181444e-03	6.195945349e-14
2.050000000e+00	5.093749953e-01	-5.621870914e-03	9.109014571e-14
2.060000000e+00	5.085445305e-01	-5.640578754e-03	1.947382143e-13
2.070000000e+00	5.077180998e-01	-5.659304948e-03	1.064607535e-13
2.080000000e+00	5.068956707e-01	-5.678049479e-03	8.816095370e-14
2.090000000e+00	5.060772111e-01	-5.696812333e-03	1.445753485e-13
2.100000000e+00	5.052626894e-01	-5.715593494e-03	1.076570764e-13
2.110000000e+00	5.044520741e-01	-5.734392946e-03	5.219633586e-14
2.120000000e+00	5.036453343e-01	-5.753210673e-03	1.970916882e-13
2.130000000e+00	5.028424393e-01	-5.772046660e-03	1.272641176e-13
2.140000000e+00	5.020433587e-01	-5.790900892e-03	1.470610682e-13
2.150000000e+00	5.012480626e-01	-5.809773353e-03	7.359399118e-14
2.160000000e+00	5.004565213e-01	-5.828664027e-03	9.558280387e-14
2.170000000e+00	4.996687053e-01	-5.847572901e-03	6.955588368e-14
2.180000000e+00	4.988845858e-01	-5.866499958e-03	1.338873394e-13
2.190000000e+00	4.981041339e-01	-5.885445183e-03	2.446579259e-13
2.200000000e+00	4.973273213e-01	-5.904408561e-03	1.394138692e-13
2.210000000e+00	4.965541199e-01	-5.923390078e-03	5.277205043e-14
2.220000000e+00	4.957845018e-01	-5.942389717e-03	1.759454136e-13
2.230000000e+00	4.950184396e-01	-5.961407465e-03	1.139225699e-13
2.240000000e+00	4.942559060e-01	-5.980443307e-03	7.141004206e-14
2.250000000e+00	4.934968741e-01	-5.999497227e-03	1.237996529e-13
2.260000000e+00	4.927413174e-01	-6.018569211e-03	8.443669565e-14
2.270000000e+00	4.919892094e-01	-6.037659244e-03	9.469346998e-14
2.280000000e+00	4.912405241e-01	-6.056767311e-03	7.607981113e-14
2.290000000e+00	4.904952357e-01	-6.075893398e-03	7.933706868e-14
2.300000000e+00	4.897533187e-01	-6.095037490e-03	9.210531362e-14
2.310000000e+00	4.890147477e-01	-6.114199573e-03	8.561354759e-14
2.320000000e+00	4.882794978e-01	-6.133379633e-03	1.799835891e-13
2.330000000e+00	4.875475443e-01	-6.152577654e-03	1.159400362e-13
2.340000000e+00	4.868188627e-01	-6.171793622e-03	1.128794692e-13
2.350000000e+00	4.860934287e-01	-6.191027523e-03	1.600386490e-13
2.360000000e+00	4.853712183e-01	-6.210279343e-03	9.851627306e-14
2.370000000e+00	4.846522079e-01	-6.229549067e-03	1.017584663e-13
2.380000000e+00	4.839363740e-01	-6.248836682e-03	9.067171905e-14
2.390000000e+00	4.832236932e-01	-6.268142172e-03	1.531348688e-13
2.400000000e+00	4.825141427e-01	-6.287465525e-03	1.126810739e-13
2.410000000e+00	4.818076995e-01	-6.306806725e-03	8.224676418e-14
2.420000000e+00	4.811043412e-01	-6.326165758e-03	7.115811982e-14
2.430000000e+00	4.804040454e-01	-6.345542612e-03	7.642488674e-14
2.440000000e+00	4.797067901e-01	-6.364937270e-03	1.001528285e-13
2.450000000e+00	4.790125533e-01	-6.384349721e-03	6.750626745e-14
2.460000000e+00	4.783213134e-01	-6.403779949e-03	1.421302573e-13
2.470000000e+00	4.776330491e-01	-6.423227942e-03	9.185790777e-14
2.480000000e+00	4.769477389e-01	-6.442693684e-03	1.705369655e-13
2.490000000e+00	4.762653620e-01	-6.462177162e-03	3.271115442e-13
2.500000000e+00	4.755858976e-01	-6.481678363e-03	1.930685227e-13
2.510000000e+00	4.749093249e-01	-6.501197273e-03	1.470425983e-13
2.520000000e+00	4.742356237e-01	-6.520733878e-03	7.326449061e-14
2.530000000e+00	4.735647737e-01	-6.540288164e-03	3.958007367e-14
2.540000000e+00	4.728967549e-01	-6.559860117e-03	9.672311559e-14
2.550000000e+00	4.722315476e-01	-6.579449725e-03	1.213508079e-13
2.560000000e+00	4.715691321e-01	-6.599056974e-03	1.591572381e-13
2.570000000e+00	4.709094890e-01	-6.618681849e-03	1.443169751e-13
2.580000000e+00	4.702525990e-01	-6.638324338e-03	1.683248737e-13
2.590000000e+00	4.695984432e-01	-6.657984427e-03	2.220450490e-13
2.600000000e+00	4.689470026e-01	-6.677662102e-03	8.281705657e-14
2.610000000e+00	4.682982585e-01	-6.697357351e-03	3.213003874e-13
2.620000000e+00	4.676521926e-01	-6.717070159e-03	1.984335861e-13
2.630000000e+00	4.670087863e-01	-6.736800514e-03	1.445869562e-13
2.640000000e+00	4.663680217e-01	-6.756548403e-03	1.098113571e-13
2.650000000e+00	4.657298807e-01	-6.776313811e-03	1.250670434e-13
2.660000000e+00	4.650943454e-01	-6.796096725e-03	1.997450609e-13
2.670000000e+00	4.644613983e-01	-6.815897133e-03	1.397608991e-13
2.680000000e+00	4.638310219e-01	-6.835715022e-03	1.047739158e-13
2.690000000e+00	4.632031989e-01	-6.855550377e-03	2.337669160e-13
2.700000000e+00	4.625779120e-01	-6.875403186e-03	1.276756478e-13
2.710000000e+00	4.619551444e-01	-6.895273436e-03	7.823315561e-14
2.720000000e+00	4.613348793e-01	-6.915161114e-03	9.211084940e-14
2.730000000e+00	4.607170998e-01	-6.935066206e-03	9.325335214e-14
2.740000000e+00	4.601017896e-01	-6.954988700e-03	8.804261525e-14
2.750000000e+00	4.594889322e-01	-6.974928583e-03	3.232531937e-13
2.760000000e+00	4.588785114e-01	-6.994885841e-03	1.144391700e-13
2.770000000e+00	4.582705112e-01	-7.014860463e-03	4.364306338e-14
2.780000000e+00	4.576649157e-01	-7.034852434e-03	7.990070496e-14
2.790000000e+00	4.570617090e-01	-7.054861742e-03	1.893625565e-13
2.800000000e+00	4.564608756e-01	-7.074888374e-03	4.535190290e-13
2.810000000e+00	4.558624000e-01	-7.094932317e-03	3.035031010e-13
2.820000000e+00	4.552662668e-01	-7.114993559e-03	2.001753684e-13
2.830000000e+00	4.546724608e-01	-7.135072087e-03	1.501509251e-13
2.840000000e+00	4.540809670e-01	-7.155167887e-03	1.757196877e-13
2.850000000e+00	4.534917704e-01	-7.175280948e-03	1.283725588e-13
2.860000000e+00	4.529048562e-01	-7.195411256e-03	2.749167347e-13
2.870000000e+00	4.523202098e-01	-7.215558799e-03	1.125576167e-13
2.880000000e+00	4.517378166e-01	-7.235723564e-03	9.113274337e-14
2.890000000e+00	4.511576623e-01	-7.255905539e-03	1.293881106e-13
2.900000000e+00	4.505797325e-01	-7.276104711e-03	1.883837984e-13
2.910000000e+00	4.500040130e-01	-7.296321067e-03	8.162857692e-14
2.920000000e+00	4.494304900e-01	-7.316554595e-03	1.337350158e-13
2.930000000e+00	4.488591494e-01	-7.336805283e-03	1.029540766e-13
2.940000000e+00	4.482899776e-01	-7.357073117e-03	1.250805100e-13
2.950000000e+00	4.477229608e-01	-7.377358086e-03	1.103126140e-13
2.960000000e+00	4.471580855e-01	-7.397660176e-03	1.113302433e-13
2.970000000e+00	4.465953383e-01	-7.417979376e-03	1.499760605e-13
2.980000000e+00	4.460347058e-01	-7.438315673e-03	1.110935559e-13
2.990000000e+00	4.454761750e-01	-7.458669055e-03	1.019787441e-13
3.000000000e+00	4.449197328e-01	-7.479039509e-03	3.413894111e-13
3.010000000e+00	4.443653661e-01	-7.499427023e-03	9.289364491e-14
3.020000000e+00	4.438130622e-01	-7.519831585e-03	1.199540652e-13
3.030000000e+00	4.432628082e-01	-7.540253182e-03	1.342769770e-13
3.040000000e+00	4.427145917e-01	-7.560691803e-03	1.317609884e-13
3.050000000e+00	4.421684000e-01	-7.581147434e-03	9.551520716e-14
3.060000000e+00	4.416242208e-01	-7.601620064e-03	3.376401421e-13
3.070000000e+00	4.410820417e-01	-7.622109680e-03	1.015597448e-13
3.080000000e+00	4.405418506e-01	-7.642616271e-03	1.352521539e-13
3.090000000e+00	4.400036354e-01	-7.663139824e-03	9.246811985e-14
3.100000000e+00	4.394673840e-01	-7.683680327e-03	2.146175974e-13
3.110000000e+00	4.389330846e-01	-7.704237768e-03	5.066559670e-14
3.120000000e+00	4.384007254e-01	-7.724812135e-03	2.509399750e-13
3.130000000e+00	4.378702947e-01	-7.745403415e-03	2.249957028e-13
3.140000000e+00	4.373417809e-01	-7.766011598e-03	9.619017391e-14
3.150000000e+00	4.368151726e-01	-7.786636670e-03	5.595989371e-14
3.160000000e+00	4.362904582e-01	-7.807278620e-03	1.338087290e-13
3.170000000e+00	4.357676266e-01	-7.827937436e-03	2.289176498e-13
3.180000000e+00	4.352466664e-01	-7.848613105e-03	9.000697956e-14
3.190000000e+00	4.347275667e-01	-7.869305617e-03	1.124701543e-13
3.200000000e+00	4.342103163e-01	-7.890014958e-03	1.383251038e-13
3.210000000e+00	4.336949043e-01	-7.910741118e-03	1.067239238e-13
3.220000000e+00	4.331813199e-01	-7.931484084e-03	1.333606741e-13
3.230000000e+00	4.326695524e-01	-7.952243844e-03	1.747303760e-13
3.240000000e+00	4.321595910e-01	-7.973020387e-03	1.884492968e-13
3.250000000e+00	4.316514251e-01	-7.993813701e-03	2.961196042e-14
3.260000000e+00	4.311450444e-01	-8.014623774e-03	1.140448333e-13
3.270000000e+00	4.306404384e-01	-8.035450594e-03	1.025073344e-13
3.280000000e+00	4.301375967e-01	-8.056294149e-03	1.208477762e-13
3.290000000e+00	4.296365091e-01	-8.077154429e-03	1.774733633e-13
3.300000000e+00	4.291371655e-01	-8.098031420e-03	6.617353580e-14
3.310000000e+00	4.286395558e-01	-8.118925112e-03	1.958491022e-13
3.320000000e+00	4.281436700e-01	-8.139835493e-03	5.459509730e-13
3.330000000e+00	4.276494982e-01	-8.160762551e-03	8.994978711e-14
3.340000000e+00	4.271570305e-01	-8.181706274e-03	2.852729674e-13
3.350000000e+00	4.266662572e-01	-8.202666652e-03	2.853436516e-13
3.360000000e+00	4.261771687e-01	-8.223643672e-03	1.454156989e-13
3.370000000e+00	4.256897553e-01	-8.244637322e-03	2.279562857e-13
3.380000000e+00	4.252040074e-01	-8.265647593e-03	1.567432063e-13
3.390000000e+00	4.247199157e-01	-8.286674470e-03	8.665324490e-14
3.400000000e+00	4.242374708e-01	-8.307717944e-03	2.852730160e-13
3.410000000e+00	4.237566634e-01	-8.328778003e-03	1.259498509e-13
3.420000000e+00	4.232774842e-01	-8.349854636e-03	2.698675759e-13
3.430000000e+00	4.227999242e-01	-8.370947830e-03	7.117389049e-14
3.440000000e+00	4.223239741e-01	-8.392057575e-03	1.257758846e-13
3.450000000e+00	4.218496250e-01	-8.413183859e-03	1.659402783e-13
3.460000000e+00	4.213768681e-01	-8.434326671e-03	8.580735296e-14
3.470000000e+00	4.209056943e-01	-8.455485999e-03	1.171333468e-13
3.480000000e+00	4.204360949e-01	-8.476661832e-03	1.451611828e-13
3.490000000e+00	4.199680611e-01	-8.497854159e-03	4.206805506e-13
3.500000000e+00	4.195015844e-01	-8.519062969e-03	5.857087421e-14
3.510000000e+00	4.190366560e-01	-8.540288249e-03	1.313973340e-13
3.520000000e+00	4.185732675e-01	-8.561529990e-03	8.581673887e-14
3.530000000e+00	4.181114104e-01	-8.582788180e-03	1.208577586e-13
3.540000000e+00	4.176510763e-01	-8.604062807e-03	1.564286611e-13
3.550000000e+00	4.171922568e-01	-8.625353860e-03	4.864056731e-14
3.560000000e+00	4.167349438e-01	-8.646661328e-03	6.044756560e-14
3.570000000e+00	4.162791289e-01	-8.667985201e-03	1.944064950e-13
3.580000000e+00	4.158248040e-01	-8.689325466e-03	3.036407454e-13
3.590000000e+00	4.153719610e-01	-8.710682113e-03	4.986681376e-14
3.600000000e+00	4.149205920e-01	-8.732055131e-03	1.688853223e-13
3.610000000e+00	4.144706888e-01	-8.753444508e-03	1.047740591e-13
3.620000000e+00	4.140222438e-01	-8.774850233e-03	1.222915701e-13
3.630000000e+00	4.135752489e-01	-8.796272296e-03	2.789604584e-13
3.640000000e+00	4.131296964e-01	-8.817710686e-03	3.507486751e-13
3.650000000e+00	4.126855786e-01	-8.839165390e-03	1.744447709e-13
3.660000000e+00	4.122428878e-01	-8.860636399e-03	5.045146730e-13
3.670000000e+00	4.118016163e-01	-8.882123702e-03	2.178558098e-13
3.680000000e+00	4.113617567e-01	-8.903627287e-03	5.170218182e-13
3.690000000e+00	4.109233015e-01	-8.925147144e-03	7.931129385e-14
3.700000000e+00	4.104862431e-01	-8.946683261e-03	3.289410963e-13
3.710000000e+00	4.100505742e-01	-8.968235628e-03	7.168776783e-14
3.720000000e+00	4.096162875e-01	-8.989804234e-03	5.223722032e-13
3.730000000e+00	4.091833757e-01	-9.011389068e-03	3.252739178e-13
3.740000000e+00	4.087518315e-01	-9.032990119e-03	6.761258220e-14
3.750000000e+00	4.083216478e-01	-9.054607376e-03	2.080954323e-13
3.760000000e+00	4.078928174e-01	-9.076240829e-03	1.856914637e-13
3.770000000e+00	4.074653333e-01	-9.097890466e-03	1.781555571e-13
3.780000000e+00	4.070391885e-01	-9.119556278e-03	3.071221303e-13
3.790000000e+00	4.066143760e-01	-9.141238253e-03	8.892742624e-14
3.800000000e+00	4.061908888e-01	-9.162936380e-03	2.515718338e-13
3.810000000e+00	4.057687202e-01	-9.184650649e-03	9.677899184e-14
3.820000000e+00	4.053478633e-01	-9.206381049e-03	3.088595758e-14
3.830000000e+00	4.049283112e-01	-9.228127569e-03	8.647889105e-14
3.840000000e+00	4.045100574e-01	-9.249890200e-03	1.246382473e-13
3.850000000e+00	4.040930951e-01	-9.271668929e-03	1.833858666e-13
3.860000000e+00	4.036774178e-01	-9.293463747e-03	1.355713242e-13
3.870000000e+00	4.032630187e-01	-9.315274642e-03	1.680112007e-13
3.880000000e+00	4.028498915e-01	-9.337101605e-03	4.636837923e-13
3.890000000e+00	4.024380296e-01	-9.358944625e-03	1.078186047e-13
3.900000000e+00	4.020274265e-01	-9.380803690e-03	8.040659477e-14
3.910000000e+00	4.016180760e-01	-9.402678792e-03	1.705433026e-13
3.920000000e+00	4.012099716e-01	-9.424569918e-03	6.784091808e-14
3.930000000e+00	4.008031070e-01	-9.446477059e-03	1.165715275e-13
3.940000000e+00	4.003974761e-01	-9.468400204e-03	1.969799728e-13
3.950000000e+00	3.999930725e-01	-9.490339343e-03	9.680344222e-14
3.960000000e+00	3.995898901e-01	-9.512294464e-03	1.492232674e-13
3.970000000e+00	3.991879228e-01	-9.534265559e-03	1.597934940e-13
3.980000000e+00	3.987871645e-01	-9.556252616e-03	1.457717441e-13
3.990000000e+00	3.983876092e-01	-9.578255625e-03	1.231345073e-13
4.000000000e+00	3.979892508e-01	-9.600274575e-03	1.144615709e-13
4.010000000e+00	3.975920834e-01	-9.622309456e-03	3.071163510e-13
4.020000000e+00	3.971961011e-01	-9.644360259e-03	1.682705893e-13
4.030000000e+00	3.968012981e-01	-9.666426971e-03	1.279266494e-13
4.040000000e+00	3.964076684e-01	-9.688509584e-03	8.994752606e-14
