# R [micrones]     Omega/c [1/micrones]    Im(epsi1)     Eq(det)$\mu$ = 0.3 eV, $E_p$ = 0.900 eV, modo = 3, $\epsilon_\infty$ = 4.9, $\gamma_{DL}$ = 0.01 eV, solve_det_sinkz_vs_R.py
5.000000000e+00	2.307386460e+00	-8.561100374e-02	1.182724165e-14
4.999000000e+00	2.307386246e+00	-8.561067290e-02	1.984015436e-14
4.998000000e+00	2.307386034e+00	-8.561034591e-02	1.228454175e-14
4.997000000e+00	2.307385825e+00	-8.561002278e-02	1.103048382e-14
4.996000000e+00	2.307385619e+00	-8.560970350e-02	1.528619871e-14
4.995000000e+00	2.307385415e+00	-8.560938810e-02	6.827915620e-15
4.994000000e+00	2.307385213e+00	-8.560907656e-02	1.806285033e-14
4.993000000e+00	2.307385014e+00	-8.560876891e-02	7.632163818e-15
4.992000000e+00	2.307384818e+00	-8.560846514e-02	1.569172080e-14
4.991000000e+00	2.307384624e+00	-8.560816527e-02	3.992243807e-15
4.990000000e+00	2.307384432e+00	-8.560786929e-02	7.682232930e-15
4.989000000e+00	2.307384243e+00	-8.560757722e-02	8.472900927e-15
4.988000000e+00	2.307384057e+00	-8.560728906e-02	1.520727813e-14
4.987000000e+00	2.307383873e+00	-8.560700481e-02	6.433410745e-15
4.986000000e+00	2.307383692e+00	-8.560672449e-02	1.326316747e-14
4.985000000e+00	2.307383513e+00	-8.560644809e-02	4.474866737e-15
4.984000000e+00	2.307383337e+00	-8.560617563e-02	1.314296396e-14
4.983000000e+00	2.307383163e+00	-8.560590710e-02	2.022984834e-14
4.982000000e+00	2.307382992e+00	-8.560564252e-02	1.247160070e-14
4.981000000e+00	2.307382823e+00	-8.560538188e-02	1.870332509e-14
4.980000000e+00	2.307382657e+00	-8.560512520e-02	1.539538385e-14
4.979000000e+00	2.307382494e+00	-8.560487248e-02	1.278907110e-14
4.978000000e+00	2.307382333e+00	-8.560462372e-02	1.982568398e-14
4.977000000e+00	2.307382174e+00	-8.560437893e-02	1.344961068e-14
4.976000000e+00	2.307382019e+00	-8.560413812e-02	2.655522472e-14
4.975000000e+00	2.307381865e+00	-8.560390128e-02	2.598604331e-14
4.974000000e+00	2.307381715e+00	-8.560366842e-02	2.278752526e-14
4.973000000e+00	2.307381566e+00	-8.560343955e-02	1.130699770e-14
4.972000000e+00	2.307381421e+00	-8.560321468e-02	9.774362163e-15
4.971000000e+00	2.307381278e+00	-8.560299380e-02	2.586295461e-14
4.970000000e+00	2.307381138e+00	-8.560277692e-02	1.739567560e-14
4.969000000e+00	2.307381000e+00	-8.560256404e-02	1.156419416e-14
4.968000000e+00	2.307380865e+00	-8.560235517e-02	3.038243748e-14
4.967000000e+00	2.307380732e+00	-8.560215032e-02	2.471082934e-14
4.966000000e+00	2.307380602e+00	-8.560194948e-02	2.491542005e-14
4.965000000e+00	2.307380475e+00	-8.560175266e-02	2.304922397e-14
4.964000000e+00	2.307380350e+00	-8.560155986e-02	6.858380244e-15
4.963000000e+00	2.307380228e+00	-8.560137109e-02	1.285891449e-14
4.962000000e+00	2.307380108e+00	-8.560118636e-02	5.600076740e-15
4.961000000e+00	2.307379991e+00	-8.560100565e-02	1.463524249e-14
4.960000000e+00	2.307379877e+00	-8.560082899e-02	1.105069538e-14
4.959000000e+00	2.307379765e+00	-8.560065636e-02	6.162491165e-15
4.958000000e+00	2.307379656e+00	-8.560048778e-02	1.711536072e-14
4.957000000e+00	2.307379550e+00	-8.560032325e-02	7.380909941e-15
4.956000000e+00	2.307379446e+00	-8.560016277e-02	7.941839060e-15
4.955000000e+00	2.307379344e+00	-8.560000634e-02	1.096664398e-14
4.954000000e+00	2.307379246e+00	-8.559985397e-02	1.205499480e-14
4.953000000e+00	2.307379150e+00	-8.559970565e-02	7.847770727e-15
4.952000000e+00	2.307379056e+00	-8.559956140e-02	1.456313133e-14
4.951000000e+00	2.307378966e+00	-8.559942121e-02	1.357653735e-14
4.950000000e+00	2.307378877e+00	-8.559928509e-02	1.442213845e-14
4.949000000e+00	2.307378792e+00	-8.559915304e-02	2.364663462e-14
4.948000000e+00	2.307378709e+00	-8.559902506e-02	6.498672865e-15
4.947000000e+00	2.307378629e+00	-8.559890115e-02	7.593755814e-15
4.946000000e+00	2.307378551e+00	-8.559878132e-02	2.973596921e-14
4.945000000e+00	2.307378476e+00	-8.559866556e-02	1.315953006e-14
4.944000000e+00	2.307378404e+00	-8.559855389e-02	1.602180350e-14
4.943000000e+00	2.307378334e+00	-8.559844630e-02	8.917993105e-15
4.942000000e+00	2.307378267e+00	-8.559834279e-02	1.320063160e-14
4.941000000e+00	2.307378203e+00	-8.559824336e-02	1.820112717e-14
4.940000000e+00	2.307378141e+00	-8.559814803e-02	1.237458180e-14
4.939000000e+00	2.307378082e+00	-8.559805678e-02	1.269773871e-14
4.938000000e+00	2.307378026e+00	-8.559796962e-02	1.616536336e-14
4.937000000e+00	2.307377972e+00	-8.559788656e-02	1.398640349e-14
4.936000000e+00	2.307377921e+00	-8.559780758e-02	2.377081133e-14
4.935000000e+00	2.307377872e+00	-8.559773270e-02	7.480673089e-15
4.934000000e+00	2.307377826e+00	-8.559766192e-02	1.369776921e-14
4.933000000e+00	2.307377783e+00	-8.559759523e-02	8.026763767e-15
4.932000000e+00	2.307377743e+00	-8.559753264e-02	2.496653153e-14
4.931000000e+00	2.307377705e+00	-8.559747414e-02	5.283690348e-15
4.930000000e+00	2.307377670e+00	-8.559741975e-02	6.446968334e-15
4.929000000e+00	2.307377637e+00	-8.559736945e-02	1.316380588e-14
4.928000000e+00	2.307377607e+00	-8.559732326e-02	1.932570344e-14
4.927000000e+00	2.307377580e+00	-8.559728116e-02	1.197597237e-14
4.926000000e+00	2.307377555e+00	-8.559724317e-02	1.699643126e-14
4.925000000e+00	2.307377533e+00	-8.559720928e-02	7.869101319e-15
4.924000000e+00	2.307377514e+00	-8.559717949e-02	1.105850895e-14
4.923000000e+00	2.307377497e+00	-8.559715380e-02	1.408108482e-14
4.922000000e+00	2.307377483e+00	-8.559713221e-02	1.857108104e-14
4.921000000e+00	2.307377472e+00	-8.559711473e-02	1.026502693e-14
4.920000000e+00	2.307377463e+00	-8.559710135e-02	1.963834113e-14
4.919000000e+00	2.307377457e+00	-8.559709207e-02	1.341497624e-14
4.918000000e+00	2.307377454e+00	-8.559708690e-02	1.157427249e-14
4.917000000e+00	2.307377453e+00	-8.559708582e-02	1.776091101e-14
4.916000000e+00	2.307377455e+00	-8.559708885e-02	2.970316404e-15
4.915000000e+00	2.307377460e+00	-8.559709598e-02	1.146551581e-14
4.914000000e+00	2.307377467e+00	-8.559710721e-02	1.042070919e-14
4.913000000e+00	2.307377477e+00	-8.559712254e-02	1.725554011e-14
4.912000000e+00	2.307377490e+00	-8.559714196e-02	2.421518068e-14
4.911000000e+00	2.307377505e+00	-8.559716549e-02	1.216713582e-14
4.910000000e+00	2.307377523e+00	-8.559719312e-02	1.268076699e-14
4.909000000e+00	2.307377543e+00	-8.559722484e-02	1.423443765e-14
4.908000000e+00	2.307377567e+00	-8.559726066e-02	8.991560500e-15
4.907000000e+00	2.307377592e+00	-8.559730057e-02	1.075806679e-14
4.906000000e+00	2.307377621e+00	-8.559734458e-02	9.507308545e-15
4.905000000e+00	2.307377652e+00	-8.559739268e-02	1.251559203e-14
4.904000000e+00	2.307377686e+00	-8.559744487e-02	1.166886375e-14
4.903000000e+00	2.307377722e+00	-8.559750115e-02	2.141705693e-14
4.902000000e+00	2.307377762e+00	-8.559756152e-02	1.241851654e-14
4.901000000e+00	2.307377803e+00	-8.559762597e-02	9.081724708e-15
4.900000000e+00	2.307377848e+00	-8.559769451e-02	1.089932633e-14
4.899000000e+00	2.307377895e+00	-8.559776714e-02	1.049366664e-14
4.898000000e+00	2.307377945e+00	-8.559784385e-02	1.332437579e-14
4.897000000e+00	2.307377997e+00	-8.559792463e-02	1.033421804e-14
4.896000000e+00	2.307378052e+00	-8.559800950e-02	1.355422729e-14
4.895000000e+00	2.307378110e+00	-8.559809844e-02	1.857307072e-14
4.894000000e+00	2.307378170e+00	-8.559819146e-02	9.621558306e-15
4.893000000e+00	2.307378233e+00	-8.559828855e-02	1.192502390e-14
4.892000000e+00	2.307378298e+00	-8.559838971e-02	1.217522232e-14
4.891000000e+00	2.307378367e+00	-8.559849493e-02	1.425665582e-14
4.890000000e+00	2.307378437e+00	-8.559860423e-02	1.693410179e-14
4.889000000e+00	2.307378511e+00	-8.559871758e-02	2.481012498e-14
4.888000000e+00	2.307378587e+00	-8.559883500e-02	1.235409276e-14
4.887000000e+00	2.307378666e+00	-8.559895647e-02	1.273171935e-14
4.886000000e+00	2.307378747e+00	-8.559908200e-02	9.918719252e-15
4.885000000e+00	2.307378831e+00	-8.559921158e-02	1.678735586e-14
4.884000000e+00	2.307378918e+00	-8.559934521e-02	1.555669446e-14
4.883000000e+00	2.307379007e+00	-8.559948288e-02	1.039412380e-14
4.882000000e+00	2.307379099e+00	-8.559962461e-02	1.478080168e-14
4.881000000e+00	2.307379194e+00	-8.559977037e-02	1.944965442e-14
4.880000000e+00	2.307379291e+00	-8.559992017e-02	8.095898436e-15
4.879000000e+00	2.307379390e+00	-8.560007400e-02	1.137267252e-14
4.878000000e+00	2.307379493e+00	-8.560023187e-02	4.748886591e-15
4.877000000e+00	2.307379598e+00	-8.560039376e-02	8.572142306e-15
4.876000000e+00	2.307379705e+00	-8.560055968e-02	2.434110044e-14
4.875000000e+00	2.307379816e+00	-8.560072962e-02	9.970673081e-15
4.874000000e+00	2.307379928e+00	-8.560090357e-02	1.332397250e-14
4.873000000e+00	2.307380044e+00	-8.560108154e-02	1.548277286e-14
4.872000000e+00	2.307380162e+00	-8.560126352e-02	1.613103169e-14
4.871000000e+00	2.307380282e+00	-8.560144951e-02	1.041125687e-14
4.870000000e+00	2.307380406e+00	-8.560163950e-02	5.470048443e-15
4.869000000e+00	2.307380531e+00	-8.560183349e-02	2.480028030e-14
4.868000000e+00	2.307380660e+00	-8.560203148e-02	1.058702407e-14
4.867000000e+00	2.307380791e+00	-8.560223345e-02	1.827619908e-14
4.866000000e+00	2.307380924e+00	-8.560243942e-02	1.470334882e-14
4.865000000e+00	2.307381061e+00	-8.560264936e-02	2.817513351e-14
4.864000000e+00	2.307381199e+00	-8.560286329e-02	1.338819164e-14
4.863000000e+00	2.307381341e+00	-8.560308119e-02	1.104255926e-14
4.862000000e+00	2.307381485e+00	-8.560330306e-02	1.118262022e-14
4.861000000e+00	2.307381631e+00	-8.560352889e-02	3.343837900e-14
4.860000000e+00	2.307381780e+00	-8.560375869e-02	1.436823545e-14
4.859000000e+00	2.307381932e+00	-8.560399244e-02	9.557339932e-15
4.858000000e+00	2.307382086e+00	-8.560423014e-02	1.644067046e-14
4.857000000e+00	2.307382243e+00	-8.560447179e-02	5.927109933e-15
4.856000000e+00	2.307382402e+00	-8.560471739e-02	1.051148357e-14
4.855000000e+00	2.307382564e+00	-8.560496692e-02	8.620692816e-15
4.854000000e+00	2.307382728e+00	-8.560522038e-02	1.168417130e-14
4.853000000e+00	2.307382895e+00	-8.560547777e-02	2.508561545e-14
4.852000000e+00	2.307383065e+00	-8.560573909e-02	8.781578414e-15
4.851000000e+00	2.307383237e+00	-8.560600432e-02	1.842541275e-14
4.850000000e+00	2.307383412e+00	-8.560627346e-02	1.155705900e-14
4.849000000e+00	2.307383589e+00	-8.560654651e-02	8.681441233e-15
4.848000000e+00	2.307383768e+00	-8.560682347e-02	1.088198972e-14
4.847000000e+00	2.307383951e+00	-8.560710431e-02	1.781861498e-14
4.846000000e+00	2.307384135e+00	-8.560738906e-02	2.389913771e-14
4.845000000e+00	2.307384323e+00	-8.560767768e-02	1.966642479e-14
4.844000000e+00	2.307384513e+00	-8.560797019e-02	2.660930300e-14
4.843000000e+00	2.307384705e+00	-8.560826657e-02	1.945583534e-14
4.842000000e+00	2.307384900e+00	-8.560856682e-02	1.725822166e-14
4.841000000e+00	2.307385097e+00	-8.560887093e-02	1.086218838e-14
4.840000000e+00	2.307385297e+00	-8.560917890e-02	1.088645703e-14
4.839000000e+00	2.307385499e+00	-8.560949072e-02	1.075929388e-14
4.838000000e+00	2.307385704e+00	-8.560980639e-02	1.070352075e-14
4.837000000e+00	2.307385911e+00	-8.561012590e-02	1.678011369e-14
4.836000000e+00	2.307386121e+00	-8.561044924e-02	1.628318175e-14
4.835000000e+00	2.307386334e+00	-8.561077641e-02	9.084838925e-15
4.834000000e+00	2.307386548e+00	-8.561110740e-02	1.813339874e-14
4.833000000e+00	2.307386766e+00	-8.561144220e-02	8.644339145e-15
4.832000000e+00	2.307386985e+00	-8.561178081e-02	1.008423151e-14
4.831000000e+00	2.307387208e+00	-8.561212323e-02	2.380226960e-14
4.830000000e+00	2.307387432e+00	-8.561246944e-02	3.243575403e-14
4.829000000e+00	2.307387659e+00	-8.561281944e-02	1.133568047e-14
4.828000000e+00	2.307387889e+00	-8.561317322e-02	5.699464667e-15
4.827000000e+00	2.307388121e+00	-8.561353078e-02	1.215922226e-14
4.826000000e+00	2.307388356e+00	-8.561389211e-02	1.273374401e-14
4.825000000e+00	2.307388593e+00	-8.561425720e-02	1.540558984e-14
4.824000000e+00	2.307388832e+00	-8.561462605e-02	1.926577856e-14
4.823000000e+00	2.307389074e+00	-8.561499865e-02	8.839216466e-15
4.822000000e+00	2.307389318e+00	-8.561537499e-02	1.017400232e-14
4.821000000e+00	2.307389565e+00	-8.561575506e-02	9.547350647e-15
4.820000000e+00	2.307389814e+00	-8.561613886e-02	6.769933344e-15
4.819000000e+00	2.307390066e+00	-8.561652639e-02	1.031549170e-14
4.818000000e+00	2.307390320e+00	-8.561691763e-02	1.587570769e-14
4.817000000e+00	2.307390576e+00	-8.561731257e-02	5.084233579e-15
4.816000000e+00	2.307390835e+00	-8.561771122e-02	1.287482677e-14
4.815000000e+00	2.307391096e+00	-8.561811356e-02	1.527929588e-14
4.814000000e+00	2.307391359e+00	-8.561851958e-02	1.254403078e-14
4.813000000e+00	2.307391625e+00	-8.561892929e-02	8.209754463e-15
4.812000000e+00	2.307391894e+00	-8.561934266e-02	1.349938949e-14
4.811000000e+00	2.307392165e+00	-8.561975969e-02	9.508345849e-15
4.810000000e+00	2.307392438e+00	-8.562018038e-02	1.024266044e-14
4.809000000e+00	2.307392713e+00	-8.562060472e-02	4.912342353e-15
4.808000000e+00	2.307392991e+00	-8.562103270e-02	1.000871221e-14
4.807000000e+00	2.307393271e+00	-8.562146431e-02	1.367978106e-14
4.806000000e+00	2.307393554e+00	-8.562189954e-02	1.154109982e-14
4.805000000e+00	2.307393839e+00	-8.562233839e-02	9.650509856e-15
4.804000000e+00	2.307394126e+00	-8.562278085e-02	9.664113382e-15
4.803000000e+00	2.307394416e+00	-8.562322691e-02	1.390491175e-14
4.802000000e+00	2.307394708e+00	-8.562367657e-02	1.795212730e-14
4.801000000e+00	2.307395002e+00	-8.562412981e-02	1.968327936e-14
4.800000000e+00	2.307395298e+00	-8.562458662e-02	1.273949158e-14
4.799000000e+00	2.307395597e+00	-8.562504700e-02	1.052951711e-14
4.798000000e+00	2.307395899e+00	-8.562551095e-02	1.555502940e-14
4.797000000e+00	2.307396202e+00	-8.562597844e-02	1.431382931e-14
4.796000000e+00	2.307396508e+00	-8.562644948e-02	1.295981193e-14
4.795000000e+00	2.307396816e+00	-8.562692405e-02	9.771834076e-15
4.794000000e+00	2.307397127e+00	-8.562740215e-02	1.202191187e-14
4.793000000e+00	2.307397439e+00	-8.562788377e-02	1.534435592e-14
4.792000000e+00	2.307397754e+00	-8.562836890e-02	1.041567528e-14
4.791000000e+00	2.307398072e+00	-8.562885753e-02	8.656691584e-15
4.790000000e+00	2.307398391e+00	-8.562934965e-02	6.652264160e-15
4.789000000e+00	2.307398713e+00	-8.562984526e-02	1.726781913e-14
4.788000000e+00	2.307399037e+00	-8.563034434e-02	7.845737813e-15
4.787000000e+00	2.307399364e+00	-8.563084689e-02	8.807735746e-15
4.786000000e+00	2.307399692e+00	-8.563135289e-02	1.554433137e-14
4.785000000e+00	2.307400023e+00	-8.563186234e-02	1.768931808e-14
4.784000000e+00	2.307400356e+00	-8.563237524e-02	8.218181264e-15
4.783000000e+00	2.307400692e+00	-8.563289156e-02	5.537995764e-15
4.782000000e+00	2.307401029e+00	-8.563341131e-02	1.521644533e-14
4.781000000e+00	2.307401369e+00	-8.563393447e-02	2.267981518e-14
4.780000000e+00	2.307401711e+00	-8.563446103e-02	1.172844052e-14
4.779000000e+00	2.307402055e+00	-8.563499098e-02	1.793638045e-14
4.778000000e+00	2.307402401e+00	-8.563552432e-02	1.332438038e-14
4.777000000e+00	2.307402750e+00	-8.563606104e-02	7.303289244e-15
4.776000000e+00	2.307403101e+00	-8.563660113e-02	1.315022536e-14
4.775000000e+00	2.307403454e+00	-8.563714457e-02	4.399135584e-15
4.774000000e+00	2.307403809e+00	-8.563769135e-02	1.335028728e-14
4.773000000e+00	2.307404166e+00	-8.563824148e-02	8.576024794e-15
4.772000000e+00	2.307404526e+00	-8.563879494e-02	1.986526324e-14
4.771000000e+00	2.307404887e+00	-8.563935171e-02	1.000794174e-14
4.770000000e+00	2.307405251e+00	-8.563991180e-02	2.059370778e-14
4.769000000e+00	2.307405617e+00	-8.564047518e-02	6.739851105e-15
4.768000000e+00	2.307405985e+00	-8.564104186e-02	1.675875093e-14
4.767000000e+00	2.307406355e+00	-8.564161181e-02	1.336690851e-14
4.766000000e+00	2.307406728e+00	-8.564218504e-02	1.048171377e-14
4.765000000e+00	2.307407102e+00	-8.564276153e-02	1.842987295e-14
4.764000000e+00	2.307407479e+00	-8.564334127e-02	1.885052269e-14
4.763000000e+00	2.307407857e+00	-8.564392425e-02	7.876768615e-15
4.762000000e+00	2.307408238e+00	-8.564451046e-02	1.396705247e-14
4.761000000e+00	2.307408621e+00	-8.564509989e-02	2.111081055e-14
4.760000000e+00	2.307409006e+00	-8.564569253e-02	1.590747182e-14
4.759000000e+00	2.307409393e+00	-8.564628838e-02	7.267056694e-15
4.758000000e+00	2.307409782e+00	-8.564688742e-02	1.180126969e-14
4.757000000e+00	2.307410174e+00	-8.564748963e-02	2.070810555e-14
4.756000000e+00	2.307410567e+00	-8.564809502e-02	1.230615978e-14
4.755000000e+00	2.307410962e+00	-8.564870357e-02	1.576250872e-14
4.754000000e+00	2.307411359e+00	-8.564931527e-02	8.237400512e-15
4.753000000e+00	2.307411759e+00	-8.564993011e-02	6.925043881e-15
4.752000000e+00	2.307412160e+00	-8.565054807e-02	8.613181056e-15
4.751000000e+00	2.307412564e+00	-8.565116916e-02	1.114283243e-14
4.750000000e+00	2.307412969e+00	-8.565179336e-02	1.385449755e-14
4.749000000e+00	2.307413377e+00	-8.565242065e-02	1.392672330e-14
4.748000000e+00	2.307413786e+00	-8.565305103e-02	1.069870126e-14
4.747000000e+00	2.307414198e+00	-8.565368449e-02	1.140361359e-14
4.746000000e+00	2.307414612e+00	-8.565432101e-02	1.154896186e-14
4.745000000e+00	2.307415027e+00	-8.565496059e-02	1.078863294e-14
4.744000000e+00	2.307415445e+00	-8.565560322e-02	1.719203535e-14
4.743000000e+00	2.307415864e+00	-8.565624888e-02	2.921741690e-14
4.742000000e+00	2.307416285e+00	-8.565689756e-02	1.189337683e-14
4.741000000e+00	2.307416709e+00	-8.565754926e-02	9.368340160e-15
4.740000000e+00	2.307417134e+00	-8.565820395e-02	5.494337802e-15
4.739000000e+00	2.307417562e+00	-8.565886164e-02	7.927300474e-15
4.738000000e+00	2.307417991e+00	-8.565952231e-02	1.280957926e-14
4.737000000e+00	2.307418422e+00	-8.566018595e-02	1.316202061e-14
4.736000000e+00	2.307418855e+00	-8.566085254e-02	1.290382687e-14
4.735000000e+00	2.307419290e+00	-8.566152208e-02	3.504802085e-15
4.734000000e+00	2.307419727e+00	-8.566219456e-02	8.268522011e-15
4.733000000e+00	2.307420166e+00	-8.566286996e-02	2.304035390e-14
4.732000000e+00	2.307420607e+00	-8.566354828e-02	2.197958158e-14
4.731000000e+00	2.307421049e+00	-8.566422949e-02	9.937317379e-15
4.730000000e+00	2.307421494e+00	-8.566491360e-02	1.140621435e-14
4.729000000e+00	2.307421940e+00	-8.566560059e-02	3.533604179e-15
4.728000000e+00	2.307422388e+00	-8.566629045e-02	1.013197636e-14
4.727000000e+00	2.307422838e+00	-8.566698316e-02	8.653881684e-15
4.726000000e+00	2.307423290e+00	-8.566767872e-02	9.610279110e-15
4.725000000e+00	2.307423744e+00	-8.566837712e-02	2.074730625e-14
4.724000000e+00	2.307424200e+00	-8.566907833e-02	2.463148463e-14
4.723000000e+00	2.307424657e+00	-8.566978236e-02	9.566649426e-15
4.722000000e+00	2.307425116e+00	-8.567048919e-02	1.427451952e-14
4.721000000e+00	2.307425578e+00	-8.567119880e-02	1.482295053e-14
4.720000000e+00	2.307426040e+00	-8.567191120e-02	1.440232299e-14
4.719000000e+00	2.307426505e+00	-8.567262635e-02	2.976899516e-14
4.718000000e+00	2.307426972e+00	-8.567334426e-02	8.358740586e-15
4.717000000e+00	2.307427440e+00	-8.567406492e-02	1.681593508e-14
4.716000000e+00	2.307427910e+00	-8.567478830e-02	7.984315187e-15
4.715000000e+00	2.307428382e+00	-8.567551440e-02	5.235885548e-15
4.714000000e+00	2.307428855e+00	-8.567624321e-02	1.690046998e-14
4.713000000e+00	2.307429331e+00	-8.567697471e-02	5.022085669e-15
4.712000000e+00	2.307429808e+00	-8.567770889e-02	1.216317820e-14
4.711000000e+00	2.307430286e+00	-8.567844575e-02	4.796003518e-15
4.710000000e+00	2.307430767e+00	-8.567918526e-02	8.447940324e-15
4.709000000e+00	2.307431249e+00	-8.567992742e-02	1.464683325e-14
4.708000000e+00	2.307431733e+00	-8.568067222e-02	1.668949908e-14
4.707000000e+00	2.307432219e+00	-8.568141963e-02	2.212316997e-14
4.706000000e+00	2.307432706e+00	-8.568216966e-02	1.373094350e-14
4.705000000e+00	2.307433195e+00	-8.568292229e-02	9.222668980e-15
4.704000000e+00	2.307433686e+00	-8.568367750e-02	1.029296673e-14
4.703000000e+00	2.307434179e+00	-8.568443529e-02	1.323696564e-14
4.702000000e+00	2.307434673e+00	-8.568519564e-02	8.634158512e-15
4.701000000e+00	2.307435168e+00	-8.568595854e-02	8.045621633e-15
4.700000000e+00	2.307435666e+00	-8.568672397e-02	3.761990134e-14
4.699000000e+00	2.307436165e+00	-8.568749194e-02	1.975043215e-14
4.698000000e+00	2.307436665e+00	-8.568826241e-02	1.322827717e-14
4.697000000e+00	2.307437168e+00	-8.568903539e-02	2.111363947e-14
