# kz [1/micrones]     Omega [THz]    log10(|det|)     , $\mu_c$ = 0.3000 eV, modo = 1, R = 1.50$\mu$m, $\eta$ = 0.90, plot_det_conkz.py
3.00000000000e-01	1.32021281123e+01	-2.36645529982e+00
3.10000000000e-01	1.32530048907e+01	-2.42396790470e+00
3.20000000000e-01	1.33050907814e+01	-2.47952254338e+00
3.30000000000e-01	1.33583459419e+01	-2.53324344921e+00
3.40000000000e-01	1.34127304995e+01	-2.58524317019e+00
3.50000000000e-01	1.34682046361e+01	-2.63562402224e+00
3.60000000000e-01	1.35247286836e+01	-2.68447932066e+00
3.70000000000e-01	1.35822631651e+01	-2.73189442938e+00
3.80000000000e-01	1.36407688661e+01	-2.77794765966e+00
3.90000000000e-01	1.37002069113e+01	-2.82271104361e+00
4.00000000000e-01	1.37605387872e+01	-2.86625100306e+00
4.10000000000e-01	1.38217264176e+01	-2.90862893038e+00
4.20000000000e-01	1.38837322081e+01	-2.94990169494e+00
4.30000000000e-01	1.39465190828e+01	-2.99012208641e+00
4.40000000000e-01	1.40100505090e+01	-3.02933920423e+00
4.50000000000e-01	1.40742905706e+01	-3.06759880086e+00
4.60000000000e-01	1.41392039606e+01	-3.10494358546e+00
4.70000000000e-01	1.42047560402e+01	-3.14141349321e+00
4.80000000000e-01	1.42709128368e+01	-3.17704592503e+00
4.90000000000e-01	1.43376410897e+01	-3.21187596145e+00
5.00000000000e-01	1.44049082391e+01	-3.24593655396e+00
5.10000000000e-01	1.44726824914e+01	-3.27925869674e+00
5.20000000000e-01	1.45409327818e+01	-3.31187158097e+00
5.30000000000e-01	1.46096288179e+01	-3.34380273405e+00
5.40000000000e-01	1.46787410740e+01	-3.37507814533e+00
5.50000000000e-01	1.47482408017e+01	-3.40572237993e+00
5.60000000000e-01	1.48181000308e+01	-3.43575868208e+00
5.70000000000e-01	1.48882915853e+01	-3.46520906901e+00
5.80000000000e-01	1.49587890707e+01	-3.49409441652e+00
5.90000000000e-01	1.50295668564e+01	-3.52243453707e+00
6.00000000000e-01	1.51006001355e+01	-3.55024825118e+00
6.10000000000e-01	1.51718648352e+01	-3.57755345282e+00
6.20000000000e-01	1.52433376799e+01	-3.60436716940e+00
6.30000000000e-01	1.53149961628e+01	-3.63070561689e+00
6.40000000000e-01	1.53868185033e+01	-3.65658425060e+00
6.50000000000e-01	1.54587837180e+01	-3.68201781188e+00
6.60000000000e-01	1.55308715200e+01	-3.70702037136e+00
6.70000000000e-01	1.56030623723e+01	-3.73160536879e+00
6.80000000000e-01	1.56753374555e+01	-3.75578565005e+00
6.90000000000e-01	1.57476786457e+01	-3.77957350131e+00
7.00000000000e-01	1.58200685246e+01	-3.80298068085e+00
7.10000000000e-01	1.58924903552e+01	-3.82601844859e+00
7.20000000000e-01	1.59649280475e+01	-3.84869759349e+00
7.30000000000e-01	1.60373661887e+01	-3.87102845917e+00
7.40000000000e-01	1.61097899893e+01	-3.89302096777e+00
7.50000000000e-01	1.61821852931e+01	-3.91468464216e+00
7.60000000000e-01	1.62545385521e+01	-3.93602862678e+00
7.70000000000e-01	1.63268368082e+01	-3.95706170703e+00
7.80000000000e-01	1.63990676856e+01	-3.97779232754e+00
7.90000000000e-01	1.64712193815e+01	-3.99822860921e+00
8.00000000000e-01	1.65432806276e+01	-4.01837836519e+00
8.10000000000e-01	1.66152407101e+01	-4.03824911591e+00
8.20000000000e-01	1.66870894172e+01	-4.05784810323e+00
8.30000000000e-01	1.67588170569e+01	-4.07718230367e+00
8.40000000000e-01	1.68304144089e+01	-4.09625844092e+00
8.50000000000e-01	1.69018727561e+01	-4.11508299761e+00
8.60000000000e-01	1.69731838106e+01	-4.13366222637e+00
8.70000000000e-01	1.70443397619e+01	-4.15200216034e+00
8.80000000000e-01	1.71153332035e+01	-4.17010862301e+00
8.90000000000e-01	1.71861571686e+01	-4.18798723755e+00
9.00000000000e-01	1.72568050841e+01	-4.20564343563e+00
9.10000000000e-01	1.73272707543e+01	-4.22308246577e+00
9.20000000000e-01	1.73975483985e+01	-4.24030940125e+00
9.30000000000e-01	1.74676325632e+01	-4.25732914753e+00
9.40000000000e-01	1.75375181658e+01	-4.27414644939e+00
9.50000000000e-01	1.76072004508e+01	-4.29076589763e+00
9.60000000000e-01	1.76766749950e+01	-4.30719193544e+00
9.70000000000e-01	1.77459376787e+01	-4.32342886448e+00
9.80000000000e-01	1.78149847170e+01	-4.33948085059e+00
9.90000000000e-01	1.78838125730e+01	-4.35535192926e+00
1.00000000000e+00	1.79524180070e+01	-4.37104601088e+00
1.01000000000e+00	1.80207980548e+01	-4.38656688559e+00
1.02000000000e+00	1.80889499962e+01	-4.40191822808e+00
1.03000000000e+00	1.81568713663e+01	-4.41710360199e+00
1.04000000000e+00	1.82245599337e+01	-4.43212646424e+00
1.05000000000e+00	1.82920136995e+01	-4.44699016907e+00
1.06000000000e+00	1.83592308745e+01	-4.46169797192e+00
1.07000000000e+00	1.84262098768e+01	-4.47625303313e+00
1.08000000000e+00	1.84929493329e+01	-4.49065842148e+00
1.09000000000e+00	1.85594480463e+01	-4.50491711760e+00
1.10000000000e+00	1.86257050181e+01	-4.51903201710e+00
1.11000000000e+00	1.86917194050e+01	-4.53300593377e+00
1.12000000000e+00	1.87574905402e+01	-4.54684160241e+00
1.13000000000e+00	1.88230179151e+01	-4.56054168174e+00
1.14000000000e+00	1.88883011716e+01	-4.57410875703e+00
1.15000000000e+00	1.89533400749e+01	-4.58754534273e+00
1.16000000000e+00	1.90181345669e+01	-4.60085388489e+00
1.17000000000e+00	1.90826846710e+01	-4.61403676358e+00
1.18000000000e+00	1.91469905678e+01	-4.62709629510e+00
1.19000000000e+00	1.92110525426e+01	-4.64003473419e+00
1.20000000000e+00	1.92748709909e+01	-4.65285427612e+00
1.21000000000e+00	1.93384464134e+01	-4.66555705866e+00
1.22000000000e+00	1.94017794008e+01	-4.67814516400e+00
1.23000000000e+00	1.94648706588e+01	-4.69062062063e+00
1.24000000000e+00	1.95277209578e+01	-4.70298540504e+00
1.25000000000e+00	1.95903311762e+01	-4.71524144348e+00
1.26000000000e+00	1.96527022410e+01	-4.72739061355e+00
1.27000000000e+00	1.97148351765e+01	-4.73943474578e+00
1.28000000000e+00	1.97767310595e+01	-4.75137562515e+00
1.29000000000e+00	1.98383910491e+01	-4.76321499251e+00
1.30000000000e+00	1.98998163524e+01	-4.77495454598e+00
1.31000000000e+00	1.99610082421e+01	-4.78659594229e+00
1.32000000000e+00	2.00219680323e+01	-4.79814079808e+00
1.33000000000e+00	2.00826970957e+01	-4.80959069114e+00
1.34000000000e+00	2.01431968445e+01	-4.82094716159e+00
1.35000000000e+00	2.02034687500e+01	-4.83221171302e+00
1.36000000000e+00	2.02635142889e+01	-4.84338581364e+00
1.37000000000e+00	2.03233350164e+01	-4.85447089729e+00
1.38000000000e+00	2.03829324861e+01	-4.86546836454e+00
1.39000000000e+00	2.04423083057e+01	-4.87637958361e+00
1.40000000000e+00	2.05014640958e+01	-4.88720589137e+00
1.41000000000e+00	2.05604015082e+01	-4.89794859425e+00
1.42000000000e+00	2.06191222208e+01	-4.90860896912e+00
1.43000000000e+00	2.06776279186e+01	-4.91918826417e+00
1.44000000000e+00	2.07359203355e+01	-4.92968769972e+00
1.45000000000e+00	2.07940011801e+01	-4.94010846903e+00
1.46000000000e+00	2.08518722042e+01	-4.95045173905e+00
1.47000000000e+00	2.09095351591e+01	-4.96071865120e+00
1.48000000000e+00	2.09669918251e+01	-4.97091032208e+00
1.49000000000e+00	2.10242439527e+01	-4.98102784413e+00
1.50000000000e+00	2.10812933475e+01	-4.99107228636e+00
1.51000000000e+00	2.11381417875e+01	-5.00104469496e+00
1.52000000000e+00	2.11947910686e+01	-5.01094609392e+00
1.53000000000e+00	2.12512429812e+01	-5.02077748568e+00
1.54000000000e+00	2.13074993239e+01	-5.03053985169e+00
1.55000000000e+00	2.13635618800e+01	-5.04023415296e+00
1.56000000000e+00	2.14194324556e+01	-5.04986133066e+00
1.57000000000e+00	2.14751128464e+01	-5.05942230660e+00
1.58000000000e+00	2.15306048285e+01	-5.06891798377e+00
1.59000000000e+00	2.15859101959e+01	-5.07834924684e+00
1.60000000000e+00	2.16410307192e+01	-5.08771696264e+00
1.61000000000e+00	2.16959681683e+01	-5.09702198062e+00
1.62000000000e+00	2.17507243232e+01	-5.10626513329e+00
1.63000000000e+00	2.18053009333e+01	-5.11544723671e+00
1.64000000000e+00	2.18596997440e+01	-5.12456909083e+00
1.65000000000e+00	2.19139224993e+01	-5.13363148000e+00
1.66000000000e+00	2.19679709195e+01	-5.14263517327e+00
1.67000000000e+00	2.20218467376e+01	-5.15158092487e+00
1.68000000000e+00	2.20755516452e+01	-5.16046947450e+00
1.69000000000e+00	2.21290873518e+01	-5.16930154775e+00
1.70000000000e+00	2.21824555368e+01	-5.17807785644e+00
1.71000000000e+00	2.22356578641e+01	-5.18679909893e+00
1.72000000000e+00	2.22886959994e+01	-5.19546596050e+00
1.73000000000e+00	2.23415715824e+01	-5.20407911364e+00
1.74000000000e+00	2.23942862493e+01	-5.21263921837e+00
1.75000000000e+00	2.24468416084e+01	-5.22114692253e+00
1.76000000000e+00	2.24992392721e+01	-5.22960286211e+00
1.77000000000e+00	2.25514808102e+01	-5.23800766149e+00
1.78000000000e+00	2.26035678165e+01	-5.24636193374e+00
1.79000000000e+00	2.26555018325e+01	-5.25466628090e+00
1.80000000000e+00	2.27072844098e+01	-5.26292129420e+00
1.81000000000e+00	2.27589170671e+01	-5.27112755438e+00
1.82000000000e+00	2.28104013147e+01	-5.27928563187e+00
1.83000000000e+00	2.28617386514e+01	-5.28739608705e+00
1.84000000000e+00	2.29129305610e+01	-5.29545947052e+00
1.85000000000e+00	2.29639784903e+01	-5.30347632327e+00
1.86000000000e+00	2.30148838984e+01	-5.31144717694e+00
1.87000000000e+00	2.30656482149e+01	-5.31937255400e+00
1.88000000000e+00	2.31162728595e+01	-5.32725296799e+00
1.89000000000e+00	2.31667592183e+01	-5.33508892371e+00
1.90000000000e+00	2.32171086730e+01	-5.34288091742e+00
1.91000000000e+00	2.32673225921e+01	-5.35062943700e+00
1.92000000000e+00	2.33174023256e+01	-5.35833496219e+00
1.93000000000e+00	2.33673492093e+01	-5.36599796472e+00
1.94000000000e+00	2.34171645595e+01	-5.37361890853e+00
1.95000000000e+00	2.34668496708e+01	-5.38119824991e+00
1.96000000000e+00	2.35164058278e+01	-5.38873643766e+00
1.97000000000e+00	2.35658343055e+01	-5.39623391329e+00
1.98000000000e+00	2.36151363595e+01	-5.40369111115e+00
1.99000000000e+00	2.36643132085e+01	-5.41110845859e+00
2.00000000000e+00	2.37133660856e+01	-5.41848637609e+00
2.01000000000e+00	2.37622961970e+01	-5.42582527746e+00
2.02000000000e+00	2.38111047344e+01	-5.43312556992e+00
2.03000000000e+00	2.38597928547e+01	-5.44038765427e+00
2.04000000000e+00	2.39083617233e+01	-5.44761192503e+00
2.05000000000e+00	2.39568125014e+01	-5.45479877055e+00
2.06000000000e+00	2.40051462869e+01	-5.46194857316e+00
2.07000000000e+00	2.40533642168e+01	-5.46906170927e+00
2.08000000000e+00	2.41014673824e+01	-5.47613854950e+00
2.09000000000e+00	2.41494568529e+01	-5.48317945884e+00
2.10000000000e+00	2.41973337096e+01	-5.49018479668e+00
2.11000000000e+00	2.42450990039e+01	-5.49715491701e+00
2.12000000000e+00	2.42927537676e+01	-5.50409016847e+00
2.13000000000e+00	2.43402990362e+01	-5.51099089448e+00
2.14000000000e+00	2.43877358169e+01	-5.51785743335e+00
2.15000000000e+00	2.44350651047e+01	-5.52469011837e+00
2.16000000000e+00	2.44822878786e+01	-5.53148927791e+00
2.17000000000e+00	2.45294051238e+01	-5.53825523552e+00
2.18000000000e+00	2.45764177800e+01	-5.54498831003e+00
2.19000000000e+00	2.46233267882e+01	-5.55168881563e+00
2.20000000000e+00	2.46701330816e+01	-5.55835706198e+00
2.21000000000e+00	2.47168375891e+01	-5.56499335427e+00
2.22000000000e+00	2.47634411999e+01	-5.57159799332e+00
2.23000000000e+00	2.48099448035e+01	-5.57817127568e+00
2.24000000000e+00	2.48563492895e+01	-5.58471349368e+00
2.25000000000e+00	2.49026555149e+01	-5.59122493553e+00
2.26000000000e+00	2.49488643275e+01	-5.59770588539e+00
2.27000000000e+00	2.49949765786e+01	-5.60415662347e+00
2.28000000000e+00	2.50409930988e+01	-5.61057742605e+00
2.29000000000e+00	2.50869146978e+01	-5.61696856562e+00
2.30000000000e+00	2.51327421894e+01	-5.62333031089e+00
2.31000000000e+00	2.51784763528e+01	-5.62966292689e+00
2.32000000000e+00	2.52241180005e+01	-5.63596667507e+00
2.33000000000e+00	2.52696678776e+01	-5.64224181328e+00
2.34000000000e+00	2.53151267524e+01	-5.64848859591e+00
2.35000000000e+00	2.53604953792e+01	-5.65470727393e+00
2.36000000000e+00	2.54057744882e+01	-5.66089809495e+00
2.37000000000e+00	2.54509648258e+01	-5.66706130328e+00
2.38000000000e+00	2.54960670995e+01	-5.67319713997e+00
2.39000000000e+00	2.55410820209e+01	-5.67930584292e+00
2.40000000000e+00	2.55860102763e+01	-5.68538764687e+00
2.41000000000e+00	2.56308525748e+01	-5.69144278352e+00
2.42000000000e+00	2.56756095784e+01	-5.69747148153e+00
2.43000000000e+00	2.57202819641e+01	-5.70347396660e+00
2.44000000000e+00	2.57648703952e+01	-5.70945046153e+00
2.45000000000e+00	2.58093755183e+01	-5.71540118625e+00
2.46000000000e+00	2.58537979656e+01	-5.72132635787e+00
2.47000000000e+00	2.58981383842e+01	-5.72722619074e+00
2.48000000000e+00	2.59423973867e+01	-5.73310089650e+00
2.49000000000e+00	2.59865755903e+01	-5.73895068410e+00
2.50000000000e+00	2.60306736020e+01	-5.74477575989e+00
