# R [micrones]     Omega/c [1/micrones]    Im(epsi1)     Eq(det)$\mu$ = 0.3 eV, $E_p$ = 0.400 eV, modo = 3, $\epsilon_\infty$ = 3.9, $\gamma_{DL}$ = 0.01 eV, solve_det_sinkz_vs_R.py
5.000000000e+00	1.190633113e+00	-1.232531524e-01	2.519164421e-14
4.999000000e+00	1.190632850e+00	-1.232532002e-01	1.463582194e-14
4.998000000e+00	1.190632582e+00	-1.232532487e-01	1.093892436e-14
4.997000000e+00	1.190632310e+00	-1.232532978e-01	1.041805198e-14
4.996000000e+00	1.190632034e+00	-1.232533476e-01	7.472275774e-15
4.995000000e+00	1.190631753e+00	-1.232533980e-01	1.488197020e-14
4.994000000e+00	1.190631467e+00	-1.232534491e-01	6.199094164e-15
4.993000000e+00	1.190631177e+00	-1.232535009e-01	7.940208822e-15
4.992000000e+00	1.190630882e+00	-1.232535533e-01	1.522679227e-14
4.991000000e+00	1.190630583e+00	-1.232536063e-01	5.530011387e-15
4.990000000e+00	1.190630280e+00	-1.232536600e-01	7.382853900e-15
4.989000000e+00	1.190629971e+00	-1.232537143e-01	8.948904095e-15
4.988000000e+00	1.190629659e+00	-1.232537693e-01	1.362614190e-14
4.987000000e+00	1.190629342e+00	-1.232538250e-01	1.180848314e-14
4.986000000e+00	1.190629020e+00	-1.232538813e-01	1.339935086e-14
4.985000000e+00	1.190628694e+00	-1.232539382e-01	1.093457347e-14
4.984000000e+00	1.190628363e+00	-1.232539958e-01	9.559106885e-15
4.983000000e+00	1.190628028e+00	-1.232540541e-01	2.309861932e-14
4.982000000e+00	1.190627688e+00	-1.232541130e-01	7.970895600e-15
4.981000000e+00	1.190627344e+00	-1.232541725e-01	6.928001736e-15
4.980000000e+00	1.190626995e+00	-1.232542327e-01	1.148130666e-14
4.979000000e+00	1.190626642e+00	-1.232542936e-01	1.198193751e-14
4.978000000e+00	1.190626284e+00	-1.232543551e-01	1.018383457e-14
4.977000000e+00	1.190625922e+00	-1.232544172e-01	7.670077405e-15
4.976000000e+00	1.190625555e+00	-1.232544800e-01	9.908503249e-15
4.975000000e+00	1.190625183e+00	-1.232545435e-01	1.175573686e-14
4.974000000e+00	1.190624808e+00	-1.232546076e-01	1.972559599e-14
4.973000000e+00	1.190624427e+00	-1.232546724e-01	8.714650462e-15
4.972000000e+00	1.190624042e+00	-1.232547378e-01	6.620037992e-15
4.971000000e+00	1.190623653e+00	-1.232548038e-01	9.042872387e-15
4.970000000e+00	1.190623259e+00	-1.232548706e-01	6.388118545e-15
4.969000000e+00	1.190622860e+00	-1.232549379e-01	1.219235113e-14
4.968000000e+00	1.190622457e+00	-1.232550059e-01	8.907157239e-15
4.967000000e+00	1.190622050e+00	-1.232550746e-01	1.692846866e-14
4.966000000e+00	1.190621638e+00	-1.232551439e-01	1.231033719e-14
4.965000000e+00	1.190621221e+00	-1.232552139e-01	1.133114935e-14
4.964000000e+00	1.190620800e+00	-1.232552845e-01	3.715093619e-15
4.963000000e+00	1.190620375e+00	-1.232553558e-01	8.741800778e-15
4.962000000e+00	1.190619945e+00	-1.232554277e-01	4.800789393e-15
4.961000000e+00	1.190619510e+00	-1.232555003e-01	1.246449853e-14
4.960000000e+00	1.190619071e+00	-1.232555735e-01	2.910472206e-14
4.959000000e+00	1.190618627e+00	-1.232556473e-01	7.498784834e-15
4.958000000e+00	1.190618179e+00	-1.232557219e-01	1.709254322e-14
4.957000000e+00	1.190617726e+00	-1.232557970e-01	1.114698361e-14
4.956000000e+00	1.190617269e+00	-1.232558729e-01	1.921529698e-14
4.955000000e+00	1.190616807e+00	-1.232559493e-01	1.176656517e-14
4.954000000e+00	1.190616341e+00	-1.232560264e-01	1.658809328e-14
4.953000000e+00	1.190615870e+00	-1.232561042e-01	1.711802583e-14
4.952000000e+00	1.190615395e+00	-1.232561826e-01	5.784766542e-15
4.951000000e+00	1.190614915e+00	-1.232562617e-01	9.398871267e-15
4.950000000e+00	1.190614431e+00	-1.232563414e-01	4.475496157e-15
4.949000000e+00	1.190613942e+00	-1.232564218e-01	1.588037189e-14
4.948000000e+00	1.190613448e+00	-1.232565028e-01	1.103788543e-14
4.947000000e+00	1.190612950e+00	-1.232565844e-01	1.174360096e-14
4.946000000e+00	1.190612448e+00	-1.232566668e-01	7.215692257e-15
4.945000000e+00	1.190611941e+00	-1.232567497e-01	7.502828279e-15
4.944000000e+00	1.190611430e+00	-1.232568333e-01	1.155111467e-14
4.943000000e+00	1.190610914e+00	-1.232569176e-01	9.109092766e-15
4.942000000e+00	1.190610393e+00	-1.232570025e-01	6.336723803e-15
4.941000000e+00	1.190609868e+00	-1.232570880e-01	1.300670099e-14
4.940000000e+00	1.190609338e+00	-1.232571742e-01	1.164591511e-14
4.939000000e+00	1.190608804e+00	-1.232572611e-01	6.812650486e-15
4.938000000e+00	1.190608266e+00	-1.232573486e-01	8.713929439e-15
4.937000000e+00	1.190607723e+00	-1.232574367e-01	1.116180430e-14
4.936000000e+00	1.190607175e+00	-1.232575255e-01	9.787326783e-15
4.935000000e+00	1.190606623e+00	-1.232576150e-01	1.181635582e-14
4.934000000e+00	1.190606066e+00	-1.232577050e-01	2.445089005e-14
4.933000000e+00	1.190605505e+00	-1.232577958e-01	1.879069001e-14
4.932000000e+00	1.190604939e+00	-1.232578872e-01	3.045013537e-14
4.931000000e+00	1.190604369e+00	-1.232579792e-01	1.455707589e-14
4.930000000e+00	1.190603794e+00	-1.232580719e-01	6.975925918e-15
4.929000000e+00	1.190603215e+00	-1.232581652e-01	6.755676804e-15
4.928000000e+00	1.190602631e+00	-1.232582591e-01	9.093350164e-15
4.927000000e+00	1.190602043e+00	-1.232583537e-01	1.374669254e-14
4.926000000e+00	1.190601450e+00	-1.232584490e-01	1.598173203e-14
4.925000000e+00	1.190600853e+00	-1.232585449e-01	4.244785159e-15
4.924000000e+00	1.190600251e+00	-1.232586414e-01	1.821733694e-14
4.923000000e+00	1.190599645e+00	-1.232587386e-01	9.484080976e-15
4.922000000e+00	1.190599034e+00	-1.232588365e-01	7.020493775e-15
4.921000000e+00	1.190598419e+00	-1.232589350e-01	1.414190633e-14
4.920000000e+00	1.190597799e+00	-1.232590341e-01	5.948746778e-15
4.919000000e+00	1.190597175e+00	-1.232591338e-01	7.062679748e-15
4.918000000e+00	1.190596546e+00	-1.232592343e-01	2.322551306e-14
4.917000000e+00	1.190595912e+00	-1.232593353e-01	1.076596845e-14
4.916000000e+00	1.190595275e+00	-1.232594370e-01	7.445641282e-15
4.915000000e+00	1.190594632e+00	-1.232595394e-01	1.191827593e-14
4.914000000e+00	1.190593985e+00	-1.232596423e-01	1.103712008e-14
4.913000000e+00	1.190593334e+00	-1.232597460e-01	1.352810289e-14
4.912000000e+00	1.190592678e+00	-1.232598503e-01	2.895056210e-14
4.911000000e+00	1.190592018e+00	-1.232599552e-01	6.288728382e-15
4.910000000e+00	1.190591353e+00	-1.232600607e-01	2.110230542e-14
4.909000000e+00	1.190590684e+00	-1.232601669e-01	7.977634280e-15
4.908000000e+00	1.190590010e+00	-1.232602738e-01	2.178913035e-14
4.907000000e+00	1.190589331e+00	-1.232603812e-01	1.062120746e-14
4.906000000e+00	1.190588649e+00	-1.232604894e-01	1.073571332e-14
4.905000000e+00	1.190587961e+00	-1.232605981e-01	8.465352138e-15
4.904000000e+00	1.190587270e+00	-1.232607075e-01	1.086448865e-14
4.903000000e+00	1.190586573e+00	-1.232608176e-01	1.725381463e-14
4.902000000e+00	1.190585872e+00	-1.232609283e-01	1.666126467e-14
4.901000000e+00	1.190585167e+00	-1.232610396e-01	1.130038698e-14
4.900000000e+00	1.190584457e+00	-1.232611516e-01	8.817335008e-15
4.899000000e+00	1.190583743e+00	-1.232612642e-01	1.810294936e-14
4.898000000e+00	1.190583025e+00	-1.232613774e-01	1.416676651e-14
4.897000000e+00	1.190582301e+00	-1.232614913e-01	1.001647706e-14
4.896000000e+00	1.190581574e+00	-1.232616058e-01	1.290869627e-14
4.895000000e+00	1.190580842e+00	-1.232617210e-01	5.928609996e-15
4.894000000e+00	1.190580105e+00	-1.232618368e-01	1.238314079e-14
4.893000000e+00	1.190579364e+00	-1.232619532e-01	1.365345883e-14
4.892000000e+00	1.190578618e+00	-1.232620703e-01	6.427403833e-15
4.891000000e+00	1.190577868e+00	-1.232621880e-01	5.937687496e-15
4.890000000e+00	1.190577114e+00	-1.232623063e-01	1.417601238e-14
4.889000000e+00	1.190576355e+00	-1.232624253e-01	1.164409306e-14
4.888000000e+00	1.190575591e+00	-1.232625449e-01	6.375071718e-15
4.887000000e+00	1.190574823e+00	-1.232626652e-01	9.540989443e-15
4.886000000e+00	1.190574051e+00	-1.232627861e-01	1.232119502e-14
4.885000000e+00	1.190573274e+00	-1.232629076e-01	8.469275168e-15
4.884000000e+00	1.190572493e+00	-1.232630297e-01	1.511107053e-14
4.883000000e+00	1.190571707e+00	-1.232631525e-01	1.515621511e-14
4.882000000e+00	1.190570917e+00	-1.232632760e-01	1.195815748e-14
4.881000000e+00	1.190570122e+00	-1.232634000e-01	3.178764099e-14
4.880000000e+00	1.190569323e+00	-1.232635247e-01	1.564786525e-14
4.879000000e+00	1.190568519e+00	-1.232636500e-01	8.484092772e-15
4.878000000e+00	1.190567711e+00	-1.232637760e-01	2.724498040e-14
4.877000000e+00	1.190566899e+00	-1.232639026e-01	1.173554051e-14
4.876000000e+00	1.190566082e+00	-1.232640298e-01	1.276090542e-14
4.875000000e+00	1.190565261e+00	-1.232641577e-01	6.827801755e-15
4.874000000e+00	1.190564435e+00	-1.232642862e-01	6.572386354e-15
4.873000000e+00	1.190563605e+00	-1.232644153e-01	7.339156696e-15
4.872000000e+00	1.190562770e+00	-1.232645450e-01	1.452354262e-14
4.871000000e+00	1.190561931e+00	-1.232646754e-01	1.019403069e-14
4.870000000e+00	1.190561087e+00	-1.232648064e-01	1.106552381e-14
4.869000000e+00	1.190560239e+00	-1.232649381e-01	1.101996357e-14
4.868000000e+00	1.190559387e+00	-1.232650703e-01	1.104798025e-14
4.867000000e+00	1.190558530e+00	-1.232652032e-01	7.340352453e-15
4.866000000e+00	1.190557669e+00	-1.232653368e-01	9.693678170e-15
4.865000000e+00	1.190556803e+00	-1.232654709e-01	1.561394676e-14
4.864000000e+00	1.190555933e+00	-1.232656057e-01	8.513196827e-15
4.863000000e+00	1.190555058e+00	-1.232657411e-01	5.675643105e-15
4.862000000e+00	1.190554179e+00	-1.232658771e-01	8.091232630e-15
4.861000000e+00	1.190553296e+00	-1.232660138e-01	1.639096907e-14
4.860000000e+00	1.190552408e+00	-1.232661511e-01	2.044172896e-14
4.859000000e+00	1.190551516e+00	-1.232662890e-01	9.115725019e-15
4.858000000e+00	1.190550619e+00	-1.232664275e-01	9.580305754e-15
4.857000000e+00	1.190549718e+00	-1.232665667e-01	6.717962300e-15
4.856000000e+00	1.190548813e+00	-1.232667065e-01	1.504576845e-14
4.855000000e+00	1.190547903e+00	-1.232668469e-01	1.782494724e-14
4.854000000e+00	1.190546989e+00	-1.232669879e-01	1.979408317e-14
4.853000000e+00	1.190546070e+00	-1.232671296e-01	1.010918557e-14
4.852000000e+00	1.190545147e+00	-1.232672719e-01	8.935051648e-15
4.851000000e+00	1.190544220e+00	-1.232674148e-01	7.014204398e-15
4.850000000e+00	1.190543288e+00	-1.232675583e-01	9.234485586e-15
4.849000000e+00	1.190542352e+00	-1.232677025e-01	1.750788991e-14
4.848000000e+00	1.190541412e+00	-1.232678472e-01	1.635946093e-14
4.847000000e+00	1.190540467e+00	-1.232679926e-01	1.508217600e-14
4.846000000e+00	1.190539517e+00	-1.232681386e-01	9.614059828e-15
4.845000000e+00	1.190538564e+00	-1.232682852e-01	8.650179914e-15
4.844000000e+00	1.190537606e+00	-1.232684325e-01	1.101692244e-14
4.843000000e+00	1.190536643e+00	-1.232685804e-01	9.894648533e-15
4.842000000e+00	1.190535677e+00	-1.232687288e-01	8.277512638e-15
4.841000000e+00	1.190534705e+00	-1.232688779e-01	8.484083647e-15
4.840000000e+00	1.190533730e+00	-1.232690277e-01	1.732403659e-14
4.839000000e+00	1.190532750e+00	-1.232691780e-01	1.146585266e-14
4.838000000e+00	1.190531766e+00	-1.232693289e-01	7.878541666e-15
4.837000000e+00	1.190530777e+00	-1.232694805e-01	1.040005041e-14
4.836000000e+00	1.190529784e+00	-1.232696327e-01	7.020375353e-15
4.835000000e+00	1.190528787e+00	-1.232697855e-01	1.283281179e-14
4.834000000e+00	1.190527785e+00	-1.232699389e-01	1.266768176e-14
4.833000000e+00	1.190526780e+00	-1.232700929e-01	1.261409825e-14
4.832000000e+00	1.190525769e+00	-1.232702476e-01	1.083676336e-14
4.831000000e+00	1.190524755e+00	-1.232704028e-01	1.656534115e-14
4.830000000e+00	1.190523736e+00	-1.232705587e-01	6.945622008e-15
4.829000000e+00	1.190522712e+00	-1.232707152e-01	1.168583065e-14
4.828000000e+00	1.190521685e+00	-1.232708723e-01	1.393434137e-14
4.827000000e+00	1.190520653e+00	-1.232710299e-01	8.580153545e-15
4.826000000e+00	1.190519617e+00	-1.232711883e-01	7.727671194e-15
4.825000000e+00	1.190518576e+00	-1.232713472e-01	8.901493937e-15
4.824000000e+00	1.190517531e+00	-1.232715067e-01	6.837144172e-15
4.823000000e+00	1.190516482e+00	-1.232716668e-01	7.688706118e-15
4.822000000e+00	1.190515429e+00	-1.232718276e-01	1.334179353e-14
4.821000000e+00	1.190514371e+00	-1.232719889e-01	1.093007653e-14
4.820000000e+00	1.190513309e+00	-1.232721509e-01	7.710460568e-15
4.819000000e+00	1.190512242e+00	-1.232723135e-01	4.584311670e-15
4.818000000e+00	1.190511172e+00	-1.232724766e-01	2.110558112e-14
4.817000000e+00	1.190510097e+00	-1.232726404e-01	8.146944578e-15
4.816000000e+00	1.190509017e+00	-1.232728048e-01	9.077790210e-15
4.815000000e+00	1.190507934e+00	-1.232729698e-01	1.006595566e-14
4.814000000e+00	1.190506846e+00	-1.232731354e-01	8.079868619e-15
4.813000000e+00	1.190505754e+00	-1.232733016e-01	2.236603886e-14
4.812000000e+00	1.190504658e+00	-1.232734684e-01	1.130084408e-14
4.811000000e+00	1.190503557e+00	-1.232736357e-01	6.038917880e-15
4.810000000e+00	1.190502452e+00	-1.232738037e-01	1.121491526e-14
4.809000000e+00	1.190501343e+00	-1.232739723e-01	1.016667264e-14
4.808000000e+00	1.190500230e+00	-1.232741416e-01	4.324250199e-15
4.807000000e+00	1.190499112e+00	-1.232743114e-01	1.747870563e-14
4.806000000e+00	1.190497990e+00	-1.232744818e-01	9.580258901e-15
4.805000000e+00	1.190496864e+00	-1.232746527e-01	5.822009162e-15
4.804000000e+00	1.190495734e+00	-1.232748243e-01	1.114426835e-14
4.803000000e+00	1.190494599e+00	-1.232749965e-01	2.266460552e-14
4.802000000e+00	1.190493460e+00	-1.232751693e-01	9.983202376e-15
4.801000000e+00	1.190492317e+00	-1.232753427e-01	1.027867230e-14
4.800000000e+00	1.190491170e+00	-1.232755167e-01	1.529444453e-14
4.799000000e+00	1.190490018e+00	-1.232756913e-01	1.067370685e-14
4.798000000e+00	1.190488862e+00	-1.232758664e-01	2.234852997e-14
4.797000000e+00	1.190487702e+00	-1.232760422e-01	7.526376617e-15
4.796000000e+00	1.190486538e+00	-1.232762186e-01	1.192519803e-14
4.795000000e+00	1.190485370e+00	-1.232763955e-01	6.983545954e-15
4.794000000e+00	1.190484197e+00	-1.232765731e-01	5.819095235e-15
4.793000000e+00	1.190483020e+00	-1.232767512e-01	8.070295700e-15
4.792000000e+00	1.190481839e+00	-1.232769299e-01	1.735173430e-14
4.791000000e+00	1.190480654e+00	-1.232771092e-01	1.318311720e-14
4.790000000e+00	1.190479465e+00	-1.232772891e-01	1.204204197e-14
4.789000000e+00	1.190478271e+00	-1.232774696e-01	6.753421724e-15
4.788000000e+00	1.190477073e+00	-1.232776507e-01	1.849639328e-14
4.787000000e+00	1.190475871e+00	-1.232778324e-01	1.406937787e-14
4.786000000e+00	1.190474665e+00	-1.232780146e-01	8.746317036e-15
4.785000000e+00	1.190473455e+00	-1.232781975e-01	1.129272528e-14
4.784000000e+00	1.190472241e+00	-1.232783809e-01	8.637333422e-15
4.783000000e+00	1.190471022e+00	-1.232785649e-01	2.064115744e-14
4.782000000e+00	1.190469799e+00	-1.232787495e-01	1.293499171e-14
4.781000000e+00	1.190468572e+00	-1.232789347e-01	4.521436995e-15
4.780000000e+00	1.190467341e+00	-1.232791205e-01	9.522781182e-15
4.779000000e+00	1.190466106e+00	-1.232793068e-01	1.406238075e-14
4.778000000e+00	1.190464867e+00	-1.232794937e-01	1.366809840e-14
4.777000000e+00	1.190463623e+00	-1.232796812e-01	1.081827627e-14
4.776000000e+00	1.190462376e+00	-1.232798693e-01	1.604730252e-14
4.775000000e+00	1.190461124e+00	-1.232800580e-01	7.879916788e-15
4.774000000e+00	1.190459868e+00	-1.232802472e-01	7.377174960e-15
4.773000000e+00	1.190458608e+00	-1.232804371e-01	1.344017379e-14
4.772000000e+00	1.190457344e+00	-1.232806275e-01	2.283316022e-14
4.771000000e+00	1.190456076e+00	-1.232808184e-01	1.040658641e-14
4.770000000e+00	1.190454804e+00	-1.232810100e-01	1.260979538e-14
4.769000000e+00	1.190453528e+00	-1.232812021e-01	7.878171122e-15
4.768000000e+00	1.190452247e+00	-1.232813948e-01	9.503659589e-15
4.767000000e+00	1.190450963e+00	-1.232815881e-01	1.433991070e-14
4.766000000e+00	1.190449674e+00	-1.232817820e-01	7.816813692e-15
4.765000000e+00	1.190448382e+00	-1.232819764e-01	1.145088904e-14
4.764000000e+00	1.190447085e+00	-1.232821714e-01	8.529232426e-15
4.763000000e+00	1.190445784e+00	-1.232823669e-01	1.565537512e-14
4.762000000e+00	1.190444479e+00	-1.232825631e-01	1.068857828e-14
4.761000000e+00	1.190443170e+00	-1.232827598e-01	1.106680503e-14
4.760000000e+00	1.190441857e+00	-1.232829570e-01	7.439641832e-15
4.759000000e+00	1.190440540e+00	-1.232831549e-01	1.230161084e-14
4.758000000e+00	1.190439219e+00	-1.232833533e-01	8.946772987e-15
4.757000000e+00	1.190437894e+00	-1.232835523e-01	7.385250074e-15
4.756000000e+00	1.190436565e+00	-1.232837518e-01	7.915030064e-15
4.755000000e+00	1.190435232e+00	-1.232839519e-01	1.388651661e-14
4.754000000e+00	1.190433894e+00	-1.232841526e-01	1.750791047e-14
4.753000000e+00	1.190432553e+00	-1.232843538e-01	7.186695581e-15
4.752000000e+00	1.190431208e+00	-1.232845556e-01	1.722198719e-14
4.751000000e+00	1.190429859e+00	-1.232847580e-01	1.178052401e-14
4.750000000e+00	1.190428506e+00	-1.232849609e-01	9.343833605e-15
4.749000000e+00	1.190427148e+00	-1.232851644e-01	2.097755751e-14
4.748000000e+00	1.190425787e+00	-1.232853684e-01	1.231592793e-14
4.747000000e+00	1.190424422e+00	-1.232855730e-01	8.570744495e-15
4.746000000e+00	1.190423053e+00	-1.232857781e-01	4.202791915e-15
4.745000000e+00	1.190421680e+00	-1.232859839e-01	8.908571001e-15
4.744000000e+00	1.190420302e+00	-1.232861901e-01	7.582974519e-15
4.743000000e+00	1.190418921e+00	-1.232863969e-01	8.272037153e-15
4.742000000e+00	1.190417536e+00	-1.232866043e-01	1.106185521e-14
4.741000000e+00	1.190416147e+00	-1.232868123e-01	1.798063611e-14
4.740000000e+00	1.190414754e+00	-1.232870207e-01	8.855580396e-15
4.739000000e+00	1.190413357e+00	-1.232872298e-01	5.698799581e-15
4.738000000e+00	1.190411956e+00	-1.232874394e-01	1.090665390e-14
4.737000000e+00	1.190410552e+00	-1.232876495e-01	6.893575897e-15
4.736000000e+00	1.190409143e+00	-1.232878602e-01	8.407828467e-15
4.735000000e+00	1.190407730e+00	-1.232880714e-01	1.113611822e-14
4.734000000e+00	1.190406314e+00	-1.232882832e-01	9.524521216e-15
4.733000000e+00	1.190404893e+00	-1.232884956e-01	1.567735886e-14
4.732000000e+00	1.190403469e+00	-1.232887084e-01	7.892050085e-15
4.731000000e+00	1.190402041e+00	-1.232889219e-01	1.157468461e-14
4.730000000e+00	1.190400608e+00	-1.232891358e-01	9.182385837e-15
4.729000000e+00	1.190399172e+00	-1.232893504e-01	1.650889773e-14
4.728000000e+00	1.190397732e+00	-1.232895654e-01	6.281690280e-15
4.727000000e+00	1.190396289e+00	-1.232897810e-01	1.002729770e-14
4.726000000e+00	1.190394841e+00	-1.232899972e-01	5.969958064e-15
4.725000000e+00	1.190393389e+00	-1.232902139e-01	7.728022894e-15
4.724000000e+00	1.190391934e+00	-1.232904311e-01	4.094685854e-15
4.723000000e+00	1.190390475e+00	-1.232906488e-01	9.859382683e-15
4.722000000e+00	1.190389011e+00	-1.232908671e-01	6.521787083e-15
4.721000000e+00	1.190387544e+00	-1.232910860e-01	7.607061335e-15
4.720000000e+00	1.190386074e+00	-1.232913054e-01	1.583964631e-14
4.719000000e+00	1.190384599e+00	-1.232915253e-01	8.228227746e-15
4.718000000e+00	1.190383121e+00	-1.232917457e-01	1.071616197e-14
4.717000000e+00	1.190381638e+00	-1.232919667e-01	6.614534699e-15
4.716000000e+00	1.190380152e+00	-1.232921882e-01	9.004454572e-15
4.715000000e+00	1.190378662e+00	-1.232924103e-01	9.366206226e-15
4.714000000e+00	1.190377168e+00	-1.232926328e-01	1.084927477e-14
4.713000000e+00	1.190375671e+00	-1.232928559e-01	1.033342630e-14
4.712000000e+00	1.190374170e+00	-1.232930796e-01	1.130648771e-14
4.711000000e+00	1.190372665e+00	-1.232933037e-01	1.129078693e-14
4.710000000e+00	1.190371156e+00	-1.232935284e-01	1.880443442e-14
4.709000000e+00	1.190369643e+00	-1.232937536e-01	1.338853820e-14
4.708000000e+00	1.190368127e+00	-1.232939794e-01	9.122632007e-15
4.707000000e+00	1.190366607e+00	-1.232942057e-01	1.029860302e-14
4.706000000e+00	1.190365083e+00	-1.232944325e-01	1.901664573e-14
4.705000000e+00	1.190363555e+00	-1.232946598e-01	2.014938674e-14
4.704000000e+00	1.190362024e+00	-1.232948876e-01	7.473579507e-15
4.703000000e+00	1.190360488e+00	-1.232951160e-01	1.271583403e-14
4.702000000e+00	1.190358950e+00	-1.232953448e-01	8.559815686e-15
4.701000000e+00	1.190357407e+00	-1.232955742e-01	1.049800264e-14
4.700000000e+00	1.190355861e+00	-1.232958042e-01	1.420235521e-14
4.699000000e+00	1.190354311e+00	-1.232960346e-01	1.576182735e-14
4.698000000e+00	1.190352757e+00	-1.232962656e-01	1.194253864e-14
4.697000000e+00	1.190351200e+00	-1.232964970e-01	8.453425939e-15
