# kz [1/micrones]     Omega [THz]    log10(|det|)     , $\mu_c$ = 0.9000 eV, modo = 1, R = 1.00$\mu$m, $\eta$ = 0.90, plot_det_conkz.py
3.00000000000e-01	2.68891002276e+01	-1.63821165497e+00
3.10000000000e-01	2.69398193055e+01	-1.70035981449e+00
3.20000000000e-01	2.69920155545e+01	-1.76018698560e+00
3.30000000000e-01	2.70456691224e+01	-1.81786705395e+00
3.40000000000e-01	2.71007595762e+01	-1.87355418565e+00
3.50000000000e-01	2.71572659597e+01	-1.92738577436e+00
3.60000000000e-01	2.72151670624e+01	-1.97948485017e+00
3.70000000000e-01	2.72744412086e+01	-2.02996206514e+00
3.80000000000e-01	2.73350662033e+01	-2.07891734229e+00
3.90000000000e-01	2.73970197296e+01	-2.12644125503e+00
4.00000000000e-01	2.74602791175e+01	-2.17261618860e+00
4.10000000000e-01	2.75248214629e+01	-2.21751732393e+00
4.20000000000e-01	2.75906236262e+01	-2.26121347600e+00
4.30000000000e-01	2.76576622704e+01	-2.30376781176e+00
4.40000000000e-01	2.77259139233e+01	-2.34523846825e+00
4.50000000000e-01	2.77953549363e+01	-2.38567908704e+00
4.60000000000e-01	2.78659615685e+01	-2.42513927860e+00
4.70000000000e-01	2.79377099887e+01	-2.46366502717e+00
4.80000000000e-01	2.80105763061e+01	-2.50129904541e+00
4.90000000000e-01	2.80845365682e+01	-2.53808108594e+00
5.00000000000e-01	2.81595668210e+01	-2.57404821622e+00
5.10000000000e-01	2.82356431044e+01	-2.60923506166e+00
5.20000000000e-01	2.83127414798e+01	-2.64367402143e+00
5.30000000000e-01	2.83908380420e+01	-2.67739546058e+00
5.40000000000e-01	2.84699089472e+01	-2.71042788154e+00
5.50000000000e-01	2.85499304300e+01	-2.74279807761e+00
5.60000000000e-01	2.86308788087e+01	-2.77453127076e+00
5.70000000000e-01	2.87127305162e+01	-2.80565123550e+00
5.80000000000e-01	2.87954621026e+01	-2.83618041069e+00
5.90000000000e-01	2.88790502548e+01	-2.86614000045e+00
6.00000000000e-01	2.89634718136e+01	-2.89555006570e+00
6.10000000000e-01	2.90487037856e+01	-2.92442960710e+00
6.20000000000e-01	2.91347233493e+01	-2.95279664054e+00
6.30000000000e-01	2.92215078649e+01	-2.98066826587e+00
6.40000000000e-01	2.93090349102e+01	-3.00806072971e+00
6.50000000000e-01	2.93972822502e+01	-3.03498948274e+00
6.60000000000e-01	2.94862278799e+01	-3.06146923232e+00
6.70000000000e-01	2.95758500263e+01	-3.08751399060e+00
6.80000000000e-01	2.96661271404e+01	-3.11313711888e+00
6.90000000000e-01	2.97570379255e+01	-3.13835136828e+00
7.00000000000e-01	2.98485613414e+01	-3.16316891733e+00
7.10000000000e-01	2.99406765934e+01	-3.18760140658e+00
7.20000000000e-01	3.00333631606e+01	-3.21165997062e+00
7.30000000000e-01	3.01266007941e+01	-3.23535526769e+00
7.40000000000e-01	3.02203695129e+01	-3.25869750712e+00
7.50000000000e-01	3.03146496217e+01	-3.28169647477e+00
7.60000000000e-01	3.04094217133e+01	-3.30436155667e+00
7.70000000000e-01	3.05046666690e+01	-3.32670176099e+00
7.80000000000e-01	3.06003656550e+01	-3.34872573849e+00
7.90000000000e-01	3.06965001365e+01	-3.37044180156e+00
8.00000000000e-01	3.07930518815e+01	-3.39185794204e+00
8.10000000000e-01	3.08900029583e+01	-3.41298184778e+00
8.20000000000e-01	3.09873357297e+01	-3.43382091817e+00
8.30000000000e-01	3.10850328699e+01	-3.45438227866e+00
8.40000000000e-01	3.11830773503e+01	-3.47467279434e+00
8.50000000000e-01	3.12814524596e+01	-3.49469908271e+00
8.60000000000e-01	3.13801417872e+01	-3.51446752561e+00
8.70000000000e-01	3.14791292233e+01	-3.53398428047e+00
8.80000000000e-01	3.15783989667e+01	-3.55325529084e+00
8.90000000000e-01	3.16779355381e+01	-3.57228629634e+00
9.00000000000e-01	3.17777237449e+01	-3.59108284200e+00
9.10000000000e-01	3.18777487032e+01	-3.60965028704e+00
9.20000000000e-01	3.19779958392e+01	-3.62799381321e+00
9.30000000000e-01	3.20784508835e+01	-3.64611843260e+00
9.40000000000e-01	3.21790998517e+01	-3.66402899503e+00
9.50000000000e-01	3.22799290810e+01	-3.68173019506e+00
9.60000000000e-01	3.23809251937e+01	-3.69922657858e+00
9.70000000000e-01	3.24820751021e+01	-3.71652254909e+00
9.80000000000e-01	3.25833660282e+01	-3.73362237359e+00
9.90000000000e-01	3.26847854718e+01	-3.75053018823e+00
1.00000000000e+00	3.27863212274e+01	-3.76725000360e+00
1.01000000000e+00	3.28879613743e+01	-3.78378570977e+00
1.02000000000e+00	3.29896942706e+01	-3.80014108114e+00
1.03000000000e+00	3.30915085631e+01	-3.81631978091e+00
1.04000000000e+00	3.31933931689e+01	-3.83232536549e+00
1.05000000000e+00	3.32953372840e+01	-3.84816128854e+00
1.06000000000e+00	3.33973303658e+01	-3.86383090493e+00
1.07000000000e+00	3.34993621611e+01	-3.87933747446e+00
1.08000000000e+00	3.36014226519e+01	-3.89468416541e+00
1.09000000000e+00	3.37035021103e+01	-3.90987405789e+00
1.10000000000e+00	3.38055910357e+01	-3.92491014712e+00
1.11000000000e+00	3.39076802210e+01	-3.93979534648e+00
1.12000000000e+00	3.40097606593e+01	-3.95453249043e+00
1.13000000000e+00	3.41118236334e+01	-3.96912433736e+00
1.14000000000e+00	3.42138606567e+01	-3.98357357223e+00
1.15000000000e+00	3.43158634687e+01	-3.99788280913e+00
1.16000000000e+00	3.44178240611e+01	-4.01205459378e+00
1.17000000000e+00	3.45197346471e+01	-4.02609140580e+00
1.18000000000e+00	3.46215876751e+01	-4.03999566101e+00
1.19000000000e+00	3.47233758148e+01	-4.05376971356e+00
1.20000000000e+00	3.48250919576e+01	-4.06741585798e+00
1.21000000000e+00	3.49267292053e+01	-4.08093633114e+00
1.22000000000e+00	3.50282808839e+01	-4.09433331417e+00
1.23000000000e+00	3.51297405281e+01	-4.10760893426e+00
1.24000000000e+00	3.52311018633e+01	-4.12076526638e+00
1.25000000000e+00	3.53323588324e+01	-4.13380433497e+00
1.26000000000e+00	3.54335055577e+01	-4.14672811553e+00
1.27000000000e+00	3.55345363857e+01	-4.15953853616e+00
1.28000000000e+00	3.56354458189e+01	-4.17223747905e+00
1.29000000000e+00	3.57362285687e+01	-4.18482678190e+00
1.30000000000e+00	3.58368795284e+01	-4.19730823925e+00
1.31000000000e+00	3.59373937579e+01	-4.20968360383e+00
1.32000000000e+00	3.60377664940e+01	-4.22195458784e+00
1.33000000000e+00	3.61379931673e+01	-4.23412286410e+00
1.34000000000e+00	3.62380693517e+01	-4.24619006730e+00
1.35000000000e+00	3.63379907949e+01	-4.25815779507e+00
1.36000000000e+00	3.64377534057e+01	-4.27002760908e+00
1.37000000000e+00	3.65373532465e+01	-4.28180103612e+00
1.38000000000e+00	3.66367865407e+01	-4.29347956904e+00
1.39000000000e+00	3.67360496602e+01	-4.30506466779e+00
1.40000000000e+00	3.68351391200e+01	-4.31655776035e+00
1.41000000000e+00	3.69340515887e+01	-4.32796024357e+00
1.42000000000e+00	3.70327838607e+01	-4.33927348414e+00
1.43000000000e+00	3.71313328786e+01	-4.35049881934e+00
1.44000000000e+00	3.72296957162e+01	-4.36163755793e+00
1.45000000000e+00	3.73278695855e+01	-4.37269098089e+00
1.46000000000e+00	3.74258518036e+01	-4.38366034218e+00
1.47000000000e+00	3.75236398464e+01	-4.39454686950e+00
1.48000000000e+00	3.76212312822e+01	-4.40535176499e+00
1.49000000000e+00	3.77186238072e+01	-4.41607620590e+00
1.50000000000e+00	3.78158152414e+01	-4.42672134525e+00
1.51000000000e+00	3.79128035034e+01	-4.43728831250e+00
1.52000000000e+00	3.80095866399e+01	-4.44777821415e+00
1.53000000000e+00	3.81061627843e+01	-4.45819213435e+00
1.54000000000e+00	3.82025301906e+01	-4.46853113545e+00
1.55000000000e+00	3.82986872054e+01	-4.47879625861e+00
1.56000000000e+00	3.83946322662e+01	-4.48898852430e+00
1.57000000000e+00	3.84903639311e+01	-4.49910893286e+00
1.58000000000e+00	3.85858808256e+01	-4.50915846498e+00
1.59000000000e+00	3.86811816865e+01	-4.51913808224e+00
1.60000000000e+00	3.87762653266e+01	-4.52904872752e+00
1.61000000000e+00	3.88711306446e+01	-4.53889132555e+00
1.62000000000e+00	3.89657766368e+01	-4.54866678327e+00
1.63000000000e+00	3.90602023684e+01	-4.55837599034e+00
1.64000000000e+00	3.91544069721e+01	-4.56801981954e+00
1.65000000000e+00	3.92483896854e+01	-4.57759912714e+00
1.66000000000e+00	3.93421498073e+01	-4.58711475338e+00
1.67000000000e+00	3.94356866997e+01	-4.59656752278e+00
1.68000000000e+00	3.95289998070e+01	-4.60595824455e+00
1.69000000000e+00	3.96220886285e+01	-4.61528771296e+00
1.70000000000e+00	3.97149527474e+01	-4.62455670767e+00
1.71000000000e+00	3.98075918063e+01	-4.63376599411e+00
1.72000000000e+00	3.99000054849e+01	-4.64291632377e+00
1.73000000000e+00	3.99921935638e+01	-4.65200843456e+00
1.74000000000e+00	4.00841558485e+01	-4.66104305109e+00
1.75000000000e+00	4.01758922109e+01	-4.67002088501e+00
1.76000000000e+00	4.02674025860e+01	-4.67894263530e+00
1.77000000000e+00	4.03586869603e+01	-4.68780898853e+00
1.78000000000e+00	4.04497453578e+01	-4.69662061919e+00
1.79000000000e+00	4.05405778541e+01	-4.70537818992e+00
1.80000000000e+00	4.06311845891e+01	-4.71408235179e+00
1.81000000000e+00	4.07215657346e+01	-4.72273374456e+00
1.82000000000e+00	4.08117215063e+01	-4.73133299695e+00
1.83000000000e+00	4.09016521602e+01	-4.73988072683e+00
1.84000000000e+00	4.09913580153e+01	-4.74837754153e+00
1.85000000000e+00	4.10808394088e+01	-4.75682403803e+00
1.86000000000e+00	4.11700967218e+01	-4.76522080316e+00
1.87000000000e+00	4.12591303728e+01	-4.77356841389e+00
1.88000000000e+00	4.13479408096e+01	-4.78186743748e+00
1.89000000000e+00	4.14365285322e+01	-4.79011843172e+00
1.90000000000e+00	4.15248940580e+01	-4.79832194513e+00
1.91000000000e+00	4.16130379313e+01	-4.80647851714e+00
1.92000000000e+00	4.17009607510e+01	-4.81458867830e+00
1.93000000000e+00	4.17886631220e+01	-4.82265295046e+00
1.94000000000e+00	4.18761456953e+01	-4.83067184696e+00
1.95000000000e+00	4.19634091280e+01	-4.83864587280e+00
1.96000000000e+00	4.20504541103e+01	-4.84657552481e+00
1.97000000000e+00	4.21372813872e+01	-4.85446129183e+00
1.98000000000e+00	4.22238916697e+01	-4.86230365486e+00
1.99000000000e+00	4.23102857465e+01	-4.87010308725e+00
2.00000000000e+00	4.23964643986e+01	-4.87786005482e+00
2.01000000000e+00	4.24824284314e+01	-4.88557501603e+00
2.02000000000e+00	4.25681786792e+01	-4.89324842212e+00
2.03000000000e+00	4.26537159733e+01	-4.90088071729e+00
2.04000000000e+00	4.27390411980e+01	-4.90847233879e+00
2.05000000000e+00	4.28241552306e+01	-4.91602371710e+00
2.06000000000e+00	4.29090589595e+01	-4.92353527603e+00
2.07000000000e+00	4.29937533072e+01	-4.93100743289e+00
2.08000000000e+00	4.30782392004e+01	-4.93844059859e+00
2.09000000000e+00	4.31625175877e+01	-4.94583517777e+00
2.10000000000e+00	4.32465894054e+01	-4.95319156894e+00
2.11000000000e+00	4.33304556385e+01	-4.96051016456e+00
2.12000000000e+00	4.34141172625e+01	-4.96779135123e+00
2.13000000000e+00	4.34975752704e+01	-4.97503550971e+00
2.14000000000e+00	4.35808306564e+01	-4.98224301510e+00
2.15000000000e+00	4.36638844294e+01	-4.98941423692e+00
2.16000000000e+00	4.37467376155e+01	-4.99654953925e+00
2.17000000000e+00	4.38293912429e+01	-5.00364928077e+00
2.18000000000e+00	4.39118463380e+01	-5.01071381492e+00
2.19000000000e+00	4.39941039518e+01	-5.01774348998e+00
2.20000000000e+00	4.40761651286e+01	-5.02473864916e+00
2.21000000000e+00	4.41580309266e+01	-5.03169963070e+00
2.22000000000e+00	4.42397024056e+01	-5.03862676797e+00
2.23000000000e+00	4.43211806301e+01	-5.04552038953e+00
2.24000000000e+00	4.44024666699e+01	-5.05238081927e+00
2.25000000000e+00	4.44835616037e+01	-5.05920837646e+00
2.26000000000e+00	4.45644665063e+01	-5.06600337583e+00
2.27000000000e+00	4.46451824611e+01	-5.07276612767e+00
2.28000000000e+00	4.47257105597e+01	-5.07949693793e+00
2.29000000000e+00	4.48060518707e+01	-5.08619610824e+00
2.30000000000e+00	4.48862074951e+01	-5.09286393603e+00
2.31000000000e+00	4.49661785292e+01	-5.09950071463e+00
2.32000000000e+00	4.50459660425e+01	-5.10610673327e+00
2.33000000000e+00	4.51255711488e+01	-5.11268227722e+00
2.34000000000e+00	4.52049949273e+01	-5.11922762782e+00
2.35000000000e+00	4.52842384829e+01	-5.12574306259e+00
2.36000000000e+00	4.53633028939e+01	-5.13222885524e+00
2.37000000000e+00	4.54421892620e+01	-5.13868527579e+00
2.38000000000e+00	4.55208986790e+01	-5.14511259061e+00
2.39000000000e+00	4.55994322324e+01	-5.15151106248e+00
2.40000000000e+00	4.56777910043e+01	-5.15788095068e+00
2.41000000000e+00	4.57559760933e+01	-5.16422251101e+00
2.42000000000e+00	4.58339885747e+01	-5.17053599589e+00
2.43000000000e+00	4.59118295414e+01	-5.17682165436e+00
2.44000000000e+00	4.59895000610e+01	-5.18307973223e+00
2.45000000000e+00	4.60670012272e+01	-5.18931047205e+00
2.46000000000e+00	4.61443340995e+01	-5.19551411320e+00
2.47000000000e+00	4.62214997630e+01	-5.20169089195e+00
2.48000000000e+00	4.62984992768e+01	-5.20784104149e+00
2.49000000000e+00	4.63753337166e+01	-5.21396479202e+00
2.50000000000e+00	4.64520041335e+01	-5.22006237074e+00
