# kz [eV]     Omega/c [1/micrones]    Im(epsi1)     Eq(det).Opt det con kz, R=0.05 \mum, Re(epsi1)=3.90, $\mu_c$ = 0.300 eV, solve_det_conkz_vs_kz.py
0.000000000e+00	4.212395731e-01	-4.133520795e-02	5.796942812e-13
1.000000000e-03	4.212395730e-01	-4.133521196e-02	7.057504557e-13
2.000000000e-03	4.212395728e-01	-4.133522399e-02	7.518650662e-13
2.500000000e-03	4.212395727e-01	-4.133523301e-02	6.016001126e-13
3.000000000e-03	4.212395726e-01	-4.133524404e-02	5.414559421e-13
3.500000000e-03	4.212395724e-01	-4.133525707e-02	5.849586620e-13
4.500000000e-03	4.212395719e-01	-4.133528915e-02	5.415915063e-13
5.000000000e-03	4.212395716e-01	-4.133530820e-02	5.025356817e-13
5.500000000e-03	4.212395713e-01	-4.133532925e-02	5.974255386e-13
6.000000000e-03	4.212395710e-01	-4.133535231e-02	2.653540551e-13
6.500000000e-03	4.212395706e-01	-4.133537738e-02	4.242706190e-13
7.500000000e-03	4.212395698e-01	-4.133543352e-02	9.388329745e-14
8.000000000e-03	4.212395694e-01	-4.133546460e-02	4.298214533e-13
8.500000000e-03	4.212395689e-01	-4.133549768e-02	6.450477322e-13
9.000000000e-03	4.212395684e-01	-4.133553277e-02	6.390545878e-13
9.500000000e-03	4.212395679e-01	-4.133556987e-02	5.116796504e-15
1.000000000e-02	4.212395673e-01	-4.133560897e-02	4.526940590e-13
1.050000000e-02	4.212395667e-01	-4.133565007e-02	8.576945450e-13
1.100000000e-02	4.212395661e-01	-4.133569318e-02	5.696092305e-13
1.150000000e-02	4.212395655e-01	-4.133573829e-02	6.549708547e-13
1.200000000e-02	4.212395648e-01	-4.133578541e-02	2.189350072e-13
1.250000000e-02	4.212395641e-01	-4.133583454e-02	1.269135024e-12
1.300000000e-02	4.212395634e-01	-4.133588567e-02	2.125016409e-13
1.350000000e-02	4.212395626e-01	-4.133593880e-02	5.478946755e-13
1.400000000e-02	4.212395618e-01	-4.133599395e-02	5.123050199e-13
1.450000000e-02	4.212395610e-01	-4.133605109e-02	5.850285614e-13
1.500000000e-02	4.212395601e-01	-4.133611024e-02	2.834868117e-13
1.550000000e-02	4.212395593e-01	-4.133617140e-02	4.413931428e-13
1.650000000e-02	4.212395574e-01	-4.133629973e-02	6.528101619e-13
1.700000000e-02	4.212395564e-01	-4.133636690e-02	2.292946772e-13
1.750000000e-02	4.212395554e-01	-4.133643607e-02	1.111718369e-12
1.800000000e-02	4.212395544e-01	-4.133650726e-02	7.451723140e-13
1.850000000e-02	4.212395534e-01	-4.133658044e-02	1.049408167e-12
1.900000000e-02	4.212395523e-01	-4.133665563e-02	2.537757090e-14
2.000000000e-02	4.212395500e-01	-4.133681203e-02	5.508998914e-13
2.050000000e-02	4.212395489e-01	-4.133689324e-02	1.025128725e-12
2.150000000e-02	4.212395464e-01	-4.133706167e-02	1.859966691e-13
2.200000000e-02	4.212395452e-01	-4.133714890e-02	3.965909129e-13
2.250000000e-02	4.212395439e-01	-4.133723813e-02	1.117592259e-13
2.350000000e-02	4.212395412e-01	-4.133742260e-02	9.912425803e-13
2.400000000e-02	4.212395399e-01	-4.133751784e-02	2.080110935e-13
2.450000000e-02	4.212395384e-01	-4.133761509e-02	2.971905386e-13
2.500000000e-02	4.212395370e-01	-4.133771435e-02	1.539318707e-13
2.650000000e-02	4.212395325e-01	-4.133802415e-02	2.563846414e-13
2.700000000e-02	4.212395310e-01	-4.133813142e-02	4.337254612e-13
2.750000000e-02	4.212395294e-01	-4.133824070e-02	8.215790788e-13
2.800000000e-02	4.212395278e-01	-4.133835199e-02	2.401863124e-13
2.850000000e-02	4.212395261e-01	-4.133846528e-02	4.605588256e-13
2.900000000e-02	4.212395245e-01	-4.133858058e-02	1.380778625e-13
2.950000000e-02	4.212395228e-01	-4.133869788e-02	7.586629815e-13
3.000000000e-02	4.212395210e-01	-4.133881719e-02	5.935217454e-13
3.050000000e-02	4.212395193e-01	-4.133893851e-02	2.661860089e-13
3.100000000e-02	4.212395175e-01	-4.133906182e-02	3.593988696e-13
3.150000000e-02	4.212395157e-01	-4.133918715e-02	7.041831438e-13
3.200000000e-02	4.212395138e-01	-4.133931448e-02	2.387928019e-13
3.300000000e-02	4.212395100e-01	-4.133957515e-02	4.461457436e-13
3.350000000e-02	4.212395081e-01	-4.133970850e-02	2.577098980e-13
3.450000000e-02	4.212395041e-01	-4.133998121e-02	3.587468759e-13
3.500000000e-02	4.212395021e-01	-4.134012057e-02	3.169054373e-13
3.550000000e-02	4.212395000e-01	-4.134026194e-02	2.564808240e-13
3.600000000e-02	4.212394979e-01	-4.134040531e-02	4.382780778e-13
3.650000000e-02	4.212394958e-01	-4.134055069e-02	2.510923241e-13
3.700000000e-02	4.212394936e-01	-4.134069808e-02	7.819003117e-13
3.750000000e-02	4.212394914e-01	-4.134084747e-02	1.061010340e-12
3.800000000e-02	4.212394892e-01	-4.134099886e-02	3.023449023e-13
3.850000000e-02	4.212394870e-01	-4.134115226e-02	2.450263527e-13
3.900000000e-02	4.212394847e-01	-4.134130767e-02	2.357828592e-13
4.000000000e-02	4.212394801e-01	-4.134162450e-02	3.271447843e-13
4.050000000e-02	4.212394777e-01	-4.134178592e-02	5.458297383e-13
4.100000000e-02	4.212394753e-01	-4.134194935e-02	5.013034821e-13
4.150000000e-02	4.212394729e-01	-4.134211478e-02	2.892652733e-13
4.300000000e-02	4.212394654e-01	-4.134262312e-02	1.485751280e-13
4.350000000e-02	4.212394628e-01	-4.134279658e-02	4.499495609e-13
4.400000000e-02	4.212394602e-01	-4.134297204e-02	4.288471869e-13
4.450000000e-02	4.212394576e-01	-4.134314951e-02	6.258873141e-13
4.500000000e-02	4.212394550e-01	-4.134332898e-02	3.192201081e-13
4.550000000e-02	4.212394523e-01	-4.134351046e-02	9.905530746e-13
4.600000000e-02	4.212394496e-01	-4.134369395e-02	1.309358419e-13
4.650000000e-02	4.212394468e-01	-4.134387944e-02	7.194997405e-13
4.750000000e-02	4.212394412e-01	-4.134425644e-02	3.397015445e-13
4.800000000e-02	4.212394384e-01	-4.134444795e-02	2.274070566e-13
4.850000000e-02	4.212394355e-01	-4.134464146e-02	3.679420439e-13
4.900000000e-02	4.212394326e-01	-4.134483698e-02	2.671799914e-13
4.950000000e-02	4.212394297e-01	-4.134503451e-02	3.783811912e-13
5.150000000e-02	4.212394176e-01	-4.134584467e-02	8.899494242e-14
5.250000000e-02	4.212394114e-01	-4.134626179e-02	2.036183549e-13
5.350000000e-02	4.212394050e-01	-4.134668693e-02	1.917574129e-13
5.400000000e-02	4.212394018e-01	-4.134690251e-02	2.871689686e-13
5.450000000e-02	4.212393986e-01	-4.134712009e-02	2.360506090e-13
5.550000000e-02	4.212393919e-01	-4.134756128e-02	5.871633001e-13
5.600000000e-02	4.212393886e-01	-4.134778489e-02	3.091660069e-13
5.700000000e-02	4.212393818e-01	-4.134823811e-02	3.628171917e-13
5.750000000e-02	4.212393783e-01	-4.134846773e-02	4.805142588e-13
5.800000000e-02	4.212393748e-01	-4.134869936e-02	8.069389653e-13
5.850000000e-02	4.212393713e-01	-4.134893300e-02	5.242698830e-13
5.950000000e-02	4.212393641e-01	-4.134940628e-02	4.438620824e-13
6.000000000e-02	4.212393605e-01	-4.134964593e-02	3.894665060e-13
6.100000000e-02	4.212393532e-01	-4.135013126e-02	2.978034446e-13
6.150000000e-02	4.212393494e-01	-4.135037693e-02	6.729401622e-14
6.200000000e-02	4.212393457e-01	-4.135062461e-02	3.095392739e-13
6.250000000e-02	4.212393419e-01	-4.135087429e-02	2.795024413e-13
6.300000000e-02	4.212393381e-01	-4.135112598e-02	6.718184905e-13
6.350000000e-02	4.212393342e-01	-4.135137968e-02	2.508903257e-13
6.400000000e-02	4.212393303e-01	-4.135163538e-02	1.542477414e-13
6.500000000e-02	4.212393224e-01	-4.135215280e-02	4.353956261e-13
6.550000000e-02	4.212393184e-01	-4.135241453e-02	6.590101689e-13
6.600000000e-02	4.212393144e-01	-4.135267826e-02	1.889391617e-13
6.650000000e-02	4.212393103e-01	-4.135294399e-02	5.709908069e-14
6.700000000e-02	4.212393062e-01	-4.135321173e-02	4.820449792e-13
6.750000000e-02	4.212393021e-01	-4.135348148e-02	2.855397872e-13
6.800000000e-02	4.212392979e-01	-4.135375323e-02	3.616135117e-13
6.850000000e-02	4.212392937e-01	-4.135402700e-02	1.170644433e-13
6.900000000e-02	4.212392894e-01	-4.135430276e-02	8.331257130e-13
6.950000000e-02	4.212392851e-01	-4.135458054e-02	1.922104490e-13
7.050000000e-02	4.212392765e-01	-4.135514211e-02	5.066455166e-13
7.100000000e-02	4.212392721e-01	-4.135542590e-02	5.591797845e-13
7.150000000e-02	4.212392677e-01	-4.135571170e-02	3.732227039e-13
7.200000000e-02	4.212392632e-01	-4.135599951e-02	9.498732097e-14
7.250000000e-02	4.212392587e-01	-4.135628932e-02	3.951028001e-14
7.300000000e-02	4.212392542e-01	-4.135658114e-02	2.259185923e-13
7.350000000e-02	4.212392496e-01	-4.135687497e-02	1.066895310e-12
7.400000000e-02	4.212392450e-01	-4.135717080e-02	2.799231490e-13
7.450000000e-02	4.212392404e-01	-4.135746865e-02	7.099812213e-13
7.550000000e-02	4.212392310e-01	-4.135807035e-02	1.619573218e-13
7.650000000e-02	4.212392215e-01	-4.135868008e-02	6.651477721e-13
7.700000000e-02	4.212392166e-01	-4.135898796e-02	5.420320752e-13
7.750000000e-02	4.212392118e-01	-4.135929784e-02	8.139492366e-13
7.850000000e-02	4.212392019e-01	-4.135992363e-02	3.823756435e-13
7.900000000e-02	4.212391970e-01	-4.136023953e-02	4.669885228e-13
7.950000000e-02	4.212391920e-01	-4.136055744e-02	4.229934589e-13
8.000000000e-02	4.212391869e-01	-4.136087736e-02	6.894249979e-13
8.050000000e-02	4.212391818e-01	-4.136119928e-02	7.319402983e-14
8.100000000e-02	4.212391767e-01	-4.136152322e-02	7.466978835e-13
8.150000000e-02	4.212391715e-01	-4.136184916e-02	6.086384742e-13
8.200000000e-02	4.212391663e-01	-4.136217710e-02	3.228658973e-14
8.250000000e-02	4.212391611e-01	-4.136250706e-02	4.579464857e-13
8.300000000e-02	4.212391558e-01	-4.136283902e-02	9.210418921e-13
8.350000000e-02	4.212391505e-01	-4.136317299e-02	8.535415841e-13
8.400000000e-02	4.212391452e-01	-4.136350896e-02	4.194259249e-13
8.450000000e-02	4.212391398e-01	-4.136384695e-02	4.096014768e-13
8.500000000e-02	4.212391343e-01	-4.136418694e-02	1.468412425e-13
8.550000000e-02	4.212391289e-01	-4.136452893e-02	7.775030981e-13
8.650000000e-02	4.212391178e-01	-4.136521895e-02	4.746601252e-13
8.700000000e-02	4.212391122e-01	-4.136556697e-02	5.357758652e-14
8.750000000e-02	4.212391066e-01	-4.136591700e-02	1.021075328e-12
8.800000000e-02	4.212391009e-01	-4.136626904e-02	2.886383281e-13
8.850000000e-02	4.212390952e-01	-4.136662308e-02	4.570173212e-13
8.900000000e-02	4.212390895e-01	-4.136697913e-02	5.345354568e-13
8.950000000e-02	4.212390837e-01	-4.136733719e-02	4.541256179e-13
9.050000000e-02	4.212390720e-01	-4.136805933e-02	8.201280323e-13
9.100000000e-02	4.212390661e-01	-4.136842341e-02	3.703634242e-13
9.150000000e-02	4.212390602e-01	-4.136878950e-02	2.459176491e-13
9.200000000e-02	4.212390542e-01	-4.136915759e-02	8.252177653e-13
9.250000000e-02	4.212390481e-01	-4.136952770e-02	3.952181960e-14
9.300000000e-02	4.212390421e-01	-4.136989981e-02	4.976846741e-13
9.350000000e-02	4.212390360e-01	-4.137027393e-02	2.033197979e-13
9.450000000e-02	4.212390236e-01	-4.137102820e-02	1.246135736e-13
9.500000000e-02	4.212390174e-01	-4.137140834e-02	2.757478139e-13
9.600000000e-02	4.212390048e-01	-4.137217465e-02	2.713842396e-13
9.650000000e-02	4.212389984e-01	-4.137256082e-02	7.308714587e-13
9.700000000e-02	4.212389920e-01	-4.137294900e-02	7.781056282e-13
9.750000000e-02	4.212389856e-01	-4.137333918e-02	1.765767642e-13
9.900000000e-02	4.212389660e-01	-4.137452179e-02	5.556036516e-13
9.950000000e-02	4.212389594e-01	-4.137492000e-02	7.041271046e-13
1.000000000e-01	4.212389527e-01	-4.137532023e-02	3.363857833e-13
1.005000000e-01	4.212389460e-01	-4.137572246e-02	1.087067887e-12
1.010000000e-01	4.212389393e-01	-4.137612671e-02	1.435848678e-13
1.015000000e-01	4.212389325e-01	-4.137653296e-02	3.854231141e-13
1.020000000e-01	4.212389256e-01	-4.137694122e-02	8.072361839e-13
1.025000000e-01	4.212389188e-01	-4.137735148e-02	1.047509605e-12
1.035000000e-01	4.212389049e-01	-4.137817805e-02	4.680800865e-13
1.045000000e-01	4.212388908e-01	-4.137901264e-02	2.057909199e-13
1.050000000e-01	4.212388837e-01	-4.137943295e-02	1.114134145e-12
1.055000000e-01	4.212388766e-01	-4.137985527e-02	3.663171883e-13
1.060000000e-01	4.212388694e-01	-4.138027960e-02	9.101462935e-13
1.065000000e-01	4.212388622e-01	-4.138070594e-02	6.070495901e-13
1.070000000e-01	4.212388549e-01	-4.138113428e-02	4.001616193e-13
1.075000000e-01	4.212388475e-01	-4.138156464e-02	3.728437224e-13
1.080000000e-01	4.212388402e-01	-4.138199700e-02	3.682878060e-13
1.085000000e-01	4.212388328e-01	-4.138243137e-02	1.369907052e-12
1.090000000e-01	4.212388253e-01	-4.138286775e-02	8.033657656e-14
1.100000000e-01	4.212388102e-01	-4.138374654e-02	4.919613588e-13
1.120000000e-01	4.212387795e-01	-4.138552823e-02	1.196871387e-13
1.125000000e-01	4.212387717e-01	-4.138597868e-02	2.419426627e-13
1.130000000e-01	4.212387639e-01	-4.138643113e-02	1.019705232e-12
1.135000000e-01	4.212387560e-01	-4.138688560e-02	1.104571870e-12
1.140000000e-01	4.212387481e-01	-4.138734207e-02	1.031074789e-12
1.145000000e-01	4.212387401e-01	-4.138780055e-02	4.332756736e-13
1.150000000e-01	4.212387321e-01	-4.138826104e-02	4.441149435e-14
1.155000000e-01	4.212387240e-01	-4.138872355e-02	1.309048920e-13
1.160000000e-01	4.212387159e-01	-4.138918806e-02	5.448101751e-13
1.165000000e-01	4.212387077e-01	-4.138965458e-02	2.839072927e-13
1.175000000e-01	4.212386912e-01	-4.139059365e-02	1.105802191e-12
1.190000000e-01	4.212386661e-01	-4.139201732e-02	4.048515593e-13
1.200000000e-01	4.212386491e-01	-4.139297649e-02	3.811880507e-13
1.205000000e-01	4.212386405e-01	-4.139345909e-02	2.004401330e-13
1.210000000e-01	4.212386319e-01	-4.139394370e-02	2.060112288e-13
1.220000000e-01	4.212386145e-01	-4.139491895e-02	1.558802947e-13
1.225000000e-01	4.212386057e-01	-4.139540958e-02	1.120420329e-12
1.235000000e-01	4.212385880e-01	-4.139639689e-02	5.832716975e-13
1.245000000e-01	4.212385701e-01	-4.139739224e-02	1.580013538e-13
1.255000000e-01	4.212385519e-01	-4.139839563e-02	1.263500392e-12
1.260000000e-01	4.212385428e-01	-4.139890034e-02	2.582816615e-13
1.265000000e-01	4.212385336e-01	-4.139940706e-02	3.521737200e-13
1.270000000e-01	4.212385243e-01	-4.139991579e-02	1.185418414e-12
1.275000000e-01	4.212385150e-01	-4.140042653e-02	2.090245688e-14
1.280000000e-01	4.212385057e-01	-4.140093928e-02	1.412799922e-13
1.285000000e-01	4.212384963e-01	-4.140145405e-02	7.445672177e-13
1.290000000e-01	4.212384868e-01	-4.140197082e-02	1.413013749e-13
1.295000000e-01	4.212384773e-01	-4.140248961e-02	3.912527033e-13
1.300000000e-01	4.212384677e-01	-4.140301040e-02	1.149080439e-13
1.305000000e-01	4.212384581e-01	-4.140353321e-02	3.163025528e-13
1.310000000e-01	4.212384484e-01	-4.140405802e-02	9.258955982e-13
1.315000000e-01	4.212384387e-01	-4.140458485e-02	7.369205526e-13
1.320000000e-01	4.212384289e-01	-4.140511369e-02	1.125140401e-12
1.325000000e-01	4.212384190e-01	-4.140564454e-02	7.879230743e-14
1.330000000e-01	4.212384091e-01	-4.140617740e-02	6.015035855e-13
1.340000000e-01	4.212383891e-01	-4.140724915e-02	8.487947642e-13
1.345000000e-01	4.212383790e-01	-4.140778805e-02	5.055607401e-13
1.350000000e-01	4.212383689e-01	-4.140832895e-02	3.167628517e-13
1.355000000e-01	4.212383587e-01	-4.140887187e-02	4.153878342e-13
1.360000000e-01	4.212383485e-01	-4.140941680e-02	5.248019209e-13
1.365000000e-01	4.212383382e-01	-4.140996374e-02	1.763496301e-13
1.370000000e-01	4.212383278e-01	-4.141051269e-02	2.033678361e-13
1.375000000e-01	4.212383174e-01	-4.141106365e-02	3.244308162e-13
1.380000000e-01	4.212383069e-01	-4.141161663e-02	4.014991682e-14
1.385000000e-01	4.212382964e-01	-4.141217161e-02	4.776182774e-13
1.390000000e-01	4.212382858e-01	-4.141272861e-02	8.342790487e-13
1.395000000e-01	4.212382751e-01	-4.141328762e-02	3.488840923e-13
1.405000000e-01	4.212382536e-01	-4.141441167e-02	4.788126098e-13
1.420000000e-01	4.212382209e-01	-4.141611284e-02	1.200713581e-13
1.425000000e-01	4.212382099e-01	-4.141668392e-02	3.565978734e-13
1.430000000e-01	4.212381988e-01	-4.141725702e-02	1.055638418e-13
1.440000000e-01	4.212381765e-01	-4.141840924e-02	9.149494118e-13
1.445000000e-01	4.212381652e-01	-4.141898837e-02	5.006943416e-13
1.460000000e-01	4.212381311e-01	-4.142073783e-02	3.777376583e-13
1.465000000e-01	4.212381196e-01	-4.142132501e-02	9.107746531e-13
1.470000000e-01	4.212381080e-01	-4.142191420e-02	2.022964796e-13
1.475000000e-01	4.212380963e-01	-4.142250541e-02	2.608456410e-13
1.480000000e-01	4.212380846e-01	-4.142309863e-02	7.976608339e-13
1.485000000e-01	4.212380729e-01	-4.142369386e-02	3.871022064e-13
1.490000000e-01	4.212380610e-01	-4.142429110e-02	5.995276142e-13
1.495000000e-01	4.212380491e-01	-4.142489035e-02	3.048188690e-13
1.500000000e-01	4.212380372e-01	-4.142549162e-02	2.908694860e-13
1.505000000e-01	4.212380252e-01	-4.142609490e-02	6.453985613e-14
1.510000000e-01	4.212380131e-01	-4.142670020e-02	4.010078804e-13
1.515000000e-01	4.212380009e-01	-4.142730751e-02	3.839409390e-13
1.520000000e-01	4.212379887e-01	-4.142791683e-02	3.695706427e-12
1.525000000e-01	4.212379764e-01	-4.142852816e-02	7.505845977e-14
1.530000000e-01	4.212379640e-01	-4.142914151e-02	1.815953306e-13
1.535000000e-01	4.212379516e-01	-4.142975687e-02	9.393936888e-13
1.540000000e-01	4.212379391e-01	-4.143037424e-02	1.219358302e-13
1.545000000e-01	4.212379265e-01	-4.143099363e-02	4.823429131e-13
1.550000000e-01	4.212379139e-01	-4.143161503e-02	1.255231498e-12
1.555000000e-01	4.212379012e-01	-4.143223845e-02	1.642350471e-13
1.560000000e-01	4.212378885e-01	-4.143286388e-02	7.091245400e-13
1.565000000e-01	4.212378756e-01	-4.143349132e-02	4.609821079e-13
1.570000000e-01	4.212378627e-01	-4.143412077e-02	5.561959703e-13
1.580000000e-01	4.212378367e-01	-4.143538573e-02	1.377957177e-12
1.585000000e-01	4.212378236e-01	-4.143602123e-02	3.869854806e-13
1.590000000e-01	4.212378104e-01	-4.143665874e-02	7.640652335e-13
1.605000000e-01	4.212377704e-01	-4.143858336e-02	1.104280283e-12
1.610000000e-01	4.212377570e-01	-4.143922893e-02	2.674816152e-13
1.615000000e-01	4.212377434e-01	-4.143987651e-02	2.055082495e-13
1.625000000e-01	4.212377161e-01	-4.144117772e-02	8.193779284e-13
1.630000000e-01	4.212377024e-01	-4.144183135e-02	5.033979427e-13
1.640000000e-01	4.212376746e-01	-4.144314465e-02	4.814961084e-14
1.645000000e-01	4.212376606e-01	-4.144380432e-02	1.077098398e-13
1.650000000e-01	4.212376466e-01	-4.144446600e-02	2.517735533e-13
1.655000000e-01	4.212376325e-01	-4.144512971e-02	1.657923363e-13
1.665000000e-01	4.212376040e-01	-4.144646315e-02	5.576310292e-13
1.680000000e-01	4.212375607e-01	-4.144847844e-02	6.073006215e-13
1.695000000e-01	4.212375167e-01	-4.145051186e-02	8.382666840e-13
1.705000000e-01	4.212374869e-01	-4.145187755e-02	7.773807338e-13
1.715000000e-01	4.212374569e-01	-4.145325131e-02	6.191737486e-13
1.720000000e-01	4.212374418e-01	-4.145394121e-02	7.290857544e-13
1.725000000e-01	4.212374266e-01	-4.145463313e-02	1.820569036e-13
1.740000000e-01	4.212373804e-01	-4.145672098e-02	5.774273208e-13
1.745000000e-01	4.212373649e-01	-4.145742097e-02	1.592015762e-13
1.750000000e-01	4.212373492e-01	-4.145812296e-02	3.852710734e-13
1.755000000e-01	4.212373335e-01	-4.145882698e-02	3.165381303e-13
1.765000000e-01	4.212373019e-01	-4.146024106e-02	2.866874905e-13
1.770000000e-01	4.212372859e-01	-4.146095113e-02	7.758990007e-13
1.775000000e-01	4.212372699e-01	-4.146166321e-02	7.034730826e-13
1.780000000e-01	4.212372537e-01	-4.146237731e-02	1.463275275e-12
1.785000000e-01	4.212372375e-01	-4.146309342e-02	1.274378625e-12
1.790000000e-01	4.212372212e-01	-4.146381156e-02	4.490396103e-14
1.795000000e-01	4.212372049e-01	-4.146453171e-02	2.370718228e-13
1.800000000e-01	4.212371884e-01	-4.146525388e-02	2.709653456e-13
1.805000000e-01	4.212371718e-01	-4.146597806e-02	9.818624396e-13
1.810000000e-01	4.212371552e-01	-4.146670426e-02	4.133030465e-13
1.820000000e-01	4.212371216e-01	-4.146816272e-02	5.153422719e-14
1.825000000e-01	4.212371047e-01	-4.146889497e-02	8.466758819e-13
1.830000000e-01	4.212370877e-01	-4.146962925e-02	7.632695700e-13
1.835000000e-01	4.212370707e-01	-4.147036554e-02	1.143158010e-13
1.840000000e-01	4.212370535e-01	-4.147110384e-02	1.561625325e-12
1.845000000e-01	4.212370362e-01	-4.147184417e-02	7.575294788e-13
1.850000000e-01	4.212370189e-01	-4.147258651e-02	3.591753908e-13
1.860000000e-01	4.212369839e-01	-4.147407726e-02	7.207207573e-13
1.865000000e-01	4.212369663e-01	-4.147482566e-02	3.121798129e-13
1.870000000e-01	4.212369485e-01	-4.147557607e-02	2.222818950e-12
1.875000000e-01	4.212369307e-01	-4.147632851e-02	6.540739093e-13
1.885000000e-01	4.212368948e-01	-4.147783943e-02	4.433558387e-13
1.890000000e-01	4.212368767e-01	-4.147859793e-02	8.328356926e-13
1.895000000e-01	4.212368585e-01	-4.147935844e-02	4.823645904e-13
