# kz [eV]     Omega/c [1/micrones]    Im(epsi1)     Eq(det).Opt det con kz, R=0.05 \mum, Re(epsi1)=3.90, $\mu_c$ = 0.300 eV, solve_det_conkz_vs_kz.py
0.000000000e+00	5.901590449e-01	-5.720320595e-02	1.693227405e-12
5.000000000e-04	5.901590450e-01	-5.720320596e-02	5.700054198e-13
1.000000000e-03	5.901590450e-01	-5.720320597e-02	7.157635227e-13
1.500000000e-03	5.901590451e-01	-5.720320599e-02	4.020014793e-13
2.000000000e-03	5.901590453e-01	-5.720320601e-02	2.370315553e-12
3.000000000e-03	5.901590458e-01	-5.720320609e-02	5.700301473e-13
3.500000000e-03	5.901590461e-01	-5.720320614e-02	7.799000654e-13
4.000000000e-03	5.901590464e-01	-5.720320620e-02	4.241594633e-13
4.500000000e-03	5.901590468e-01	-5.720320626e-02	1.289407551e-12
5.500000000e-03	5.901590478e-01	-5.720320642e-02	3.365738276e-12
7.000000000e-03	5.901590495e-01	-5.720320670e-02	1.558743423e-13
7.500000000e-03	5.901590502e-01	-5.720320682e-02	8.910604034e-13
8.000000000e-03	5.901590510e-01	-5.720320693e-02	1.483277665e-13
8.500000000e-03	5.901590517e-01	-5.720320706e-02	5.463767736e-13
9.000000000e-03	5.901590526e-01	-5.720320719e-02	2.977992447e-13
9.500000000e-03	5.901590534e-01	-5.720320734e-02	4.676388994e-13
1.000000000e-02	5.901590544e-01	-5.720320749e-02	1.009554574e-12
1.050000000e-02	5.901590553e-01	-5.720320764e-02	4.667660231e-13
1.100000000e-02	5.901590563e-01	-5.720320781e-02	1.006541801e-12
1.150000000e-02	5.901590574e-01	-5.720320798e-02	4.281427410e-13
1.200000000e-02	5.901590585e-01	-5.720320816e-02	4.403391460e-13
1.300000000e-02	5.901590608e-01	-5.720320854e-02	6.430220460e-13
1.400000000e-02	5.901590634e-01	-5.720320896e-02	7.491785443e-13
1.450000000e-02	5.901590647e-01	-5.720320918e-02	7.029138221e-13
1.550000000e-02	5.901590676e-01	-5.720320964e-02	4.725487590e-13
1.600000000e-02	5.901590690e-01	-5.720320988e-02	5.770283874e-13
1.650000000e-02	5.901590706e-01	-5.720321013e-02	8.572180749e-13
1.700000000e-02	5.901590721e-01	-5.720321038e-02	1.201776503e-12
1.750000000e-02	5.901590738e-01	-5.720321065e-02	1.698485264e-13
1.800000000e-02	5.901590754e-01	-5.720321092e-02	3.531303849e-13
1.850000000e-02	5.901590772e-01	-5.720321120e-02	1.081821349e-12
1.900000000e-02	5.901590789e-01	-5.720321149e-02	1.579168639e-12
1.950000000e-02	5.901590807e-01	-5.720321178e-02	1.062037438e-12
2.000000000e-02	5.901590826e-01	-5.720321209e-02	1.124193970e-12
2.050000000e-02	5.901590845e-01	-5.720321240e-02	1.534700218e-13
2.200000000e-02	5.901590905e-01	-5.720321337e-02	1.766165307e-12
2.250000000e-02	5.901590926e-01	-5.720321371e-02	5.270021052e-13
2.300000000e-02	5.901590947e-01	-5.720321406e-02	1.135251652e-12
2.350000000e-02	5.901590969e-01	-5.720321442e-02	4.682830149e-13
2.400000000e-02	5.901590992e-01	-5.720321478e-02	5.675160776e-13
2.450000000e-02	5.901591014e-01	-5.720321516e-02	7.214880198e-13
2.550000000e-02	5.901591061e-01	-5.720321592e-02	2.470603914e-13
2.600000000e-02	5.901591086e-01	-5.720321632e-02	8.374909367e-13
2.700000000e-02	5.901591136e-01	-5.720321713e-02	4.792982315e-13
2.750000000e-02	5.901591161e-01	-5.720321755e-02	6.148533418e-13
2.800000000e-02	5.901591187e-01	-5.720321797e-02	8.292767784e-13
2.850000000e-02	5.901591214e-01	-5.720321841e-02	5.109685350e-13
2.900000000e-02	5.901591241e-01	-5.720321885e-02	1.215333067e-12
3.100000000e-02	5.901591354e-01	-5.720322069e-02	1.814006001e-12
3.150000000e-02	5.901591383e-01	-5.720322116e-02	2.125917724e-12
3.200000000e-02	5.901591413e-01	-5.720322165e-02	6.107578347e-13
3.250000000e-02	5.901591444e-01	-5.720322215e-02	1.450850466e-12
3.300000000e-02	5.901591474e-01	-5.720322265e-02	2.431070643e-12
3.450000000e-02	5.901591570e-01	-5.720322420e-02	1.028477365e-13
3.500000000e-02	5.901591602e-01	-5.720322473e-02	5.395902779e-13
3.550000000e-02	5.901591636e-01	-5.720322527e-02	9.389725333e-13
3.600000000e-02	5.901591669e-01	-5.720322582e-02	9.361797843e-15
3.750000000e-02	5.901591773e-01	-5.720322751e-02	1.603804403e-12
3.800000000e-02	5.901591809e-01	-5.720322809e-02	2.503281178e-13
3.850000000e-02	5.901591845e-01	-5.720322868e-02	4.473343934e-13
3.900000000e-02	5.901591881e-01	-5.720322927e-02	8.321619487e-13
3.950000000e-02	5.901591918e-01	-5.720322987e-02	7.792099222e-13
4.000000000e-02	5.901591955e-01	-5.720323048e-02	3.530227603e-13
4.050000000e-02	5.901591993e-01	-5.720323110e-02	1.750535438e-13
4.100000000e-02	5.901592032e-01	-5.720323172e-02	1.279271866e-12
4.150000000e-02	5.901592070e-01	-5.720323235e-02	4.127750916e-13
4.200000000e-02	5.901592110e-01	-5.720323299e-02	7.716934879e-13
4.250000000e-02	5.901592149e-01	-5.720323364e-02	1.201035428e-12
4.300000000e-02	5.901592190e-01	-5.720323430e-02	2.038462020e-12
4.350000000e-02	5.901592230e-01	-5.720323496e-02	1.255946922e-12
4.400000000e-02	5.901592272e-01	-5.720323563e-02	1.348122400e-13
4.500000000e-02	5.901592355e-01	-5.720323699e-02	1.904064815e-12
4.600000000e-02	5.901592441e-01	-5.720323839e-02	1.363946571e-12
4.650000000e-02	5.901592485e-01	-5.720323910e-02	8.095060598e-13
4.750000000e-02	5.901592573e-01	-5.720324054e-02	1.136617042e-12
4.800000000e-02	5.901592618e-01	-5.720324127e-02	1.367563255e-12
4.850000000e-02	5.901592663e-01	-5.720324201e-02	1.145494263e-13
4.900000000e-02	5.901592709e-01	-5.720324276e-02	4.432707660e-13
4.950000000e-02	5.901592756e-01	-5.720324351e-02	1.028614298e-12
5.000000000e-02	5.901592802e-01	-5.720324427e-02	2.822905853e-13
5.100000000e-02	5.901592898e-01	-5.720324582e-02	7.787764954e-13
5.150000000e-02	5.901592946e-01	-5.720324661e-02	9.721818972e-13
5.250000000e-02	5.901593044e-01	-5.720324820e-02	1.641358867e-12
5.350000000e-02	5.901593143e-01	-5.720324983e-02	1.478091438e-12
5.400000000e-02	5.901593194e-01	-5.720325065e-02	2.611516610e-13
5.450000000e-02	5.901593245e-01	-5.720325148e-02	1.717099125e-12
5.500000000e-02	5.901593297e-01	-5.720325232e-02	7.441328329e-13
5.600000000e-02	5.901593401e-01	-5.720325402e-02	5.001644161e-13
5.700000000e-02	5.901593507e-01	-5.720325575e-02	1.311263322e-12
5.750000000e-02	5.901593561e-01	-5.720325663e-02	5.374658713e-13
5.800000000e-02	5.901593616e-01	-5.720325751e-02	2.577525198e-13
5.950000000e-02	5.901593782e-01	-5.720326022e-02	1.093458750e-12
6.050000000e-02	5.901593895e-01	-5.720326205e-02	8.854471011e-13
6.100000000e-02	5.901593952e-01	-5.720326298e-02	9.514415686e-13
6.150000000e-02	5.901594009e-01	-5.720326392e-02	1.539413066e-12
6.200000000e-02	5.901594068e-01	-5.720326487e-02	1.194058552e-12
6.250000000e-02	5.901594126e-01	-5.720326582e-02	1.983828422e-12
6.350000000e-02	5.901594245e-01	-5.720326775e-02	5.514953539e-13
6.400000000e-02	5.901594305e-01	-5.720326873e-02	5.210448111e-13
6.500000000e-02	5.901594426e-01	-5.720327071e-02	3.794122182e-13
6.550000000e-02	5.901594488e-01	-5.720327171e-02	8.752967423e-13
6.600000000e-02	5.901594549e-01	-5.720327271e-02	1.012951361e-12
6.700000000e-02	5.901594675e-01	-5.720327475e-02	1.091209769e-12
6.800000000e-02	5.901594802e-01	-5.720327682e-02	1.382096466e-12
6.900000000e-02	5.901594931e-01	-5.720327892e-02	6.758774695e-13
6.950000000e-02	5.901594996e-01	-5.720327998e-02	4.631489949e-13
7.000000000e-02	5.901595061e-01	-5.720328105e-02	1.330922878e-12
7.050000000e-02	5.901595128e-01	-5.720328212e-02	2.206371626e-12
7.150000000e-02	5.901595261e-01	-5.720328430e-02	2.279018656e-13
7.250000000e-02	5.901595397e-01	-5.720328651e-02	3.406198114e-12
7.300000000e-02	5.901595465e-01	-5.720328762e-02	2.681886492e-12
7.350000000e-02	5.901595534e-01	-5.720328874e-02	8.926734001e-13
7.400000000e-02	5.901595604e-01	-5.720328987e-02	4.766453938e-13
7.450000000e-02	5.901595674e-01	-5.720329101e-02	2.082739795e-12
7.550000000e-02	5.901595815e-01	-5.720329331e-02	8.925538666e-13
7.600000000e-02	5.901595886e-01	-5.720329447e-02	8.558318513e-13
7.650000000e-02	5.901595958e-01	-5.720329563e-02	1.411259695e-13
7.700000000e-02	5.901596030e-01	-5.720329681e-02	8.668368176e-13
7.750000000e-02	5.901596103e-01	-5.720329799e-02	1.014420115e-12
7.850000000e-02	5.901596250e-01	-5.720330038e-02	1.130810441e-12
7.900000000e-02	5.901596324e-01	-5.720330159e-02	9.111262640e-13
8.000000000e-02	5.901596473e-01	-5.720330402e-02	2.294657353e-13
8.100000000e-02	5.901596625e-01	-5.720330649e-02	2.610676583e-13
8.150000000e-02	5.901596701e-01	-5.720330773e-02	9.256426735e-13
8.200000000e-02	5.901596778e-01	-5.720330899e-02	3.704310316e-13
8.250000000e-02	5.901596856e-01	-5.720331025e-02	3.496539569e-13
8.300000000e-02	5.901596934e-01	-5.720331151e-02	9.233069170e-13
8.350000000e-02	5.901597012e-01	-5.720331279e-02	9.294507831e-13
8.400000000e-02	5.901597091e-01	-5.720331407e-02	1.168189755e-12
8.600000000e-02	5.901597411e-01	-5.720331928e-02	3.155207227e-13
8.650000000e-02	5.901597492e-01	-5.720332060e-02	1.021119930e-12
8.700000000e-02	5.901597574e-01	-5.720332193e-02	3.050822038e-13
8.750000000e-02	5.901597656e-01	-5.720332326e-02	1.106221073e-12
8.800000000e-02	5.901597738e-01	-5.720332461e-02	3.015805189e-13
8.850000000e-02	5.901597821e-01	-5.720332596e-02	4.249054098e-14
8.900000000e-02	5.901597905e-01	-5.720332732e-02	2.458785944e-12
8.950000000e-02	5.901597989e-01	-5.720332868e-02	1.044092669e-12
9.000000000e-02	5.901598073e-01	-5.720333006e-02	1.069295365e-12
9.050000000e-02	5.901598158e-01	-5.720333144e-02	2.296976491e-12
9.100000000e-02	5.901598244e-01	-5.720333283e-02	8.401733328e-14
9.150000000e-02	5.901598330e-01	-5.720333423e-02	1.708751463e-13
9.200000000e-02	5.901598416e-01	-5.720333563e-02	7.155524257e-13
9.250000000e-02	5.901598503e-01	-5.720333704e-02	1.297783310e-12
9.300000000e-02	5.901598590e-01	-5.720333846e-02	4.773677038e-13
9.350000000e-02	5.901598678e-01	-5.720333989e-02	6.347071735e-13
9.400000000e-02	5.901598766e-01	-5.720334133e-02	2.682426536e-13
9.500000000e-02	5.901598944e-01	-5.720334422e-02	9.916328188e-13
9.550000000e-02	5.901599034e-01	-5.720334568e-02	1.751103011e-13
9.600000000e-02	5.901599124e-01	-5.720334714e-02	4.375725094e-13
9.750000000e-02	5.901599397e-01	-5.720335159e-02	6.702082135e-13
9.800000000e-02	5.901599489e-01	-5.720335308e-02	5.178459680e-13
9.850000000e-02	5.901599582e-01	-5.720335459e-02	4.050585740e-13
9.900000000e-02	5.901599675e-01	-5.720335610e-02	3.926462573e-13
9.950000000e-02	5.901599768e-01	-5.720335762e-02	1.070533962e-12
1.000000000e-01	5.901599862e-01	-5.720335914e-02	2.420495011e-12
1.005000000e-01	5.901599956e-01	-5.720336068e-02	1.196138502e-12
1.010000000e-01	5.901600051e-01	-5.720336222e-02	4.501053636e-13
1.025000000e-01	5.901600338e-01	-5.720336689e-02	3.743186914e-13
1.030000000e-01	5.901600435e-01	-5.720336847e-02	8.074686891e-13
1.035000000e-01	5.901600532e-01	-5.720337005e-02	4.488092689e-13
1.040000000e-01	5.901600630e-01	-5.720337163e-02	8.753762448e-13
1.055000000e-01	5.901600926e-01	-5.720337644e-02	1.203743303e-12
1.060000000e-01	5.901601025e-01	-5.720337806e-02	9.733189064e-13
1.065000000e-01	5.901601125e-01	-5.720337969e-02	1.593811908e-12
1.070000000e-01	5.901601226e-01	-5.720338132e-02	2.100844167e-13
1.075000000e-01	5.901601327e-01	-5.720338296e-02	1.553821087e-12
1.085000000e-01	5.901601530e-01	-5.720338627e-02	1.166856294e-12
1.090000000e-01	5.901601632e-01	-5.720338793e-02	7.042317260e-13
1.095000000e-01	5.901601735e-01	-5.720338960e-02	1.271438573e-12
1.105000000e-01	5.901601942e-01	-5.720339297e-02	7.450287440e-13
1.110000000e-01	5.901602047e-01	-5.720339467e-02	1.168811904e-12
1.115000000e-01	5.901602151e-01	-5.720339637e-02	1.623019102e-13
1.120000000e-01	5.901602256e-01	-5.720339808e-02	7.559351420e-13
1.135000000e-01	5.901602575e-01	-5.720340325e-02	7.344361695e-13
1.140000000e-01	5.901602682e-01	-5.720340499e-02	2.586001731e-13
1.145000000e-01	5.901602789e-01	-5.720340674e-02	2.185387870e-12
1.155000000e-01	5.901603006e-01	-5.720341026e-02	1.809781894e-13
1.160000000e-01	5.901603115e-01	-5.720341203e-02	1.176344476e-12
1.175000000e-01	5.901603445e-01	-5.720341739e-02	9.162012318e-13
1.180000000e-01	5.901603555e-01	-5.720341919e-02	7.369604663e-13
1.190000000e-01	5.901603779e-01	-5.720342281e-02	7.978173554e-14
1.195000000e-01	5.901603891e-01	-5.720342464e-02	6.410246857e-13
1.200000000e-01	5.901604003e-01	-5.720342647e-02	1.033644625e-13
1.205000000e-01	5.901604117e-01	-5.720342831e-02	4.230588276e-14
1.210000000e-01	5.901604230e-01	-5.720343016e-02	3.576324386e-13
1.220000000e-01	5.901604459e-01	-5.720343387e-02	1.034986454e-12
1.225000000e-01	5.901604574e-01	-5.720343574e-02	4.049317593e-13
1.230000000e-01	5.901604690e-01	-5.720343762e-02	3.427298843e-12
1.235000000e-01	5.901604806e-01	-5.720343951e-02	1.520987245e-12
1.250000000e-01	5.901605157e-01	-5.720344521e-02	3.981425879e-13
1.255000000e-01	5.901605274e-01	-5.720344712e-02	9.634453378e-14
1.260000000e-01	5.901605393e-01	-5.720344904e-02	5.979661117e-13
1.265000000e-01	5.901605512e-01	-5.720345098e-02	5.336883371e-13
1.270000000e-01	5.901605631e-01	-5.720345291e-02	2.001235185e-12
1.275000000e-01	5.901605751e-01	-5.720345486e-02	1.673687217e-12
1.280000000e-01	5.901605871e-01	-5.720345681e-02	3.522187411e-13
1.285000000e-01	5.901605992e-01	-5.720345877e-02	1.810786930e-12
1.290000000e-01	5.901606113e-01	-5.720346074e-02	7.765106918e-13
1.295000000e-01	5.901606235e-01	-5.720346272e-02	8.311648476e-13
1.305000000e-01	5.901606479e-01	-5.720346669e-02	1.064279585e-12
1.315000000e-01	5.901606726e-01	-5.720347070e-02	1.429582400e-12
1.330000000e-01	5.901607099e-01	-5.720347677e-02	3.493602607e-13
1.345000000e-01	5.901607477e-01	-5.720348290e-02	1.896989783e-12
1.350000000e-01	5.901607604e-01	-5.720348496e-02	6.507074609e-13
1.360000000e-01	5.901607859e-01	-5.720348910e-02	1.230056876e-12
1.370000000e-01	5.901608116e-01	-5.720349327e-02	9.395776350e-13
1.375000000e-01	5.901608245e-01	-5.720349537e-02	9.060164734e-14
1.380000000e-01	5.901608375e-01	-5.720349748e-02	7.062468546e-13
1.385000000e-01	5.901608505e-01	-5.720349959e-02	1.180823095e-13
1.395000000e-01	5.901608767e-01	-5.720350384e-02	8.834849372e-13
1.410000000e-01	5.901609163e-01	-5.720351027e-02	6.457243897e-13
1.425000000e-01	5.901609563e-01	-5.720351677e-02	3.945152694e-13
1.430000000e-01	5.901609697e-01	-5.720351895e-02	2.290365153e-13
1.455000000e-01	5.901610376e-01	-5.720352997e-02	2.165002473e-12
1.470000000e-01	5.901610789e-01	-5.720353667e-02	1.697702786e-12
1.475000000e-01	5.901610928e-01	-5.720353892e-02	1.167629634e-13
1.480000000e-01	5.901611067e-01	-5.720354118e-02	1.131728553e-12
1.485000000e-01	5.901611206e-01	-5.720354345e-02	9.462219178e-13
1.495000000e-01	5.901611487e-01	-5.720354800e-02	6.235296309e-13
1.500000000e-01	5.901611628e-01	-5.720355029e-02	3.520721543e-13
1.505000000e-01	5.901611769e-01	-5.720355258e-02	4.448883270e-13
1.510000000e-01	5.901611911e-01	-5.720355488e-02	1.265179174e-12
1.515000000e-01	5.901612054e-01	-5.720355719e-02	1.370828900e-12
1.520000000e-01	5.901612196e-01	-5.720355951e-02	2.677695740e-12
1.525000000e-01	5.901612340e-01	-5.720356184e-02	2.661959539e-12
1.530000000e-01	5.901612484e-01	-5.720356417e-02	2.349835294e-12
1.535000000e-01	5.901612628e-01	-5.720356651e-02	7.394825132e-13
1.540000000e-01	5.901612773e-01	-5.720356886e-02	1.949310217e-12
1.545000000e-01	5.901612918e-01	-5.720357121e-02	1.133968721e-12
1.550000000e-01	5.901613063e-01	-5.720357358e-02	1.183634613e-12
1.555000000e-01	5.901613209e-01	-5.720357595e-02	1.375389772e-12
1.560000000e-01	5.901613356e-01	-5.720357833e-02	2.204246526e-12
1.565000000e-01	5.901613503e-01	-5.720358071e-02	9.143265492e-14
1.570000000e-01	5.901613651e-01	-5.720358311e-02	1.081981712e-12
1.580000000e-01	5.901613947e-01	-5.720358792e-02	4.275967299e-13
1.585000000e-01	5.901614096e-01	-5.720359033e-02	8.124687347e-13
1.605000000e-01	5.901614697e-01	-5.720360007e-02	1.189873221e-12
1.610000000e-01	5.901614848e-01	-5.720360253e-02	7.577997278e-13
1.615000000e-01	5.901615000e-01	-5.720360499e-02	1.180144532e-12
1.620000000e-01	5.901615152e-01	-5.720360746e-02	1.150326902e-12
1.625000000e-01	5.901615305e-01	-5.720360994e-02	8.452596478e-13
1.630000000e-01	5.901615458e-01	-5.720361242e-02	1.999815186e-13
1.635000000e-01	5.901615612e-01	-5.720361491e-02	1.419850454e-13
1.640000000e-01	5.901615766e-01	-5.720361741e-02	1.261907807e-12
1.645000000e-01	5.901615920e-01	-5.720361992e-02	3.410019715e-13
1.650000000e-01	5.901616076e-01	-5.720362244e-02	3.965403037e-13
1.660000000e-01	5.901616387e-01	-5.720362749e-02	1.039833180e-12
1.665000000e-01	5.901616544e-01	-5.720363002e-02	1.941283024e-12
1.675000000e-01	5.901616858e-01	-5.720363512e-02	7.271792179e-13
1.680000000e-01	5.901617016e-01	-5.720363768e-02	1.070787586e-12
1.690000000e-01	5.901617333e-01	-5.720364283e-02	1.841212628e-12
1.695000000e-01	5.901617492e-01	-5.720364541e-02	2.722247019e-13
1.700000000e-01	5.901617652e-01	-5.720364800e-02	3.749543579e-13
1.705000000e-01	5.901617812e-01	-5.720365060e-02	2.767770268e-13
1.710000000e-01	5.901617973e-01	-5.720365320e-02	9.745092584e-13
1.725000000e-01	5.901618458e-01	-5.720366106e-02	2.046010808e-12
1.730000000e-01	5.901618621e-01	-5.720366370e-02	6.935816999e-13
1.735000000e-01	5.901618784e-01	-5.720366634e-02	1.967517920e-12
1.740000000e-01	5.901618947e-01	-5.720366899e-02	3.085197236e-13
1.745000000e-01	5.901619111e-01	-5.720367165e-02	6.184282425e-13
1.760000000e-01	5.901619606e-01	-5.720367967e-02	3.533693501e-13
1.780000000e-01	5.901620273e-01	-5.720369047e-02	2.114009155e-12
1.785000000e-01	5.901620441e-01	-5.720369319e-02	8.232082331e-13
1.790000000e-01	5.901620609e-01	-5.720369592e-02	1.138576201e-12
1.800000000e-01	5.901620947e-01	-5.720370139e-02	2.258700812e-12
1.805000000e-01	5.901621116e-01	-5.720370414e-02	3.434681087e-12
1.810000000e-01	5.901621287e-01	-5.720370690e-02	1.778608927e-13
1.820000000e-01	5.901621628e-01	-5.720371243e-02	5.795224861e-13
1.825000000e-01	5.901621800e-01	-5.720371521e-02	6.340194981e-13
1.835000000e-01	5.901622144e-01	-5.720372079e-02	2.010343647e-12
1.840000000e-01	5.901622317e-01	-5.720372360e-02	2.230986376e-12
1.850000000e-01	5.901622665e-01	-5.720372922e-02	3.562995523e-13
1.855000000e-01	5.901622839e-01	-5.720373205e-02	2.789664241e-13
1.860000000e-01	5.901623014e-01	-5.720373488e-02	4.002932888e-13
1.865000000e-01	5.901623189e-01	-5.720373772e-02	2.148615157e-13
1.870000000e-01	5.901623365e-01	-5.720374056e-02	2.121874273e-12
1.875000000e-01	5.901623541e-01	-5.720374342e-02	1.226161718e-12
1.880000000e-01	5.901623718e-01	-5.720374628e-02	1.484468662e-12
1.890000000e-01	5.901624073e-01	-5.720375203e-02	5.022984300e-13
1.895000000e-01	5.901624251e-01	-5.720375491e-02	9.556420959e-13
1.910000000e-01	5.901624788e-01	-5.720376361e-02	9.647185095e-13
1.915000000e-01	5.901624968e-01	-5.720376653e-02	5.624730325e-13
1.935000000e-01	5.901625693e-01	-5.720377826e-02	3.239990819e-13
1.945000000e-01	5.901626058e-01	-5.720378417e-02	9.033446536e-13
1.950000000e-01	5.901626242e-01	-5.720378714e-02	2.412781961e-12
1.960000000e-01	5.901626610e-01	-5.720379310e-02	3.732342138e-13
1.965000000e-01	5.901626795e-01	-5.720379609e-02	1.675971008e-12
1.975000000e-01	5.901627165e-01	-5.720380209e-02	1.862674707e-12
1.980000000e-01	5.901627352e-01	-5.720380510e-02	1.827420118e-12
1.985000000e-01	5.901627538e-01	-5.720380812e-02	1.869199094e-12
1.990000000e-01	5.901627725e-01	-5.720381115e-02	7.461286556e-13
2.000000000e-01	5.901628101e-01	-5.720381723e-02	1.227696339e-12
2.005000000e-01	5.901628289e-01	-5.720382028e-02	1.182627536e-12
2.010000000e-01	5.901628478e-01	-5.720382334e-02	7.704615336e-13
2.015000000e-01	5.901628668e-01	-5.720382640e-02	5.512398594e-13
2.025000000e-01	5.901629048e-01	-5.720383256e-02	1.074074447e-12
2.035000000e-01	5.901629430e-01	-5.720383874e-02	1.049940902e-12
2.040000000e-01	5.901629622e-01	-5.720384184e-02	1.372658569e-12
2.060000000e-01	5.901630394e-01	-5.720385433e-02	4.155649011e-13
2.065000000e-01	5.901630588e-01	-5.720385747e-02	1.084536937e-12
2.070000000e-01	5.901630783e-01	-5.720386062e-02	6.185001968e-13
2.075000000e-01	5.901630978e-01	-5.720386377e-02	4.179380244e-13
2.080000000e-01	5.901631173e-01	-5.720386693e-02	2.746740303e-12
2.085000000e-01	5.901631369e-01	-5.720387010e-02	2.111456082e-12
2.090000000e-01	5.901631566e-01	-5.720387328e-02	1.096051097e-12
