# R [micrones]     Omega/c [1/micrones]    Im(epsi1)     Eq(det).Opt det SIN kz, mu = 0.3 eV, Re(epsi1)=3.90, solve_det_sinkz_vs_R.py
1.000000000e-01	6.607745777e-01	-3.873288695e-02	2.594171634e-22
1.500000000e-01	5.437696701e-01	-3.088578860e-02	2.332105767e-21
2.000000000e-01	4.727216288e-01	-2.673814762e-02	5.340840734e-21
2.500000000e-01	4.237480211e-01	-2.414834836e-02	5.188165691e-21
3.000000000e-01	3.873664724e-01	-2.237403410e-02	6.956218923e-21
3.500000000e-01	3.589649276e-01	-2.108471380e-02	1.711541079e-20
4.000000000e-01	3.359953979e-01	-2.010924510e-02	2.724669515e-20
4.500000000e-01	3.169204352e-01	-1.934946433e-02	3.273790127e-20
5.000000000e-01	3.007501032e-01	-1.874473867e-02	1.383927185e-20
5.500000000e-01	2.868143648e-01	-1.825545026e-02	1.691425260e-20
6.000000000e-01	2.746413694e-01	-1.785454221e-02	5.111029311e-20
6.500000000e-01	2.638879382e-01	-1.752286456e-02	6.750654044e-20
7.000000000e-01	2.542977018e-01	-1.724645872e-02	6.393052385e-20
7.500000000e-01	2.456747643e-01	-1.701489581e-02	1.017021843e-19
8.000000000e-01	2.378665174e-01	-1.682021867e-02	7.765040570e-20
8.500000000e-01	2.307520705e-01	-1.665624516e-02	1.445090563e-19
9.000000000e-01	2.242342483e-01	-1.651809601e-02	2.592248322e-19
9.500000000e-01	2.182339259e-01	-1.640186659e-02	1.160305801e-19
1.000000000e+00	2.126859347e-01	-1.630439374e-02	2.434774300e-19
1.050000000e+00	2.075360485e-01	-1.622308693e-02	2.295184073e-19
1.100000000e+00	2.027387291e-01	-1.615580369e-02	1.600045521e-19
1.150000000e+00	1.982554145e-01	-1.610075644e-02	1.904953095e-19
1.200000000e+00	1.940532027e-01	-1.605644175e-02	2.553549406e-19
1.250000000e+00	1.901038256e-01	-1.602158593e-02	3.779281383e-19
1.300000000e+00	1.863828432e-01	-1.599510273e-02	2.130890846e-19
1.350000000e+00	1.828690008e-01	-1.597606010e-02	5.848199823e-19
1.400000000e+00	1.795437152e-01	-1.596365381e-02	2.871358582e-19
1.450000000e+00	1.763906572e-01	-1.595718627e-02	4.722589955e-19
1.500000000e+00	1.733954123e-01	-1.595604955e-02	2.248333606e-19
1.550000000e+00	1.705452008e-01	-1.595971142e-02	3.348631129e-19
1.600000000e+00	1.678286476e-01	-1.596770405e-02	9.422362477e-19
1.650000000e+00	1.652355889e-01	-1.597961457e-02	6.109581569e-19
1.700000000e+00	1.627569119e-01	-1.599507734e-02	8.050153140e-19
1.750000000e+00	1.603844187e-01	-1.601376743e-02	6.244690534e-19
1.800000000e+00	1.581107116e-01	-1.603539515e-02	6.366376772e-19
1.850000000e+00	1.559290951e-01	-1.605970150e-02	1.520195554e-18
1.900000000e+00	1.538334929e-01	-1.608645421e-02	9.254934439e-19
1.950000000e+00	1.518183759e-01	-1.611544448e-02	9.523503231e-19
2.000000000e+00	1.498787004e-01	-1.614648412e-02	2.818930230e-18
2.050000000e+00	1.480098547e-01	-1.617940310e-02	1.086288713e-18
2.100000000e+00	1.462076127e-01	-1.621404746e-02	2.135487656e-18
2.150000000e+00	1.444680931e-01	-1.625027752e-02	1.692976379e-18
2.200000000e+00	1.427877247e-01	-1.628796625e-02	1.261285832e-18
2.250000000e+00	1.411632145e-01	-1.632699795e-02	1.000411892e-18
2.300000000e+00	1.395915209e-01	-1.636726704e-02	1.183911517e-18
2.350000000e+00	1.380698294e-01	-1.640867697e-02	4.806929383e-18
2.400000000e+00	1.365955312e-01	-1.645113936e-02	2.159250561e-18
2.450000000e+00	1.351662045e-01	-1.649457313e-02	2.297013045e-18
2.500000000e+00	1.337795973e-01	-1.653890381e-02	1.400925423e-18
2.550000000e+00	1.324336126e-01	-1.658406292e-02	1.492154758e-18
2.600000000e+00	1.311262947e-01	-1.662998737e-02	1.249802854e-18
2.650000000e+00	1.298558175e-01	-1.667661896e-02	1.871439125e-18
2.700000000e+00	1.286204736e-01	-1.672390397e-02	1.419695461e-18
2.750000000e+00	1.274186643e-01	-1.677179273e-02	2.537228943e-18
2.800000000e+00	1.262488910e-01	-1.682023926e-02	1.535371521e-18
2.850000000e+00	1.251097475e-01	-1.686920095e-02	2.700384742e-18
2.900000000e+00	1.239999126e-01	-1.691863830e-02	3.129072727e-18
2.950000000e+00	1.229181433e-01	-1.696851461e-02	1.310143950e-18
3.000000000e+00	1.218632696e-01	-1.701879578e-02	1.686282628e-18
3.050000000e+00	1.208341886e-01	-1.706945010e-02	1.896255792e-18
3.100000000e+00	1.198298599e-01	-1.712044805e-02	1.935066002e-18
3.150000000e+00	1.188493007e-01	-1.717176210e-02	3.999241303e-18
3.200000000e+00	1.178915824e-01	-1.722336659e-02	3.382744002e-18
3.250000000e+00	1.169558261e-01	-1.727523758e-02	2.675089398e-18
3.300000000e+00	1.160412000e-01	-1.732735271e-02	2.221379432e-18
3.350000000e+00	1.151469153e-01	-1.737969107e-02	3.404033199e-18
3.400000000e+00	1.142722244e-01	-1.743223311e-02	2.977732761e-18
3.450000000e+00	1.134164173e-01	-1.748496055e-02	3.185070753e-18
3.500000000e+00	1.125788196e-01	-1.753785624e-02	4.844418042e-18
3.550000000e+00	1.117587904e-01	-1.759090415e-02	1.049094759e-18
3.600000000e+00	1.109557197e-01	-1.764408922e-02	6.213127088e-18
3.650000000e+00	1.101690270e-01	-1.769739734e-02	4.060084803e-18
3.700000000e+00	1.093981591e-01	-1.775081526e-02	9.789192899e-18
3.750000000e+00	1.086425889e-01	-1.780433056e-02	4.678471757e-18
3.800000000e+00	1.079018133e-01	-1.785793155e-02	6.206539579e-18
3.850000000e+00	1.071753523e-01	-1.791160726e-02	4.315708924e-18
3.900000000e+00	1.064627475e-01	-1.796534736e-02	5.783551880e-18
3.950000000e+00	1.057635605e-01	-1.801914216e-02	2.529943212e-18
4.000000000e+00	1.050773725e-01	-1.807298251e-02	8.648584686e-18
4.050000000e+00	1.044037825e-01	-1.812685984e-02	5.613619077e-18
4.100000000e+00	1.037424069e-01	-1.818076604e-02	6.903463034e-18
4.150000000e+00	1.030928780e-01	-1.823469351e-02	4.715162415e-18
4.200000000e+00	1.024548437e-01	-1.828863507e-02	8.897619202e-18
4.250000000e+00	1.018279662e-01	-1.834258395e-02	5.753129837e-18
4.300000000e+00	1.012119216e-01	-1.839653379e-02	5.208694311e-18
4.350000000e+00	1.006063989e-01	-1.845047857e-02	5.663221492e-18
4.400000000e+00	1.000110997e-01	-1.850441265e-02	8.247941124e-18
4.450000000e+00	9.942573702e-02	-1.855833067e-02	7.532582849e-18
4.500000000e+00	9.885003536e-02	-1.861222761e-02	7.013758157e-18
4.550000000e+00	9.828372965e-02	-1.866609871e-02	5.186086895e-18
4.600000000e+00	9.772656492e-02	-1.871993950e-02	6.223931756e-18
4.650000000e+00	9.717829585e-02	-1.877374575e-02	1.143253921e-17
4.700000000e+00	9.663868620e-02	-1.882751347e-02	5.460249598e-18
4.750000000e+00	9.610750850e-02	-1.888123891e-02	4.892271145e-18
4.800000000e+00	9.558454351e-02	-1.893491852e-02	1.285660462e-17
4.850000000e+00	9.506957996e-02	-1.898854895e-02	8.186444385e-18
4.900000000e+00	9.456241408e-02	-1.904212705e-02	8.638724214e-18
4.950000000e+00	9.406284935e-02	-1.909564983e-02	1.442234152e-17
5.000000000e+00	9.357069609e-02	-1.914911450e-02	7.902547759e-18
5.050000000e+00	9.308577121e-02	-1.920251840e-02	1.300362785e-17
5.100000000e+00	9.260789792e-02	-1.925585903e-02	6.590271029e-18
5.150000000e+00	9.213690540e-02	-1.930913405e-02	1.907097380e-17
5.200000000e+00	9.167262862e-02	-1.936234124e-02	1.118267474e-17
5.250000000e+00	9.121490802e-02	-1.941547850e-02	1.135388189e-17
5.300000000e+00	9.076358933e-02	-1.946854388e-02	1.314829150e-17
5.350000000e+00	9.031852330e-02	-1.952153551e-02	5.457227597e-18
5.400000000e+00	8.987956555e-02	-1.957445167e-02	2.061214417e-17
5.450000000e+00	8.944657631e-02	-1.962729069e-02	8.116371358e-18
5.500000000e+00	8.901942026e-02	-1.968005106e-02	5.851463489e-18
5.550000000e+00	8.859796636e-02	-1.973273131e-02	5.797592481e-18
5.600000000e+00	8.818208765e-02	-1.978533010e-02	8.026463470e-18
5.650000000e+00	8.777166110e-02	-1.983784613e-02	9.950943785e-18
5.700000000e+00	8.736656748e-02	-1.989027822e-02	6.731610165e-18
5.750000000e+00	8.696669116e-02	-1.994262524e-02	8.428316121e-18
5.800000000e+00	8.657192002e-02	-1.999488615e-02	8.815583123e-18
5.850000000e+00	8.618214526e-02	-2.004705996e-02	1.428515368e-17
5.900000000e+00	8.579726134e-02	-2.009914576e-02	9.886213253e-18
5.950000000e+00	8.541716582e-02	-2.015114269e-02	1.139318460e-17
6.000000000e+00	8.504175922e-02	-2.020304995e-02	1.661133544e-17
6.050000000e+00	8.467094496e-02	-2.025486680e-02	1.121530580e-17
6.100000000e+00	8.430462923e-02	-2.030659256e-02	1.301069088e-17
6.150000000e+00	8.394272087e-02	-2.035822658e-02	1.025127132e-17
6.200000000e+00	8.358513131e-02	-2.040976828e-02	1.502665593e-17
6.250000000e+00	8.323177445e-02	-2.046121711e-02	2.654687915e-17
6.300000000e+00	8.288256658e-02	-2.051257256e-02	2.784891510e-17
6.350000000e+00	8.253742630e-02	-2.056383417e-02	1.769622239e-17
6.400000000e+00	8.219627443e-02	-2.061500153e-02	9.975490873e-18
6.450000000e+00	8.185903394e-02	-2.066607425e-02	1.384429621e-17
6.500000000e+00	8.152562986e-02	-2.071705197e-02	1.312447330e-17
6.550000000e+00	8.119598926e-02	-2.076793439e-02	2.519924698e-17
6.600000000e+00	8.087004109e-02	-2.081872121e-02	1.564554738e-17
6.650000000e+00	8.054771620e-02	-2.086941218e-02	3.012326696e-17
6.700000000e+00	8.022894724e-02	-2.092000709e-02	9.530063113e-18
6.750000000e+00	7.991366861e-02	-2.097050573e-02	1.820539057e-17
6.800000000e+00	7.960181638e-02	-2.102090792e-02	1.239460345e-17
6.850000000e+00	7.929332826e-02	-2.107121354e-02	2.750895141e-17
6.900000000e+00	7.898814355e-02	-2.112142245e-02	1.779925199e-17
6.950000000e+00	7.868620307e-02	-2.117153455e-02	1.737605758e-17
7.000000000e+00	7.838744910e-02	-2.122154977e-02	2.148642804e-17
7.050000000e+00	7.809182538e-02	-2.127146805e-02	1.451866340e-17
7.100000000e+00	7.779927702e-02	-2.132128935e-02	2.919537808e-17
7.150000000e+00	7.750975047e-02	-2.137101365e-02	1.587421570e-17
7.200000000e+00	7.722319349e-02	-2.142064096e-02	1.008852752e-17
7.250000000e+00	7.693955510e-02	-2.147017129e-02	2.166980677e-17
7.300000000e+00	7.665878552e-02	-2.151960467e-02	1.998170306e-17
7.350000000e+00	7.638083618e-02	-2.156894114e-02	1.799979699e-17
7.400000000e+00	7.610565964e-02	-2.161818078e-02	2.800272292e-17
7.450000000e+00	7.583320959e-02	-2.166732365e-02	2.371175482e-17
7.500000000e+00	7.556344078e-02	-2.171636984e-02	2.364337800e-17
7.550000000e+00	7.529630902e-02	-2.176531945e-02	4.210726404e-17
7.600000000e+00	7.503177113e-02	-2.181417261e-02	2.334509471e-17
7.650000000e+00	7.476978492e-02	-2.186292942e-02	1.656649723e-17
7.700000000e+00	7.451030917e-02	-2.191159003e-02	3.989912388e-17
7.750000000e+00	7.425330356e-02	-2.196015459e-02	1.233641071e-17
7.800000000e+00	7.399872870e-02	-2.200862324e-02	4.627810118e-17
7.850000000e+00	7.374654606e-02	-2.205699615e-02	4.866877660e-17
7.900000000e+00	7.349671798e-02	-2.210527349e-02	2.026965183e-17
7.950000000e+00	7.324920761e-02	-2.215345545e-02	2.314721079e-17
8.000000000e+00	7.300397891e-02	-2.220154221e-02	2.079125630e-17
8.050000000e+00	7.276099664e-02	-2.224953398e-02	1.716072429e-17
8.100000000e+00	7.252022629e-02	-2.229743094e-02	5.203743905e-17
8.150000000e+00	7.228163411e-02	-2.234523332e-02	2.524272331e-17
8.200000000e+00	7.204518706e-02	-2.239294133e-02	2.605526216e-17
8.250000000e+00	7.181085281e-02	-2.244055520e-02	5.486463069e-17
8.300000000e+00	7.157859971e-02	-2.248807514e-02	2.259934293e-17
8.350000000e+00	7.134839676e-02	-2.253550140e-02	6.528862265e-17
8.400000000e+00	7.112021361e-02	-2.258283421e-02	2.636932539e-17
8.450000000e+00	7.089402055e-02	-2.263007382e-02	1.853985715e-17
8.500000000e+00	7.066978846e-02	-2.267722048e-02	2.658651104e-17
8.550000000e+00	7.044748883e-02	-2.272427443e-02	3.988665597e-17
8.600000000e+00	7.022709372e-02	-2.277123593e-02	5.487823903e-18
8.650000000e+00	7.000857576e-02	-2.281810525e-02	2.283216034e-17
8.700000000e+00	6.979190813e-02	-2.286488264e-02	1.782334191e-17
8.750000000e+00	6.957706455e-02	-2.291156838e-02	7.220501575e-17
8.800000000e+00	6.936401925e-02	-2.295816272e-02	4.604980066e-17
8.850000000e+00	6.915274698e-02	-2.300466596e-02	3.091092365e-17
8.900000000e+00	6.894322297e-02	-2.305107835e-02	3.434868156e-17
8.950000000e+00	6.873542294e-02	-2.309740019e-02	3.331481608e-17
9.000000000e+00	6.852932311e-02	-2.314363174e-02	3.984831621e-17
9.050000000e+00	6.832490010e-02	-2.318977330e-02	3.178933605e-17
9.100000000e+00	6.812213104e-02	-2.323582514e-02	2.221683865e-17
9.150000000e+00	6.792099346e-02	-2.328178755e-02	2.695861756e-17
9.200000000e+00	6.772146532e-02	-2.332766083e-02	4.040924605e-17
9.250000000e+00	6.752352501e-02	-2.337344525e-02	5.973132130e-17
9.300000000e+00	6.732715131e-02	-2.341914112e-02	3.542847567e-17
9.350000000e+00	6.713232341e-02	-2.346474872e-02	5.072266265e-17
9.400000000e+00	6.693902087e-02	-2.351026835e-02	3.078211914e-17
9.450000000e+00	6.674722366e-02	-2.355570031e-02	3.515115914e-17
9.500000000e+00	6.655691208e-02	-2.360104488e-02	4.842344314e-17
9.550000000e+00	6.636806681e-02	-2.364630237e-02	4.696207231e-17
9.600000000e+00	6.618066888e-02	-2.369147307e-02	5.676382812e-17
9.650000000e+00	6.599469966e-02	-2.373655728e-02	8.513430933e-17
9.700000000e+00	6.581014086e-02	-2.378155530e-02	5.256133411e-17
9.750000000e+00	6.562697452e-02	-2.382646743e-02	3.013205629e-17
9.800000000e+00	6.544518298e-02	-2.387129397e-02	5.338713911e-17
9.850000000e+00	6.526474892e-02	-2.391603522e-02	4.493572141e-17
9.900000000e+00	6.508565531e-02	-2.396069147e-02	3.433063052e-17
9.950000000e+00	6.490788542e-02	-2.400526303e-02	6.551777891e-17
1.000000000e+01	6.473142281e-02	-2.404975020e-02	2.976558373e-17
1.005000000e+01	6.455625134e-02	-2.409415328e-02	3.360906782e-17
1.010000000e+01	6.438235514e-02	-2.413847257e-02	3.444473960e-17
1.015000000e+01	6.420971860e-02	-2.418270837e-02	3.492604903e-17
1.020000000e+01	6.403832640e-02	-2.422686097e-02	6.100394730e-17
1.025000000e+01	6.386816346e-02	-2.427093069e-02	8.718779459e-17
1.030000000e+01	6.369921498e-02	-2.431491781e-02	3.691115862e-17
1.035000000e+01	6.353146638e-02	-2.435882264e-02	7.891914597e-17
1.040000000e+01	6.336490335e-02	-2.440264548e-02	6.575358562e-17
1.045000000e+01	6.319951180e-02	-2.444638662e-02	6.180735208e-17
1.050000000e+01	6.303527790e-02	-2.449004636e-02	2.282400086e-17
1.055000000e+01	6.287218801e-02	-2.453362500e-02	4.996799716e-17
1.060000000e+01	6.271022876e-02	-2.457712284e-02	7.438433393e-17
1.065000000e+01	6.254938696e-02	-2.462054017e-02	4.323712050e-17
1.070000000e+01	6.238964965e-02	-2.466387729e-02	3.364491772e-17
1.075000000e+01	6.223100410e-02	-2.470713449e-02	5.143926802e-17
1.080000000e+01	6.207343774e-02	-2.475031207e-02	4.570161538e-17
1.085000000e+01	6.191693826e-02	-2.479341031e-02	5.086110915e-17
1.090000000e+01	6.176149349e-02	-2.483642952e-02	3.850379819e-17
1.095000000e+01	6.160709149e-02	-2.487936998e-02	5.045735268e-17
1.100000000e+01	6.145372051e-02	-2.492223199e-02	7.037543404e-17
1.105000000e+01	6.130136896e-02	-2.496501583e-02	5.026540242e-17
1.110000000e+01	6.115002546e-02	-2.500772179e-02	1.131972784e-16
1.115000000e+01	6.099967879e-02	-2.505035017e-02	4.739516973e-17
1.120000000e+01	6.085031792e-02	-2.509290125e-02	3.898671766e-17
1.125000000e+01	6.070193196e-02	-2.513537531e-02	6.877945318e-17
1.130000000e+01	6.055451023e-02	-2.517777264e-02	1.357963221e-17
1.135000000e+01	6.040804220e-02	-2.522009353e-02	7.905121246e-17
1.140000000e+01	6.026251747e-02	-2.526233826e-02	4.753215968e-17
1.145000000e+01	6.011792585e-02	-2.530450711e-02	4.883135017e-17
1.150000000e+01	5.997425726e-02	-2.534660037e-02	7.960287113e-17
1.155000000e+01	5.983150180e-02	-2.538861830e-02	8.218231012e-17
1.160000000e+01	5.968964970e-02	-2.543056120e-02	1.038237797e-16
1.165000000e+01	5.954869137e-02	-2.547242934e-02	8.267303280e-17
1.170000000e+01	5.940861731e-02	-2.551422299e-02	6.765638876e-17
1.175000000e+01	5.926941821e-02	-2.555594244e-02	3.570520985e-17
1.180000000e+01	5.913108487e-02	-2.559758796e-02	3.725596371e-17
1.185000000e+01	5.899360824e-02	-2.563915982e-02	5.123219700e-17
1.190000000e+01	5.885697939e-02	-2.568065829e-02	1.222737218e-16
1.195000000e+01	5.872118953e-02	-2.572208365e-02	7.453474108e-17
1.200000000e+01	5.858622998e-02	-2.576343617e-02	3.647047255e-17
1.205000000e+01	5.845209222e-02	-2.580471611e-02	5.039366129e-17
1.210000000e+01	5.831876783e-02	-2.584592374e-02	7.547741483e-17
1.215000000e+01	5.818624850e-02	-2.588705933e-02	3.802787923e-17
1.220000000e+01	5.805452607e-02	-2.592812315e-02	5.211038862e-17
1.225000000e+01	5.792359246e-02	-2.596911546e-02	7.062561941e-17
1.230000000e+01	5.779343974e-02	-2.601003652e-02	1.475409150e-16
1.235000000e+01	5.766406007e-02	-2.605088660e-02	1.099588949e-16
1.240000000e+01	5.753544572e-02	-2.609166595e-02	7.675914017e-17
1.245000000e+01	5.740758908e-02	-2.613237483e-02	4.748267871e-17
1.250000000e+01	5.728048263e-02	-2.617301352e-02	6.108523305e-17
1.255000000e+01	5.715411898e-02	-2.621358225e-02	7.430167421e-17
1.260000000e+01	5.702849082e-02	-2.625408128e-02	1.548337883e-16
1.265000000e+01	5.690359094e-02	-2.629451088e-02	5.497447790e-17
1.270000000e+01	5.677941225e-02	-2.633487130e-02	9.928242946e-17
1.275000000e+01	5.665594774e-02	-2.637516278e-02	4.586611701e-17
1.280000000e+01	5.653319049e-02	-2.641538558e-02	4.029058741e-17
1.285000000e+01	5.641113369e-02	-2.645553995e-02	9.325569862e-17
1.290000000e+01	5.628977062e-02	-2.649562614e-02	1.003397563e-16
1.295000000e+01	5.616909463e-02	-2.653564439e-02	4.352562207e-17
1.300000000e+01	5.604909919e-02	-2.657559495e-02	4.967279826e-17
1.305000000e+01	5.592977784e-02	-2.661547807e-02	5.068712556e-17
1.310000000e+01	5.581112421e-02	-2.665529399e-02	1.765836109e-16
1.315000000e+01	5.569313200e-02	-2.669504295e-02	8.961119935e-17
1.320000000e+01	5.557579502e-02	-2.673472519e-02	1.496724956e-16
1.325000000e+01	5.545910714e-02	-2.677434096e-02	1.071520367e-16
1.330000000e+01	5.534306231e-02	-2.681389049e-02	1.067573641e-16
1.335000000e+01	5.522765458e-02	-2.685337403e-02	9.914820742e-17
1.340000000e+01	5.511287807e-02	-2.689279180e-02	7.070673454e-17
1.345000000e+01	5.499872695e-02	-2.693214404e-02	1.357757104e-16
1.350000000e+01	5.488519549e-02	-2.697143099e-02	5.848935509e-17
1.355000000e+01	5.477227804e-02	-2.701065288e-02	1.596576536e-16
1.360000000e+01	5.465996901e-02	-2.704980995e-02	7.656158337e-17
1.365000000e+01	5.454826288e-02	-2.708890241e-02	6.909676591e-17
1.370000000e+01	5.443715420e-02	-2.712793051e-02	1.087287758e-16
1.375000000e+01	5.432663759e-02	-2.716689447e-02	6.577888093e-17
1.380000000e+01	5.421670776e-02	-2.720579452e-02	1.227219162e-16
1.385000000e+01	5.410735944e-02	-2.724463088e-02	5.755724936e-17
1.390000000e+01	5.399858747e-02	-2.728340378e-02	1.205962321e-16
1.395000000e+01	5.389038673e-02	-2.732211344e-02	8.343011889e-17
1.400000000e+01	5.378275218e-02	-2.736076009e-02	9.198693522e-17
1.405000000e+01	5.367567883e-02	-2.739934394e-02	1.135918078e-16
1.410000000e+01	5.356916175e-02	-2.743786522e-02	7.876896789e-17
1.415000000e+01	5.346319608e-02	-2.747632415e-02	9.744820137e-17
1.420000000e+01	5.335777702e-02	-2.751472093e-02	9.873303264e-17
1.425000000e+01	5.325289982e-02	-2.755305580e-02	9.236588050e-17
1.430000000e+01	5.314855980e-02	-2.759132896e-02	2.468048131e-16
1.435000000e+01	5.304475232e-02	-2.762954064e-02	5.423271630e-17
1.440000000e+01	5.294147280e-02	-2.766769103e-02	6.563623222e-17
1.445000000e+01	5.283871674e-02	-2.770578036e-02	7.711524786e-17
1.450000000e+01	5.273647966e-02	-2.774380884e-02	9.851384194e-17
1.455000000e+01	5.263475715e-02	-2.778177668e-02	1.957415927e-16
1.460000000e+01	5.253354486e-02	-2.781968408e-02	3.810534926e-17
1.465000000e+01	5.243283848e-02	-2.785753125e-02	8.353153737e-17
1.470000000e+01	5.233263374e-02	-2.789531841e-02	1.012206853e-16
1.475000000e+01	5.223292646e-02	-2.793304575e-02	1.408681174e-16
1.480000000e+01	5.213371246e-02	-2.797071348e-02	1.209973298e-16
1.485000000e+01	5.203498764e-02	-2.800832180e-02	9.248862557e-17
1.490000000e+01	5.193674795e-02	-2.804587093e-02	1.267621528e-16
1.495000000e+01	5.183898936e-02	-2.808336105e-02	1.044419366e-16
1.500000000e+01	5.174170793e-02	-2.812079236e-02	6.158306516e-17
1.505000000e+01	5.164489971e-02	-2.815816508e-02	1.048129144e-16
1.510000000e+01	5.154856085e-02	-2.819547939e-02	1.077713457e-16
1.515000000e+01	5.145268751e-02	-2.823273549e-02	6.817539213e-17
1.520000000e+01	5.135727591e-02	-2.826993358e-02	9.026733938e-17
1.525000000e+01	5.126232230e-02	-2.830707386e-02	2.017028713e-16
1.530000000e+01	5.116782298e-02	-2.834415651e-02	9.904292179e-17
