# R [micrones]     Omega/c [1/micrones]    Im(epsi1)     Eq(det).Opt det SIN kz, mu = 0.3 eV, Re(epsi1)=3.90, solve_det_sinkz_vs_R.py
1.000000000e-01	7.569660422e-01	-4.621660010e-02	1.699378917e-25
1.500000000e-01	6.246045011e-01	-3.616589040e-02	1.016180227e-24
2.000000000e-01	5.437458273e-01	-3.088266214e-02	3.218268326e-24
2.500000000e-01	4.878299824e-01	-2.757996915e-02	1.002448696e-23
3.000000000e-01	4.462079369e-01	-2.530614014e-02	8.385451923e-24
3.500000000e-01	4.136711139e-01	-2.364145621e-02	2.463162526e-23
4.000000000e-01	3.873313888e-01	-2.236994666e-02	3.554206391e-23
4.500000000e-01	3.654415340e-01	-2.136828874e-02	4.953115084e-23
5.000000000e-01	3.468743469e-01	-2.056055344e-02	9.951247360e-23
5.500000000e-01	3.308657271e-01	-1.989724179e-02	2.232581630e-22
6.000000000e-01	3.168769311e-01	-1.934460285e-02	1.147039916e-22
6.500000000e-01	3.045157409e-01	-1.887877440e-02	2.527602824e-22
7.000000000e-01	2.934889107e-01	-1.848237425e-02	2.113974579e-22
7.500000000e-01	2.835722106e-01	-1.814241953e-02	2.616828227e-22
8.000000000e-01	2.745908549e-01	-1.784900443e-02	2.583812600e-22
8.500000000e-01	2.664063127e-01	-1.759443103e-02	2.296141721e-22
9.000000000e-01	2.589071792e-01	-1.737262096e-02	5.121149927e-22
9.500000000e-01	2.520027065e-01	-1.717870689e-02	9.082639937e-22
1.000000000e+00	2.456181270e-01	-1.700874266e-02	8.617007445e-22
1.050000000e+00	2.396912072e-01	-1.685949334e-02	8.644093058e-22
1.100000000e+00	2.341696700e-01	-1.672828066e-02	2.372759918e-21
1.150000000e+00	2.290092355e-01	-1.661286730e-02	1.555213120e-21
1.200000000e+00	2.241721140e-01	-1.651136909e-02	1.737848443e-21
1.250000000e+00	2.196258317e-01	-1.642218752e-02	2.323136750e-21
1.300000000e+00	2.153423064e-01	-1.634395726e-02	3.288263509e-21
1.350000000e+00	2.112971123e-01	-1.627550489e-02	2.394018035e-21
1.400000000e+00	2.074688895e-01	-1.621581620e-02	3.787407044e-21
1.450000000e+00	2.038388665e-01	-1.616400992e-02	2.054985066e-21
1.500000000e+00	2.003904704e-01	-1.611931659e-02	2.238323264e-21
1.550000000e+00	1.971090062e-01	-1.608106127e-02	4.313238025e-21
1.600000000e+00	1.939813921e-01	-1.604864950e-02	3.674441679e-21
1.650000000e+00	1.909959384e-01	-1.602155557e-02	3.878421260e-21
1.700000000e+00	1.881421630e-01	-1.599931289e-02	6.753825556e-21
1.750000000e+00	1.854106350e-01	-1.598150589e-02	1.493036222e-20
1.800000000e+00	1.827928435e-01	-1.596776327e-02	7.647353120e-21
1.850000000e+00	1.802810850e-01	-1.595775221e-02	6.181162960e-21
1.900000000e+00	1.778683675e-01	-1.595117357e-02	7.000021298e-21
1.950000000e+00	1.755483285e-01	-1.594775776e-02	4.028790795e-21
2.000000000e+00	1.733151633e-01	-1.594726114e-02	5.643714565e-21
2.050000000e+00	1.711635644e-01	-1.594946305e-02	6.860524299e-21
2.100000000e+00	1.690886675e-01	-1.595416312e-02	1.112414446e-20
2.150000000e+00	1.670860052e-01	-1.596117905e-02	1.397605773e-20
2.200000000e+00	1.651514664e-01	-1.597034464e-02	1.543685026e-20
2.250000000e+00	1.632812603e-01	-1.598150801e-02	2.322905940e-20
2.300000000e+00	1.614718854e-01	-1.599453016e-02	9.846207099e-21
2.350000000e+00	1.597201013e-01	-1.600928365e-02	3.967513800e-20
2.400000000e+00	1.580229045e-01	-1.602565140e-02	2.155497174e-20
2.450000000e+00	1.563775064e-01	-1.604352569e-02	1.683861355e-20
2.500000000e+00	1.547813140e-01	-1.606280726e-02	1.634552426e-20
2.550000000e+00	1.532319126e-01	-1.608340450e-02	1.424526445e-20
2.600000000e+00	1.517270503e-01	-1.610523277e-02	3.253667059e-20
2.650000000e+00	1.502646243e-01	-1.612821369e-02	2.626113332e-20
2.700000000e+00	1.488426681e-01	-1.615227468e-02	2.722061346e-20
2.750000000e+00	1.474593406e-01	-1.617734835e-02	3.192517213e-20
2.800000000e+00	1.461129162e-01	-1.620337211e-02	4.807766091e-20
2.850000000e+00	1.448017751e-01	-1.623028776e-02	5.749063721e-20
2.900000000e+00	1.435243955e-01	-1.625804108e-02	2.921212195e-20
2.950000000e+00	1.422793462e-01	-1.628658156e-02	3.612155197e-20
3.000000000e+00	1.410652794e-01	-1.631586204e-02	6.443602370e-20
3.050000000e+00	1.398809246e-01	-1.634583849e-02	3.231110170e-20
3.100000000e+00	1.387250835e-01	-1.637646973e-02	4.702987876e-20
3.150000000e+00	1.375966242e-01	-1.640771724e-02	4.634292244e-20
3.200000000e+00	1.364944769e-01	-1.643954491e-02	6.322462006e-20
3.250000000e+00	1.354176293e-01	-1.647191892e-02	4.176474936e-20
3.300000000e+00	1.343651230e-01	-1.650480752e-02	4.504142033e-20
3.350000000e+00	1.333360496e-01	-1.653818090e-02	3.525148675e-20
3.400000000e+00	1.323295477e-01	-1.657201105e-02	9.342244253e-20
3.450000000e+00	1.313447995e-01	-1.660627162e-02	6.178463892e-20
3.500000000e+00	1.303810281e-01	-1.664093781e-02	4.208499342e-20
3.550000000e+00	1.294374951e-01	-1.667598628e-02	1.077237764e-19
3.600000000e+00	1.285134977e-01	-1.671139502e-02	1.175100048e-19
3.650000000e+00	1.276083673e-01	-1.674714326e-02	1.148020677e-19
3.700000000e+00	1.267214665e-01	-1.678321142e-02	5.292669498e-20
3.750000000e+00	1.258521879e-01	-1.681958102e-02	8.013706867e-20
3.800000000e+00	1.249999521e-01	-1.685623457e-02	1.166918335e-19
3.850000000e+00	1.241642060e-01	-1.689315556e-02	5.853674909e-20
3.900000000e+00	1.233444214e-01	-1.693032836e-02	1.099512715e-19
3.950000000e+00	1.225400933e-01	-1.696773819e-02	9.396139538e-20
4.000000000e+00	1.217507392e-01	-1.700537104e-02	1.356870187e-19
4.050000000e+00	1.209758971e-01	-1.704321366e-02	1.571729264e-19
4.100000000e+00	1.202151248e-01	-1.708125346e-02	1.157944402e-19
4.150000000e+00	1.194679990e-01	-1.711947853e-02	8.173334756e-20
4.200000000e+00	1.187341138e-01	-1.715787755e-02	8.094707889e-20
4.250000000e+00	1.180130801e-01	-1.719643979e-02	8.265416606e-20
4.300000000e+00	1.173045246e-01	-1.723515506e-02	1.214689620e-19
4.350000000e+00	1.166080891e-01	-1.727401368e-02	1.012042695e-19
4.400000000e+00	1.159234297e-01	-1.731300643e-02	1.562031574e-19
4.450000000e+00	1.152502158e-01	-1.735212458e-02	1.554030007e-19
4.500000000e+00	1.145881298e-01	-1.739135981e-02	2.466881568e-19
4.550000000e+00	1.139368665e-01	-1.743070419e-02	2.168556867e-19
4.600000000e+00	1.132961320e-01	-1.747015020e-02	2.891618670e-19
4.650000000e+00	1.126656437e-01	-1.750969067e-02	1.155850868e-19
4.700000000e+00	1.120451293e-01	-1.754931875e-02	1.564427751e-19
4.750000000e+00	1.114343268e-01	-1.758902796e-02	1.803485367e-19
4.800000000e+00	1.108329835e-01	-1.762881208e-02	2.024183922e-19
4.850000000e+00	1.102408561e-01	-1.766866522e-02	2.294308653e-19
4.900000000e+00	1.096577097e-01	-1.770858172e-02	1.353327766e-19
4.950000000e+00	1.090833179e-01	-1.774855622e-02	2.134525390e-19
5.000000000e+00	1.085174622e-01	-1.778858359e-02	3.277951854e-19
5.050000000e+00	1.079599315e-01	-1.782865893e-02	2.680742660e-19
5.100000000e+00	1.074105222e-01	-1.786877758e-02	4.438586506e-19
5.150000000e+00	1.068690374e-01	-1.790893508e-02	2.100701746e-19
5.200000000e+00	1.063352870e-01	-1.794912717e-02	4.110536418e-19
5.250000000e+00	1.058090872e-01	-1.798934979e-02	1.295402456e-19
5.300000000e+00	1.052902602e-01	-1.802959904e-02	1.657609964e-19
5.350000000e+00	1.047786339e-01	-1.806987122e-02	3.612007776e-19
5.400000000e+00	1.042740421e-01	-1.811016278e-02	3.265145155e-19
5.450000000e+00	1.037763238e-01	-1.815047034e-02	2.764477829e-19
5.500000000e+00	1.032853229e-01	-1.819079064e-02	2.529014225e-19
5.550000000e+00	1.028008885e-01	-1.823112060e-02	2.715761669e-19
5.600000000e+00	1.023228743e-01	-1.827145724e-02	1.568371856e-19
5.650000000e+00	1.018511385e-01	-1.831179773e-02	2.169118252e-19
5.700000000e+00	1.013855439e-01	-1.835213937e-02	3.170412302e-19
5.750000000e+00	1.009259570e-01	-1.839247956e-02	6.079453428e-19
5.800000000e+00	1.004722488e-01	-1.843281581e-02	6.602809457e-19
5.850000000e+00	1.000242939e-01	-1.847314576e-02	7.614742741e-19
5.900000000e+00	9.958197073e-02	-1.851346713e-02	3.889377470e-19
5.950000000e+00	9.914516115e-02	-1.855377775e-02	3.335561652e-19
6.000000000e+00	9.871375061e-02	-1.859407554e-02	4.134157019e-19
6.050000000e+00	9.828762782e-02	-1.863435851e-02	3.568135127e-19
6.100000000e+00	9.786668467e-02	-1.867462474e-02	3.204316375e-19
6.150000000e+00	9.745081616e-02	-1.871487242e-02	3.680609138e-19
6.200000000e+00	9.703992021e-02	-1.875509980e-02	3.599003646e-19
6.250000000e+00	9.663389763e-02	-1.879530521e-02	3.018176897e-19
6.300000000e+00	9.623265197e-02	-1.883548704e-02	3.895122389e-19
6.350000000e+00	9.583608944e-02	-1.887564377e-02	3.739650462e-19
6.400000000e+00	9.544411880e-02	-1.891577392e-02	7.100566922e-19
6.450000000e+00	9.505665132e-02	-1.895587610e-02	6.002304312e-19
6.500000000e+00	9.467360061e-02	-1.899594896e-02	9.142970556e-19
6.550000000e+00	9.429488263e-02	-1.903599121e-02	3.628283358e-19
6.600000000e+00	9.392041554e-02	-1.907600163e-02	9.274972639e-19
6.650000000e+00	9.355011965e-02	-1.911597903e-02	2.848954269e-19
6.700000000e+00	9.318391738e-02	-1.915592229e-02	6.643412094e-19
6.750000000e+00	9.282173314e-02	-1.919583033e-02	8.610308708e-19
6.800000000e+00	9.246349326e-02	-1.923570211e-02	9.087492167e-19
6.850000000e+00	9.210912601e-02	-1.927553665e-02	9.843711865e-19
6.900000000e+00	9.175856142e-02	-1.931533301e-02	5.953444240e-19
6.950000000e+00	9.141173131e-02	-1.935509028e-02	8.041586724e-19
7.000000000e+00	9.106856920e-02	-1.939480759e-02	6.280874334e-19
7.050000000e+00	9.072901026e-02	-1.943448413e-02	7.168774477e-19
7.100000000e+00	9.039299125e-02	-1.947411910e-02	1.472785772e-18
7.150000000e+00	9.006045048e-02	-1.951371174e-02	4.264886723e-19
7.200000000e+00	8.973132776e-02	-1.955326135e-02	1.328183382e-18
7.250000000e+00	8.940556435e-02	-1.959276722e-02	5.227535156e-19
7.300000000e+00	8.908310291e-02	-1.963222871e-02	6.815095974e-19
7.350000000e+00	8.876388749e-02	-1.967164518e-02	8.955445859e-19
7.400000000e+00	8.844786342e-02	-1.971101603e-02	4.532779041e-19
7.450000000e+00	8.813497736e-02	-1.975034070e-02	9.186143643e-19
7.500000000e+00	8.782517717e-02	-1.978961865e-02	1.035710467e-18
7.550000000e+00	8.751841195e-02	-1.982884934e-02	1.069517967e-18
7.600000000e+00	8.721463195e-02	-1.986803229e-02	5.679910546e-19
7.650000000e+00	8.691378857e-02	-1.990716703e-02	5.524772398e-19
7.700000000e+00	8.661583431e-02	-1.994625310e-02	6.499108680e-19
7.750000000e+00	8.632072274e-02	-1.998529009e-02	8.040900543e-19
7.800000000e+00	8.602840847e-02	-2.002427758e-02	1.523478884e-18
7.850000000e+00	8.573884712e-02	-2.006321519e-02	9.983030743e-19
7.900000000e+00	8.545199530e-02	-2.010210256e-02	1.288806366e-18
7.950000000e+00	8.516781056e-02	-2.014093933e-02	1.308261256e-18
8.000000000e+00	8.488625139e-02	-2.017972519e-02	1.404797966e-18
8.050000000e+00	8.460727718e-02	-2.021845981e-02	1.582695568e-18
8.100000000e+00	8.433084818e-02	-2.025714290e-02	9.442978626e-19
8.150000000e+00	8.405692553e-02	-2.029577419e-02	1.134529175e-18
8.200000000e+00	8.378547116e-02	-2.033435341e-02	1.358404249e-18
8.250000000e+00	8.351644782e-02	-2.037288031e-02	1.062008093e-18
8.300000000e+00	8.324981905e-02	-2.041135466e-02	1.311078152e-18
8.350000000e+00	8.298554914e-02	-2.044977624e-02	7.666752804e-19
8.400000000e+00	8.272360315e-02	-2.048814484e-02	1.239693868e-18
8.450000000e+00	8.246394683e-02	-2.052646026e-02	1.496089327e-18
8.500000000e+00	8.220654665e-02	-2.056472234e-02	1.151407582e-18
8.550000000e+00	8.195136977e-02	-2.060293088e-02	1.200832921e-18
8.600000000e+00	8.169838401e-02	-2.064108575e-02	1.688192179e-18
8.650000000e+00	8.144755784e-02	-2.067918678e-02	2.372162318e-18
8.700000000e+00	8.119886037e-02	-2.071723385e-02	1.151874671e-18
8.750000000e+00	8.095226132e-02	-2.075522683e-02	9.111255881e-19
8.800000000e+00	8.070773102e-02	-2.079316560e-02	1.788951682e-18
8.850000000e+00	8.046524036e-02	-2.083105005e-02	1.088642505e-18
8.900000000e+00	8.022476084e-02	-2.086888009e-02	1.769488167e-18
8.950000000e+00	7.998626449e-02	-2.090665563e-02	2.672801703e-18
9.000000000e+00	7.974972390e-02	-2.094437659e-02	2.868580413e-18
9.050000000e+00	7.951511217e-02	-2.098204289e-02	1.614038617e-18
9.100000000e+00	7.928240293e-02	-2.101965448e-02	1.528938243e-18
9.150000000e+00	7.905157030e-02	-2.105721129e-02	2.006594783e-18
9.200000000e+00	7.882258893e-02	-2.109471328e-02	1.095598399e-18
9.250000000e+00	7.859543389e-02	-2.113216041e-02	2.401944100e-18
9.300000000e+00	7.837008077e-02	-2.116955263e-02	1.922377616e-18
9.350000000e+00	7.814650558e-02	-2.120688993e-02	2.152724904e-18
9.400000000e+00	7.792468481e-02	-2.124417227e-02	2.655039906e-18
9.450000000e+00	7.770459535e-02	-2.128139965e-02	1.142664791e-18
9.500000000e+00	7.748621454e-02	-2.131857205e-02	2.025386716e-18
9.550000000e+00	7.726952011e-02	-2.135568947e-02	2.417113409e-18
9.600000000e+00	7.705449024e-02	-2.139275192e-02	3.432490448e-18
9.650000000e+00	7.684110345e-02	-2.142975939e-02	2.780760822e-18
9.700000000e+00	7.662933868e-02	-2.146671189e-02	1.965818035e-18
9.750000000e+00	7.641917525e-02	-2.150360945e-02	1.659196366e-18
9.800000000e+00	7.621059282e-02	-2.154045209e-02	2.064022775e-18
9.850000000e+00	7.600357145e-02	-2.157723983e-02	3.470161666e-18
9.900000000e+00	7.579809152e-02	-2.161397270e-02	2.369002343e-18
9.950000000e+00	7.559413377e-02	-2.165065074e-02	3.123628316e-18
1.000000000e+01	7.539167927e-02	-2.168727398e-02	2.701344111e-18
1.005000000e+01	7.519070943e-02	-2.172384247e-02	1.410164163e-18
1.010000000e+01	7.499120596e-02	-2.176035625e-02	1.634889941e-18
1.015000000e+01	7.479315090e-02	-2.179681537e-02	8.363884217e-19
1.020000000e+01	7.459652661e-02	-2.183321988e-02	2.480227169e-18
1.025000000e+01	7.440131572e-02	-2.186956985e-02	3.157224414e-18
1.030000000e+01	7.420750118e-02	-2.190586533e-02	1.763778935e-18
1.035000000e+01	7.401506621e-02	-2.194210639e-02	1.169062587e-18
1.040000000e+01	7.382399433e-02	-2.197829309e-02	1.567156773e-18
1.045000000e+01	7.363426932e-02	-2.201442549e-02	3.289808606e-18
1.050000000e+01	7.344587524e-02	-2.205050368e-02	3.713750080e-18
1.055000000e+01	7.325879640e-02	-2.208652772e-02	1.692578063e-18
1.060000000e+01	7.307301739e-02	-2.212249769e-02	5.449933617e-18
1.065000000e+01	7.288852303e-02	-2.215841367e-02	2.158463373e-18
1.070000000e+01	7.270529841e-02	-2.219427575e-02	2.408165504e-18
1.075000000e+01	7.252332885e-02	-2.223008400e-02	3.377562995e-18
1.080000000e+01	7.234259990e-02	-2.226583852e-02	1.503063485e-18
1.085000000e+01	7.216309735e-02	-2.230153938e-02	3.525616934e-18
1.090000000e+01	7.198480722e-02	-2.233718669e-02	4.302026888e-18
1.095000000e+01	7.180771576e-02	-2.237278053e-02	1.687221807e-18
1.100000000e+01	7.163180942e-02	-2.240832099e-02	4.451910269e-18
1.105000000e+01	7.145707488e-02	-2.244380818e-02	2.363558928e-18
1.110000000e+01	7.128349903e-02	-2.247924219e-02	2.019562629e-18
1.115000000e+01	7.111106894e-02	-2.251462312e-02	2.077246415e-18
1.120000000e+01	7.093977191e-02	-2.254995107e-02	5.914937889e-18
1.125000000e+01	7.076959543e-02	-2.258522614e-02	2.540481138e-18
1.130000000e+01	7.060052718e-02	-2.262044843e-02	3.817726994e-18
1.135000000e+01	7.043255503e-02	-2.265561806e-02	1.838749337e-18
1.140000000e+01	7.026566704e-02	-2.269073512e-02	6.769510260e-18
1.145000000e+01	7.009985144e-02	-2.272579973e-02	1.473239659e-18
1.150000000e+01	6.993509665e-02	-2.276081199e-02	5.996652530e-18
1.155000000e+01	6.977139127e-02	-2.279577201e-02	2.109239430e-18
1.160000000e+01	6.960872405e-02	-2.283067991e-02	3.094794578e-18
1.165000000e+01	6.944708393e-02	-2.286553579e-02	6.586292035e-18
1.170000000e+01	6.928646001e-02	-2.290033977e-02	2.575020421e-18
1.175000000e+01	6.912684154e-02	-2.293509196e-02	1.660102464e-18
1.180000000e+01	6.896821795e-02	-2.296979248e-02	6.779236488e-18
1.185000000e+01	6.881057881e-02	-2.300444145e-02	5.178096622e-18
1.190000000e+01	6.865391384e-02	-2.303903897e-02	2.398714905e-18
1.195000000e+01	6.849821293e-02	-2.307358517e-02	4.874317829e-18
1.200000000e+01	6.834346610e-02	-2.310808016e-02	4.895639478e-18
1.205000000e+01	6.818966351e-02	-2.314252407e-02	4.813591060e-18
1.210000000e+01	6.803679548e-02	-2.317691701e-02	1.065170453e-18
1.215000000e+01	6.788485246e-02	-2.321125910e-02	3.102573463e-18
1.220000000e+01	6.773382503e-02	-2.324555047e-02	4.496287131e-18
1.225000000e+01	6.758370392e-02	-2.327979123e-02	4.500765578e-18
1.230000000e+01	6.743447998e-02	-2.331398150e-02	4.222053462e-18
1.235000000e+01	6.728614419e-02	-2.334812141e-02	4.974867873e-18
1.240000000e+01	6.713868765e-02	-2.338221108e-02	5.038902182e-18
1.245000000e+01	6.699210161e-02	-2.341625064e-02	2.818508337e-18
1.250000000e+01	6.684637742e-02	-2.345024020e-02	3.166614859e-18
1.255000000e+01	6.670150655e-02	-2.348417989e-02	2.113347203e-18
1.260000000e+01	6.655748060e-02	-2.351806983e-02	4.157611242e-18
1.265000000e+01	6.641429129e-02	-2.355191015e-02	3.504175303e-18
1.270000000e+01	6.627193042e-02	-2.358570098e-02	2.978337557e-18
1.275000000e+01	6.613038995e-02	-2.361944243e-02	5.905396165e-18
1.280000000e+01	6.598966191e-02	-2.365313463e-02	5.916504946e-18
1.285000000e+01	6.584973846e-02	-2.368677771e-02	4.454360076e-18
1.290000000e+01	6.571061186e-02	-2.372037179e-02	1.273191993e-17
1.295000000e+01	6.557227448e-02	-2.375391700e-02	3.815325623e-18
1.300000000e+01	6.543471878e-02	-2.378741347e-02	8.838835844e-18
1.305000000e+01	6.529793732e-02	-2.382086131e-02	7.022400096e-18
1.310000000e+01	6.516192279e-02	-2.385426066e-02	1.890626303e-18
1.315000000e+01	6.502666794e-02	-2.388761164e-02	5.429787754e-18
1.320000000e+01	6.489216562e-02	-2.392091438e-02	6.512904356e-18
1.325000000e+01	6.475840880e-02	-2.395416900e-02	5.340435794e-18
1.330000000e+01	6.462539053e-02	-2.398737563e-02	2.800418001e-18
1.335000000e+01	6.449310393e-02	-2.402053440e-02	9.847947757e-18
1.340000000e+01	6.436154223e-02	-2.405364543e-02	7.765921465e-18
1.345000000e+01	6.423069876e-02	-2.408670885e-02	8.623198150e-18
1.350000000e+01	6.410056690e-02	-2.411972479e-02	4.098045280e-18
1.355000000e+01	6.397114015e-02	-2.415269336e-02	4.664091764e-18
1.360000000e+01	6.384241208e-02	-2.418561470e-02	7.757721362e-18
1.365000000e+01	6.371437634e-02	-2.421848894e-02	8.016074980e-18
1.370000000e+01	6.358702665e-02	-2.425131619e-02	3.067501138e-18
1.375000000e+01	6.346035684e-02	-2.428409659e-02	8.087739554e-18
1.380000000e+01	6.333436079e-02	-2.431683026e-02	8.430976554e-18
1.385000000e+01	6.320903247e-02	-2.434951732e-02	2.833955032e-18
1.390000000e+01	6.308436592e-02	-2.438215790e-02	7.354328530e-18
1.395000000e+01	6.296035526e-02	-2.441475213e-02	6.331076696e-18
1.400000000e+01	6.283699468e-02	-2.444730013e-02	6.769297386e-18
1.405000000e+01	6.271427845e-02	-2.447980203e-02	1.036333772e-17
1.410000000e+01	6.259220090e-02	-2.451225794e-02	4.594466615e-18
1.415000000e+01	6.247075642e-02	-2.454466801e-02	5.719684291e-18
1.420000000e+01	6.234993950e-02	-2.457703234e-02	3.565377301e-18
1.425000000e+01	6.222974468e-02	-2.460935107e-02	5.815911782e-18
1.430000000e+01	6.211016656e-02	-2.464162431e-02	7.513247751e-18
1.435000000e+01	6.199119981e-02	-2.467385220e-02	3.216131788e-18
1.440000000e+01	6.187283917e-02	-2.470603485e-02	1.079208052e-17
1.445000000e+01	6.175507945e-02	-2.473817239e-02	6.835476744e-18
1.450000000e+01	6.163791549e-02	-2.477026494e-02	9.000357666e-18
1.455000000e+01	6.152134224e-02	-2.480231263e-02	6.838826517e-18
1.460000000e+01	6.140535468e-02	-2.483431557e-02	1.143857579e-17
1.465000000e+01	6.128994784e-02	-2.486627389e-02	9.478985213e-18
1.470000000e+01	6.117511683e-02	-2.489818771e-02	8.928874944e-18
1.475000000e+01	6.106085682e-02	-2.493005716e-02	6.971758544e-18
1.480000000e+01	6.094716303e-02	-2.496188235e-02	9.447234865e-18
1.485000000e+01	6.083403072e-02	-2.499366341e-02	5.565982851e-18
1.490000000e+01	6.072145523e-02	-2.502540045e-02	7.501559638e-18
1.495000000e+01	6.060943195e-02	-2.505709360e-02	6.874665719e-18
1.500000000e+01	6.049795631e-02	-2.508874298e-02	5.640664791e-18
1.505000000e+01	6.038702380e-02	-2.512034870e-02	7.600298584e-18
1.510000000e+01	6.027662997e-02	-2.515191090e-02	9.108208260e-18
1.515000000e+01	6.016677041e-02	-2.518342967e-02	1.237620695e-17
1.520000000e+01	6.005744076e-02	-2.521490516e-02	9.637162538e-18
1.525000000e+01	5.994863673e-02	-2.524633747e-02	1.370323619e-17
1.530000000e+01	5.984035405e-02	-2.527772672e-02	4.952744117e-18
