# Im(epsi1)     Re(omega/c)      Im(omega/c)      Eq(det).Opt det CON kz, R=0.5 \mum, mu_c=0.3, Re(epsi1)=3.90solve_det_conkz_vs_kz.py
0.000000000e+00	2.678468049e-01	-8.100323905e-04	4.220407796e-11
-1.000000000e-04	2.678468167e-01	-8.073191584e-04	1.252282113e-11
-2.000000000e-04	2.678468284e-01	-8.046059257e-04	1.843831079e-11
-3.000000000e-04	2.678468401e-01	-8.018926926e-04	1.699271363e-11
-4.000000000e-04	2.678468516e-01	-7.991794590e-04	2.239693764e-11
-5.000000000e-04	2.678468631e-01	-7.964662249e-04	4.687344092e-11
-6.000000000e-04	2.678468744e-01	-7.937529903e-04	9.585599807e-12
-7.000000000e-04	2.678468858e-01	-7.910397553e-04	9.045144118e-12
-8.000000000e-04	2.678468970e-01	-7.883265198e-04	1.460191712e-11
-9.000000000e-04	2.678469081e-01	-7.856132838e-04	2.123602895e-12
-1.000000000e-03	2.678469192e-01	-7.829000474e-04	1.144741818e-11
-1.100000000e-03	2.678469301e-01	-7.801868105e-04	8.690576465e-12
-1.200000000e-03	2.678469410e-01	-7.774735731e-04	8.686990159e-12
-1.300000000e-03	2.678469518e-01	-7.747603354e-04	5.868528354e-11
-1.400000000e-03	2.678469625e-01	-7.720470971e-04	1.349978751e-11
-1.500000000e-03	2.678469732e-01	-7.693338585e-04	1.152024282e-11
-1.600000000e-03	2.678469837e-01	-7.666206194e-04	1.346634060e-11
-1.700000000e-03	2.678469942e-01	-7.639073798e-04	1.333683704e-11
-1.800000000e-03	2.678470046e-01	-7.611941399e-04	5.646734329e-11
-1.900000000e-03	2.678470149e-01	-7.584808995e-04	1.260756943e-11
-2.000000000e-03	2.678470252e-01	-7.557676587e-04	5.515518581e-12
-2.100000000e-03	2.678470353e-01	-7.530544175e-04	9.678232481e-12
-2.200000000e-03	2.678470454e-01	-7.503411759e-04	1.359040854e-11
-2.300000000e-03	2.678470553e-01	-7.476279338e-04	1.283717126e-11
-2.400000000e-03	2.678470652e-01	-7.449146914e-04	2.908376692e-11
-2.500000000e-03	2.678470751e-01	-7.422014486e-04	1.283125712e-11
-2.600000000e-03	2.678470848e-01	-7.394882054e-04	1.764409014e-11
-2.700000000e-03	2.678470944e-01	-7.367749618e-04	9.843541163e-12
-2.800000000e-03	2.678471040e-01	-7.340617178e-04	2.007691801e-11
-2.900000000e-03	2.678471135e-01	-7.313484734e-04	1.615534231e-11
-3.000000000e-03	2.678471229e-01	-7.286352287e-04	4.787170884e-12
-3.100000000e-03	2.678471322e-01	-7.259219835e-04	6.411097439e-12
-3.200000000e-03	2.678471415e-01	-7.232087381e-04	8.198664435e-12
-3.300000000e-03	2.678471506e-01	-7.204954922e-04	1.784413723e-11
-3.400000000e-03	2.678471597e-01	-7.177822460e-04	1.461619155e-11
-3.500000000e-03	2.678471687e-01	-7.150689994e-04	7.962946244e-11
-3.600000000e-03	2.678471776e-01	-7.123557525e-04	1.170459561e-11
-3.700000000e-03	2.678471864e-01	-7.096425053e-04	1.236983591e-11
-3.800000000e-03	2.678471952e-01	-7.069292577e-04	1.762207045e-10
-3.900000000e-03	2.678472038e-01	-7.042160097e-04	1.342799414e-11
-4.000000000e-03	2.678472124e-01	-7.015027614e-04	5.617276220e-12
-4.100000000e-03	2.678472209e-01	-6.987895128e-04	1.127337063e-11
-4.200000000e-03	2.678472293e-01	-6.960762639e-04	1.438744842e-11
-4.300000000e-03	2.678472377e-01	-6.933630147e-04	9.232752780e-12
-4.400000000e-03	2.678472459e-01	-6.906497651e-04	1.697471720e-11
-4.500000000e-03	2.678472541e-01	-6.879365152e-04	3.136604372e-11
-4.600000000e-03	2.678472622e-01	-6.852232650e-04	1.422704099e-11
-4.700000000e-03	2.678472702e-01	-6.825100145e-04	8.619627312e-11
-4.800000000e-03	2.678472781e-01	-6.797967637e-04	4.771904767e-12
-4.900000000e-03	2.678472859e-01	-6.770835126e-04	3.150414907e-11
-5.000000000e-03	2.678472937e-01	-6.743702612e-04	9.663806540e-12
-5.100000000e-03	2.678473014e-01	-6.716570095e-04	9.353200243e-12
-5.200000000e-03	2.678473090e-01	-6.689437576e-04	1.169499774e-11
-5.300000000e-03	2.678473165e-01	-6.662305053e-04	6.864243403e-12
-5.400000000e-03	2.678473239e-01	-6.635172528e-04	1.635440417e-11
-5.500000000e-03	2.678473312e-01	-6.608040000e-04	5.751804276e-11
-5.600000000e-03	2.678473385e-01	-6.580907470e-04	6.772826857e-12
-5.700000000e-03	2.678473457e-01	-6.553774937e-04	8.857150153e-12
-5.800000000e-03	2.678473528e-01	-6.526642401e-04	1.031705041e-11
-5.900000000e-03	2.678473598e-01	-6.499509863e-04	7.276514948e-12
-6.000000000e-03	2.678473667e-01	-6.472377322e-04	1.090891514e-11
-6.100000000e-03	2.678473736e-01	-6.445244778e-04	6.226848884e-12
-6.200000000e-03	2.678473803e-01	-6.418112233e-04	5.374402051e-11
-6.300000000e-03	2.678473870e-01	-6.390979685e-04	1.215932487e-11
-6.400000000e-03	2.678473936e-01	-6.363847134e-04	1.356051053e-11
-6.500000000e-03	2.678474001e-01	-6.336714581e-04	2.922412153e-11
-6.600000000e-03	2.678474066e-01	-6.309582026e-04	1.600446064e-11
-6.700000000e-03	2.678474129e-01	-6.282449469e-04	1.237696844e-11
-6.800000000e-03	2.678474192e-01	-6.255316910e-04	1.699194100e-11
-6.900000000e-03	2.678474254e-01	-6.228184348e-04	5.249577245e-11
-7.000000000e-03	2.678474315e-01	-6.201051784e-04	1.038207078e-11
-7.100000000e-03	2.678474375e-01	-6.173919219e-04	1.525561126e-11
-7.200000000e-03	2.678474435e-01	-6.146786651e-04	6.299115156e-12
-7.300000000e-03	2.678474493e-01	-6.119654081e-04	1.884667800e-11
-7.400000000e-03	2.678474551e-01	-6.092521510e-04	1.156037109e-11
-7.500000000e-03	2.678474608e-01	-6.065388936e-04	6.075569830e-12
-7.600000000e-03	2.678474664e-01	-6.038256361e-04	3.827661741e-11
-7.700000000e-03	2.678474720e-01	-6.011123784e-04	2.423433579e-11
-7.800000000e-03	2.678474774e-01	-5.983991205e-04	9.748148816e-12
-7.900000000e-03	2.678474828e-01	-5.956858625e-04	1.101336040e-10
-8.000000000e-03	2.678474881e-01	-5.929726042e-04	2.548195777e-11
-8.100000000e-03	2.678474933e-01	-5.902593458e-04	5.122634098e-12
-8.200000000e-03	2.678474984e-01	-5.875460873e-04	7.102837062e-12
-8.300000000e-03	2.678475034e-01	-5.848328286e-04	9.163599776e-12
-8.400000000e-03	2.678475084e-01	-5.821195697e-04	7.711974368e-12
-8.500000000e-03	2.678475132e-01	-5.794063107e-04	1.208538846e-11
-8.600000000e-03	2.678475180e-01	-5.766930516e-04	1.537501523e-11
-8.700000000e-03	2.678475227e-01	-5.739797923e-04	1.541883510e-11
-8.800000000e-03	2.678475274e-01	-5.712665329e-04	7.030860098e-11
-8.900000000e-03	2.678475319e-01	-5.685532734e-04	8.150135284e-12
-9.000000000e-03	2.678475364e-01	-5.658400137e-04	1.903335348e-11
-9.100000000e-03	2.678475407e-01	-5.631267539e-04	1.301192912e-11
-9.200000000e-03	2.678475450e-01	-5.604134940e-04	1.141742094e-11
-9.300000000e-03	2.678475492e-01	-5.577002340e-04	7.258943014e-12
-9.400000000e-03	2.678475534e-01	-5.549869738e-04	1.282806005e-11
-9.500000000e-03	2.678475574e-01	-5.522737136e-04	9.316149342e-12
-9.600000000e-03	2.678475614e-01	-5.495604533e-04	9.980906741e-12
-9.700000000e-03	2.678475653e-01	-5.468471928e-04	8.422287484e-12
-9.800000000e-03	2.678475691e-01	-5.441339323e-04	1.412307837e-11
-9.900000000e-03	2.678475728e-01	-5.414206717e-04	1.389613415e-11
-1.000000000e-02	2.678475764e-01	-5.387074110e-04	2.189979430e-11
-1.010000000e-02	2.678475800e-01	-5.359941502e-04	1.091154299e-11
-1.020000000e-02	2.678475834e-01	-5.332808894e-04	1.653255206e-11
-1.030000000e-02	2.678475868e-01	-5.305676285e-04	1.087337895e-11
-1.040000000e-02	2.678475901e-01	-5.278543675e-04	2.517571161e-11
-1.050000000e-02	2.678475933e-01	-5.251411064e-04	3.422203618e-11
-1.060000000e-02	2.678475965e-01	-5.224278453e-04	1.255401952e-11
-1.070000000e-02	2.678475995e-01	-5.197145841e-04	1.145890597e-11
-1.080000000e-02	2.678476025e-01	-5.170013229e-04	5.111794788e-11
-1.090000000e-02	2.678476054e-01	-5.142880616e-04	2.380745672e-11
-1.100000000e-02	2.678476082e-01	-5.115748003e-04	2.227790723e-11
-1.110000000e-02	2.678476110e-01	-5.088615390e-04	6.537411389e-12
-1.120000000e-02	2.678476136e-01	-5.061482776e-04	3.361336911e-11
-1.130000000e-02	2.678476162e-01	-5.034350162e-04	1.839535378e-11
-1.140000000e-02	2.678476186e-01	-5.007217548e-04	3.418090914e-11
-1.150000000e-02	2.678476210e-01	-4.980084933e-04	7.033453177e-12
-1.160000000e-02	2.678476234e-01	-4.952952318e-04	8.760994367e-12
-1.170000000e-02	2.678476256e-01	-4.925819704e-04	7.627317823e-12
-1.180000000e-02	2.678476277e-01	-4.898687089e-04	1.229596468e-11
-1.190000000e-02	2.678476298e-01	-4.871554474e-04	4.618461339e-12
-1.200000000e-02	2.678476318e-01	-4.844421859e-04	1.982802949e-11
-1.210000000e-02	2.678476337e-01	-4.817289244e-04	1.259342119e-11
-1.220000000e-02	2.678476355e-01	-4.790156629e-04	9.366021678e-12
-1.230000000e-02	2.678476373e-01	-4.763024014e-04	1.570526761e-11
-1.240000000e-02	2.678476389e-01	-4.735891399e-04	8.009920013e-12
-1.250000000e-02	2.678476405e-01	-4.708758785e-04	3.071882882e-11
-1.260000000e-02	2.678476420e-01	-4.681626171e-04	7.617994327e-12
-1.270000000e-02	2.678476434e-01	-4.654493557e-04	2.041335857e-11
-1.280000000e-02	2.678476447e-01	-4.627360943e-04	1.210694875e-11
-1.290000000e-02	2.678476460e-01	-4.600228330e-04	4.162788569e-11
-1.300000000e-02	2.678476471e-01	-4.573095718e-04	1.622682386e-11
-1.310000000e-02	2.678476482e-01	-4.545963105e-04	1.668404475e-11
-1.320000000e-02	2.678476492e-01	-4.518830493e-04	1.114735276e-11
-1.330000000e-02	2.678476501e-01	-4.491697882e-04	4.633644287e-11
-1.340000000e-02	2.678476510e-01	-4.464565271e-04	1.669152438e-11
-1.350000000e-02	2.678476517e-01	-4.437432661e-04	6.585844458e-12
-1.360000000e-02	2.678476524e-01	-4.410300052e-04	1.242439358e-11
-1.370000000e-02	2.678476530e-01	-4.383167443e-04	1.901796474e-11
-1.380000000e-02	2.678476535e-01	-4.356034835e-04	9.708313369e-12
-1.390000000e-02	2.678476539e-01	-4.328902228e-04	1.201939170e-11
-1.400000000e-02	2.678476542e-01	-4.301769622e-04	1.262757666e-11
-1.410000000e-02	2.678476545e-01	-4.274637016e-04	7.587934494e-12
-1.420000000e-02	2.678476547e-01	-4.247504412e-04	1.709892922e-11
-1.430000000e-02	2.678476547e-01	-4.220371808e-04	2.892418732e-12
-1.440000000e-02	2.678476548e-01	-4.193239206e-04	7.002947080e-12
-1.450000000e-02	2.678476547e-01	-4.166106604e-04	6.974974784e-12
-1.460000000e-02	2.678476545e-01	-4.138974003e-04	8.025214619e-12
-1.470000000e-02	2.678476543e-01	-4.111841404e-04	1.043273590e-11
-1.480000000e-02	2.678476540e-01	-4.084708806e-04	1.268258440e-11
-1.490000000e-02	2.678476536e-01	-4.057576209e-04	2.035026123e-11
-1.500000000e-02	2.678476531e-01	-4.030443613e-04	6.178520550e-12
-1.510000000e-02	2.678476525e-01	-4.003311019e-04	4.003178534e-11
-1.520000000e-02	2.678476519e-01	-3.976178426e-04	2.897136867e-11
-1.530000000e-02	2.678476511e-01	-3.949045834e-04	9.521041307e-12
-1.540000000e-02	2.678476503e-01	-3.921913243e-04	1.233079386e-11
-1.550000000e-02	2.678476494e-01	-3.894780654e-04	1.747225504e-11
-1.560000000e-02	2.678476484e-01	-3.867648067e-04	1.939067721e-11
-1.570000000e-02	2.678476474e-01	-3.840515481e-04	6.747941824e-12
-1.580000000e-02	2.678476462e-01	-3.813382897e-04	1.812149489e-11
-1.590000000e-02	2.678476450e-01	-3.786250314e-04	1.231469323e-11
-1.600000000e-02	2.678476437e-01	-3.759117733e-04	7.941019874e-12
-1.610000000e-02	2.678476423e-01	-3.731985154e-04	6.229869826e-12
-1.620000000e-02	2.678476408e-01	-3.704852576e-04	1.708383982e-11
-1.630000000e-02	2.678476393e-01	-3.677720001e-04	1.522561149e-11
-1.640000000e-02	2.678476376e-01	-3.650587427e-04	1.054913679e-11
-1.650000000e-02	2.678476359e-01	-3.623454855e-04	1.275601749e-11
-1.660000000e-02	2.678476341e-01	-3.596322284e-04	2.845431358e-11
-1.670000000e-02	2.678476322e-01	-3.569189716e-04	1.792516339e-11
-1.680000000e-02	2.678476302e-01	-3.542057150e-04	1.354109915e-11
-1.690000000e-02	2.678476282e-01	-3.514924586e-04	1.096192834e-11
-1.700000000e-02	2.678476260e-01	-3.487792024e-04	8.159779368e-12
-1.710000000e-02	2.678476238e-01	-3.460659464e-04	1.144000591e-11
-1.720000000e-02	2.678476215e-01	-3.433526906e-04	7.433880279e-12
-1.730000000e-02	2.678476191e-01	-3.406394351e-04	2.526817725e-11
-1.740000000e-02	2.678476167e-01	-3.379261797e-04	5.647118576e-12
-1.750000000e-02	2.678476141e-01	-3.352129246e-04	1.773919052e-11
-1.760000000e-02	2.678476115e-01	-3.324996697e-04	3.771514591e-11
-1.770000000e-02	2.678476088e-01	-3.297864151e-04	1.137781880e-11
-1.780000000e-02	2.678476060e-01	-3.270731607e-04	1.198951143e-11
-1.790000000e-02	2.678476031e-01	-3.243599066e-04	1.569084233e-11
-1.800000000e-02	2.678476002e-01	-3.216466527e-04	4.638146790e-12
-1.810000000e-02	2.678475971e-01	-3.189333990e-04	9.211238672e-12
-1.820000000e-02	2.678475940e-01	-3.162201456e-04	6.912024530e-12
-1.830000000e-02	2.678475908e-01	-3.135068925e-04	7.529523998e-12
-1.840000000e-02	2.678475875e-01	-3.107936397e-04	9.174966603e-12
-1.850000000e-02	2.678475841e-01	-3.080803871e-04	4.577724040e-11
-1.860000000e-02	2.678475807e-01	-3.053671348e-04	1.263796654e-11
-1.870000000e-02	2.678475771e-01	-3.026538827e-04	3.123312751e-11
-1.880000000e-02	2.678475735e-01	-2.999406310e-04	1.675649089e-11
-1.890000000e-02	2.678475698e-01	-2.972273795e-04	1.766004046e-11
-1.900000000e-02	2.678475660e-01	-2.945141283e-04	5.066720875e-11
-1.910000000e-02	2.678475622e-01	-2.918008775e-04	2.697584023e-11
-1.920000000e-02	2.678475582e-01	-2.890876269e-04	4.683659828e-11
-1.930000000e-02	2.678475542e-01	-2.863743766e-04	3.198009611e-11
-1.940000000e-02	2.678475501e-01	-2.836611267e-04	4.039181182e-11
-1.950000000e-02	2.678475459e-01	-2.809478770e-04	6.949477580e-12
-1.960000000e-02	2.678475416e-01	-2.782346277e-04	2.485083603e-11
-1.970000000e-02	2.678475373e-01	-2.755213787e-04	1.513290221e-11
-1.980000000e-02	2.678475328e-01	-2.728081300e-04	1.594715626e-11
-1.990000000e-02	2.678475283e-01	-2.700948816e-04	1.681438986e-11
-2.000000000e-02	2.678475237e-01	-2.673816336e-04	4.666778836e-11
-2.010000000e-02	2.678475190e-01	-2.646683859e-04	1.385650927e-11
-2.020000000e-02	2.678475142e-01	-2.619551386e-04	1.275564684e-11
-2.030000000e-02	2.678475094e-01	-2.592418915e-04	3.447887815e-11
-2.040000000e-02	2.678475044e-01	-2.565286449e-04	4.286339991e-11
-2.050000000e-02	2.678474994e-01	-2.538153986e-04	9.641695405e-12
-2.060000000e-02	2.678474943e-01	-2.511021527e-04	5.270012189e-12
-2.070000000e-02	2.678474891e-01	-2.483889071e-04	2.033737001e-11
-2.080000000e-02	2.678474839e-01	-2.456756619e-04	4.888332759e-12
-2.090000000e-02	2.678474785e-01	-2.429624170e-04	6.748104142e-12
-2.100000000e-02	2.678474731e-01	-2.402491726e-04	2.292024103e-11
-2.110000000e-02	2.678474676e-01	-2.375359285e-04	2.234060544e-11
-2.120000000e-02	2.678474620e-01	-2.348226848e-04	9.423871154e-12
-2.130000000e-02	2.678474563e-01	-2.321094415e-04	9.337644583e-12
-2.140000000e-02	2.678474505e-01	-2.293961985e-04	1.585810463e-11
-2.150000000e-02	2.678474447e-01	-2.266829560e-04	8.489003398e-12
-2.160000000e-02	2.678474388e-01	-2.239697139e-04	8.058746810e-12
-2.170000000e-02	2.678474327e-01	-2.212564722e-04	1.393036703e-11
-2.180000000e-02	2.678474267e-01	-2.185432308e-04	9.593033339e-12
-2.190000000e-02	2.678474205e-01	-2.158299899e-04	6.618718168e-12
-2.200000000e-02	2.678474142e-01	-2.131167495e-04	2.018553149e-11
-2.210000000e-02	2.678474079e-01	-2.104035094e-04	1.331436784e-11
-2.220000000e-02	2.678474015e-01	-2.076902697e-04	1.403164078e-11
-2.230000000e-02	2.678473950e-01	-2.049770305e-04	1.629191988e-11
-2.240000000e-02	2.678473884e-01	-2.022637918e-04	1.165752741e-11
-2.250000000e-02	2.678473817e-01	-1.995505534e-04	2.890584578e-11
-2.260000000e-02	2.678473750e-01	-1.968373155e-04	1.453469746e-11
-2.270000000e-02	2.678473681e-01	-1.941240781e-04	6.873926954e-12
-2.280000000e-02	2.678473612e-01	-1.914108411e-04	1.156207789e-11
-2.290000000e-02	2.678473542e-01	-1.886976045e-04	2.354846482e-11
-2.300000000e-02	2.678473471e-01	-1.859843684e-04	1.551330885e-11
-2.310000000e-02	2.678473400e-01	-1.832711328e-04	1.256451225e-11
-2.320000000e-02	2.678473327e-01	-1.805578976e-04	8.556866131e-12
-2.330000000e-02	2.678473254e-01	-1.778446629e-04	1.206383557e-11
-2.340000000e-02	2.678473180e-01	-1.751314287e-04	2.423248567e-11
-2.350000000e-02	2.678473105e-01	-1.724181950e-04	1.356516474e-11
-2.360000000e-02	2.678473029e-01	-1.697049617e-04	1.083164280e-11
-2.370000000e-02	2.678472953e-01	-1.669917290e-04	1.225211597e-11
-2.380000000e-02	2.678472875e-01	-1.642784967e-04	1.294713312e-11
-2.390000000e-02	2.678472797e-01	-1.615652649e-04	1.239666722e-11
-2.400000000e-02	2.678472718e-01	-1.588520336e-04	8.672925778e-12
-2.410000000e-02	2.678472638e-01	-1.561388029e-04	2.531243309e-11
-2.420000000e-02	2.678472557e-01	-1.534255726e-04	1.066889633e-11
-2.430000000e-02	2.678472476e-01	-1.507123428e-04	3.118097555e-11
-2.440000000e-02	2.678472394e-01	-1.479991136e-04	9.895728653e-12
-2.450000000e-02	2.678472310e-01	-1.452858849e-04	6.551442796e-12
-2.460000000e-02	2.678472226e-01	-1.425726567e-04	3.576008898e-11
-2.470000000e-02	2.678472142e-01	-1.398594290e-04	2.037206259e-11
-2.480000000e-02	2.678472056e-01	-1.371462019e-04	9.846828239e-12
-2.490000000e-02	2.678471970e-01	-1.344329753e-04	7.590651944e-12
-2.500000000e-02	2.678471882e-01	-1.317197493e-04	1.257337206e-11
-2.510000000e-02	2.678471794e-01	-1.290065238e-04	5.427758883e-12
-2.520000000e-02	2.678471705e-01	-1.262932988e-04	1.090104077e-11
-2.530000000e-02	2.678471615e-01	-1.235800744e-04	1.884405245e-11
-2.540000000e-02	2.678471525e-01	-1.208668506e-04	1.774256741e-11
-2.550000000e-02	2.678471433e-01	-1.181536273e-04	2.281216599e-11
-2.560000000e-02	2.678471341e-01	-1.154404046e-04	1.268137194e-10
-2.570000000e-02	2.678471248e-01	-1.127271824e-04	1.048182616e-11
-2.580000000e-02	2.678471154e-01	-1.100139609e-04	1.748163264e-11
-2.590000000e-02	2.678471060e-01	-1.073007399e-04	6.877040141e-12
-2.600000000e-02	2.678470964e-01	-1.045875195e-04	2.324249564e-11
-2.610000000e-02	2.678470868e-01	-1.018742997e-04	1.560384626e-11
-2.620000000e-02	2.678470771e-01	-9.916108046e-05	1.144228229e-11
-2.630000000e-02	2.678470673e-01	-9.644786183e-05	1.302429711e-11
-2.640000000e-02	2.678470574e-01	-9.373464380e-05	6.159282145e-12
-2.650000000e-02	2.678470474e-01	-9.102142638e-05	7.351880189e-12
-2.660000000e-02	2.678470374e-01	-8.830820957e-05	1.836908718e-11
-2.670000000e-02	2.678470272e-01	-8.559499337e-05	9.073696427e-12
-2.680000000e-02	2.678470170e-01	-8.288177778e-05	2.832934405e-11
-2.690000000e-02	2.678470067e-01	-8.016856282e-05	8.528709360e-12
-2.700000000e-02	2.678469964e-01	-7.745534848e-05	1.075182830e-11
-2.710000000e-02	2.678469859e-01	-7.474213478e-05	1.951374860e-11
-2.720000000e-02	2.678469754e-01	-7.202892170e-05	8.046245154e-12
-2.730000000e-02	2.678469647e-01	-6.931570926e-05	2.381530005e-11
-2.740000000e-02	2.678469540e-01	-6.660249747e-05	9.082145788e-12
-2.750000000e-02	2.678469432e-01	-6.388928632e-05	1.168897237e-11
-2.760000000e-02	2.678469324e-01	-6.117607582e-05	1.446346149e-11
-2.770000000e-02	2.678469214e-01	-5.846286598e-05	1.476291420e-11
-2.780000000e-02	2.678469104e-01	-5.574965679e-05	7.853796902e-12
-2.790000000e-02	2.678468993e-01	-5.303644827e-05	2.459256439e-11
-2.800000000e-02	2.678468881e-01	-5.032324041e-05	1.287855224e-11
-2.810000000e-02	2.678468768e-01	-4.761003323e-05	4.515877148e-11
-2.820000000e-02	2.678468654e-01	-4.489682671e-05	1.296889125e-11
-2.830000000e-02	2.678468540e-01	-4.218362088e-05	1.990294092e-11
-2.840000000e-02	2.678468424e-01	-3.947041573e-05	4.047472705e-11
-2.850000000e-02	2.678468308e-01	-3.675721128e-05	1.211847051e-11
-2.860000000e-02	2.678468191e-01	-3.404400751e-05	1.899683474e-11
-2.870000000e-02	2.678468073e-01	-3.133080444e-05	4.772075349e-11
-2.880000000e-02	2.678467955e-01	-2.861760207e-05	1.108983920e-11
-2.890000000e-02	2.678467835e-01	-2.590440040e-05	2.466517255e-11
-2.900000000e-02	2.678467715e-01	-2.319119944e-05	8.490020397e-12
-2.910000000e-02	2.678467594e-01	-2.047799920e-05	7.219214874e-12
-2.920000000e-02	2.678467472e-01	-1.776479967e-05	3.133188485e-11
-2.930000000e-02	2.678467349e-01	-1.505160086e-05	5.010569525e-11
-2.940000000e-02	2.678467226e-01	-1.233840278e-05	1.710805356e-11
-2.950000000e-02	2.678467101e-01	-9.625205426e-06	1.083679582e-11
-2.960000000e-02	2.678466976e-01	-6.912008807e-06	5.743407944e-12
-2.970000000e-02	2.678466850e-01	-4.198812925e-06	1.261438772e-11
-2.980000000e-02	2.678466723e-01	-1.485617786e-06	8.088421552e-12
-2.990000000e-02	2.678466596e-01	1.227576607e-06	1.222304899e-11
-3.000000000e-02	2.678466467e-01	3.940770250e-06	8.074458761e-12
