# Im(epsi1)     Re(omega/c)      Im(omega/c)      Eq(det).Opt det CON kz, R=0.5 \mum, mu_c=0.3, Re(epsi1)=3.90solve_det_conkz_vs_kz.py
0.000000000e+00	2.678654173e-01	-8.101136432e-04	1.741096860e-11
-1.000000000e-04	2.678654291e-01	-8.074002632e-04	9.918802911e-12
-2.000000000e-04	2.678654408e-01	-8.046868827e-04	1.160821499e-11
-3.000000000e-04	2.678654524e-01	-8.019735017e-04	3.485170653e-11
-4.000000000e-04	2.678654640e-01	-7.992601202e-04	7.017125694e-12
-5.000000000e-04	2.678654754e-01	-7.965467383e-04	9.091799808e-12
-6.000000000e-04	2.678654868e-01	-7.938333558e-04	4.331794816e-12
-7.000000000e-04	2.678654981e-01	-7.911199729e-04	3.189857390e-11
-8.000000000e-04	2.678655094e-01	-7.884065895e-04	6.814123388e-12
-9.000000000e-04	2.678655205e-01	-7.856932057e-04	1.081829921e-11
-1.000000000e-03	2.678655315e-01	-7.829798214e-04	2.292309678e-11
-1.100000000e-03	2.678655425e-01	-7.802664366e-04	2.816977171e-11
-1.200000000e-03	2.678655534e-01	-7.775530514e-04	7.465224868e-11
-1.300000000e-03	2.678655642e-01	-7.748396658e-04	2.057466042e-11
-1.400000000e-03	2.678655749e-01	-7.721262797e-04	9.741738861e-12
-1.500000000e-03	2.678655856e-01	-7.694128931e-04	7.532219454e-12
-1.600000000e-03	2.678655961e-01	-7.666995062e-04	2.714567663e-11
-1.700000000e-03	2.678656066e-01	-7.639861188e-04	3.345444615e-11
-1.800000000e-03	2.678656170e-01	-7.612727309e-04	1.423593220e-11
-1.900000000e-03	2.678656273e-01	-7.585593427e-04	1.974479003e-12
-2.000000000e-03	2.678656376e-01	-7.558459540e-04	4.572709941e-12
-2.100000000e-03	2.678656477e-01	-7.531325649e-04	9.160957857e-11
-2.200000000e-03	2.678656578e-01	-7.504191755e-04	1.417390848e-11
-2.300000000e-03	2.678656678e-01	-7.477057856e-04	1.178141049e-11
-2.400000000e-03	2.678656777e-01	-7.449923953e-04	1.225782717e-11
-2.500000000e-03	2.678656875e-01	-7.422790046e-04	1.711416393e-11
-2.600000000e-03	2.678656972e-01	-7.395656135e-04	7.775422665e-12
-2.700000000e-03	2.678657069e-01	-7.368522220e-04	7.786480203e-12
-2.800000000e-03	2.678657164e-01	-7.341388302e-04	2.078497138e-11
-2.900000000e-03	2.678657259e-01	-7.314254379e-04	3.380059104e-11
-3.000000000e-03	2.678657353e-01	-7.287120453e-04	3.451151366e-11
-3.100000000e-03	2.678657446e-01	-7.259986523e-04	2.928157107e-11
-3.200000000e-03	2.678657539e-01	-7.232852590e-04	2.079741160e-11
-3.300000000e-03	2.678657630e-01	-7.205718653e-04	2.356538384e-11
-3.400000000e-03	2.678657721e-01	-7.178584712e-04	2.624091031e-11
-3.500000000e-03	2.678657811e-01	-7.151450767e-04	1.447108077e-11
-3.600000000e-03	2.678657900e-01	-7.124316820e-04	6.796834155e-11
-3.700000000e-03	2.678657989e-01	-7.097182868e-04	5.264178380e-12
-3.800000000e-03	2.678658076e-01	-7.070048914e-04	2.622538306e-12
-3.900000000e-03	2.678658163e-01	-7.042914956e-04	2.509527575e-11
-4.000000000e-03	2.678658249e-01	-7.015780994e-04	9.065469961e-11
-4.100000000e-03	2.678658334e-01	-6.988647029e-04	9.385391054e-11
-4.200000000e-03	2.678658418e-01	-6.961513061e-04	6.882017329e-12
-4.300000000e-03	2.678658501e-01	-6.934379090e-04	6.053359633e-12
-4.400000000e-03	2.678658584e-01	-6.907245116e-04	7.381944982e-12
-4.500000000e-03	2.678658665e-01	-6.880111138e-04	1.094304942e-11
-4.600000000e-03	2.678658746e-01	-6.852977158e-04	3.144741201e-12
-4.700000000e-03	2.678658826e-01	-6.825843174e-04	2.299782546e-11
-4.800000000e-03	2.678658905e-01	-6.798709187e-04	1.836434266e-11
-4.900000000e-03	2.678658984e-01	-6.771575198e-04	3.586617845e-12
-5.000000000e-03	2.678659061e-01	-6.744441205e-04	1.819400225e-11
-5.100000000e-03	2.678659138e-01	-6.717307209e-04	4.182800767e-11
-5.200000000e-03	2.678659214e-01	-6.690173211e-04	8.950501826e-12
-5.300000000e-03	2.678659289e-01	-6.663039210e-04	2.851976508e-11
-5.400000000e-03	2.678659363e-01	-6.635905206e-04	1.472220154e-10
-5.500000000e-03	2.678659437e-01	-6.608771200e-04	5.032884053e-12
-5.600000000e-03	2.678659510e-01	-6.581637190e-04	1.813827003e-11
-5.700000000e-03	2.678659581e-01	-6.554503178e-04	1.542979879e-11
-5.800000000e-03	2.678659652e-01	-6.527369164e-04	4.550333255e-11
-5.900000000e-03	2.678659722e-01	-6.500235147e-04	2.042348043e-11
-6.000000000e-03	2.678659792e-01	-6.473101127e-04	7.661111507e-12
-6.100000000e-03	2.678659860e-01	-6.445967105e-04	1.172002387e-11
-6.200000000e-03	2.678659928e-01	-6.418833081e-04	2.228682835e-11
-6.300000000e-03	2.678659995e-01	-6.391699054e-04	1.284220730e-11
-6.400000000e-03	2.678660061e-01	-6.364565025e-04	1.434219802e-11
-6.500000000e-03	2.678660126e-01	-6.337430993e-04	1.450644784e-11
-6.600000000e-03	2.678660191e-01	-6.310296960e-04	1.023738509e-11
-6.700000000e-03	2.678660254e-01	-6.283162924e-04	1.677999682e-11
-6.800000000e-03	2.678660317e-01	-6.256028886e-04	2.522340141e-11
-6.900000000e-03	2.678660379e-01	-6.228894845e-04	1.915647031e-11
-7.000000000e-03	2.678660440e-01	-6.201760803e-04	1.302743559e-11
-7.100000000e-03	2.678660500e-01	-6.174626759e-04	5.264472656e-12
-7.200000000e-03	2.678660560e-01	-6.147492712e-04	1.175013754e-11
-7.300000000e-03	2.678660618e-01	-6.120358664e-04	3.573697281e-12
-7.400000000e-03	2.678660676e-01	-6.093224614e-04	1.070990777e-11
-7.500000000e-03	2.678660733e-01	-6.066090561e-04	2.930885715e-11
-7.600000000e-03	2.678660789e-01	-6.038956507e-04	6.991101447e-12
-7.700000000e-03	2.678660844e-01	-6.011822452e-04	2.901883139e-12
-7.800000000e-03	2.678660899e-01	-5.984688394e-04	6.743634186e-12
-7.900000000e-03	2.678660953e-01	-5.957554335e-04	2.063940728e-11
-8.000000000e-03	2.678661005e-01	-5.930420274e-04	6.816622021e-12
-8.100000000e-03	2.678661057e-01	-5.903286211e-04	1.442785780e-11
-8.200000000e-03	2.678661109e-01	-5.876152147e-04	8.999064929e-12
-8.300000000e-03	2.678661159e-01	-5.849018081e-04	2.344125280e-11
-8.400000000e-03	2.678661209e-01	-5.821884014e-04	1.121206283e-11
-8.500000000e-03	2.678661257e-01	-5.794749945e-04	6.354941401e-12
-8.600000000e-03	2.678661305e-01	-5.767615875e-04	6.317758769e-12
-8.700000000e-03	2.678661352e-01	-5.740481804e-04	1.141711212e-11
-8.800000000e-03	2.678661398e-01	-5.713347731e-04	1.549857117e-11
-8.900000000e-03	2.678661444e-01	-5.686213657e-04	1.447913634e-11
-9.000000000e-03	2.678661489e-01	-5.659079581e-04	2.497487821e-12
-9.100000000e-03	2.678661532e-01	-5.631945505e-04	1.807636956e-11
-9.200000000e-03	2.678661575e-01	-5.604811427e-04	1.343817649e-11
-9.300000000e-03	2.678661617e-01	-5.577677348e-04	1.010510775e-11
-9.400000000e-03	2.678661659e-01	-5.550543268e-04	6.121047519e-11
-9.500000000e-03	2.678661699e-01	-5.523409187e-04	1.733530436e-11
-9.600000000e-03	2.678661739e-01	-5.496275105e-04	2.241744014e-11
-9.700000000e-03	2.678661778e-01	-5.469141022e-04	6.871285885e-11
-9.800000000e-03	2.678661816e-01	-5.442006938e-04	1.109594831e-10
-9.900000000e-03	2.678661853e-01	-5.414872853e-04	1.508916963e-11
-1.000000000e-02	2.678661889e-01	-5.387738767e-04	2.509721753e-11
-1.010000000e-02	2.678661925e-01	-5.360604681e-04	2.634964558e-12
-1.020000000e-02	2.678661959e-01	-5.333470593e-04	6.186653492e-11
-1.030000000e-02	2.678661993e-01	-5.306336505e-04	1.156090241e-11
-1.040000000e-02	2.678662026e-01	-5.279202417e-04	1.773982709e-11
-1.050000000e-02	2.678662059e-01	-5.252068328e-04	1.576582049e-11
-1.060000000e-02	2.678662090e-01	-5.224934238e-04	1.179245373e-10
-1.070000000e-02	2.678662121e-01	-5.197800147e-04	1.370963302e-11
-1.080000000e-02	2.678662150e-01	-5.170666056e-04	1.721126679e-11
-1.090000000e-02	2.678662179e-01	-5.143531965e-04	1.066844216e-11
-1.100000000e-02	2.678662208e-01	-5.116397873e-04	2.285778005e-11
-1.110000000e-02	2.678662235e-01	-5.089263781e-04	5.376011923e-12
-1.120000000e-02	2.678662261e-01	-5.062129689e-04	2.008195877e-12
-1.130000000e-02	2.678662287e-01	-5.034995596e-04	1.558886131e-11
-1.140000000e-02	2.678662312e-01	-5.007861503e-04	1.980527059e-11
-1.150000000e-02	2.678662336e-01	-4.980727409e-04	2.759921550e-11
-1.160000000e-02	2.678662359e-01	-4.953593316e-04	1.944563490e-11
-1.170000000e-02	2.678662381e-01	-4.926459222e-04	3.511316717e-11
-1.180000000e-02	2.678662403e-01	-4.899325129e-04	1.535906948e-11
-1.190000000e-02	2.678662424e-01	-4.872191035e-04	2.671926634e-11
-1.200000000e-02	2.678662443e-01	-4.845056941e-04	3.385391951e-11
-1.210000000e-02	2.678662462e-01	-4.817922848e-04	1.158471225e-11
-1.220000000e-02	2.678662481e-01	-4.790788754e-04	9.310118293e-12
-1.230000000e-02	2.678662498e-01	-4.763654660e-04	1.680449086e-11
-1.240000000e-02	2.678662515e-01	-4.736520567e-04	8.705804029e-12
-1.250000000e-02	2.678662530e-01	-4.709386474e-04	8.058106405e-12
-1.260000000e-02	2.678662545e-01	-4.682252381e-04	1.559784572e-11
-1.270000000e-02	2.678662559e-01	-4.655118288e-04	2.614275012e-12
-1.280000000e-02	2.678662573e-01	-4.627984196e-04	2.867617128e-11
-1.290000000e-02	2.678662585e-01	-4.600850104e-04	2.125863274e-11
-1.300000000e-02	2.678662597e-01	-4.573716013e-04	2.784287337e-12
-1.310000000e-02	2.678662608e-01	-4.546581922e-04	1.690610011e-11
-1.320000000e-02	2.678662618e-01	-4.519447831e-04	4.338436201e-12
-1.330000000e-02	2.678662627e-01	-4.492313741e-04	1.063840376e-11
-1.340000000e-02	2.678662635e-01	-4.465179652e-04	4.662295449e-11
-1.350000000e-02	2.678662643e-01	-4.438045563e-04	3.868293297e-12
-1.360000000e-02	2.678662649e-01	-4.410911475e-04	2.315645154e-11
-1.370000000e-02	2.678662655e-01	-4.383777387e-04	1.548659126e-11
-1.380000000e-02	2.678662660e-01	-4.356643301e-04	9.142325604e-12
-1.390000000e-02	2.678662664e-01	-4.329509215e-04	2.425194000e-11
-1.400000000e-02	2.678662668e-01	-4.302375130e-04	1.276168311e-11
-1.410000000e-02	2.678662670e-01	-4.275241045e-04	3.663995827e-12
-1.420000000e-02	2.678662672e-01	-4.248106962e-04	1.566258538e-11
-1.430000000e-02	2.678662673e-01	-4.220972880e-04	2.998336592e-11
-1.440000000e-02	2.678662673e-01	-4.193838798e-04	3.683350655e-11
-1.450000000e-02	2.678662672e-01	-4.166704718e-04	1.726561443e-11
-1.460000000e-02	2.678662671e-01	-4.139570639e-04	1.782269142e-11
-1.470000000e-02	2.678662669e-01	-4.112436561e-04	1.236032995e-11
-1.480000000e-02	2.678662665e-01	-4.085302484e-04	3.487016098e-12
-1.490000000e-02	2.678662661e-01	-4.058168408e-04	6.083703830e-11
-1.500000000e-02	2.678662656e-01	-4.031034333e-04	1.049671907e-11
-1.510000000e-02	2.678662651e-01	-4.003900260e-04	1.142558384e-11
-1.520000000e-02	2.678662644e-01	-3.976766188e-04	6.546983458e-11
-1.530000000e-02	2.678662637e-01	-3.949632118e-04	3.324399759e-11
-1.540000000e-02	2.678662629e-01	-3.922498049e-04	1.095416603e-11
-1.550000000e-02	2.678662620e-01	-3.895363981e-04	8.895281279e-12
-1.560000000e-02	2.678662610e-01	-3.868229915e-04	8.735539766e-11
-1.570000000e-02	2.678662599e-01	-3.841095850e-04	1.555079603e-11
-1.580000000e-02	2.678662588e-01	-3.813961787e-04	3.157989365e-12
-1.590000000e-02	2.678662576e-01	-3.786827726e-04	1.025116790e-11
-1.600000000e-02	2.678662563e-01	-3.759693666e-04	6.168513062e-11
-1.610000000e-02	2.678662549e-01	-3.732559608e-04	9.991181217e-12
-1.620000000e-02	2.678662534e-01	-3.705425552e-04	6.631614177e-12
-1.630000000e-02	2.678662518e-01	-3.678291497e-04	1.341225577e-11
-1.640000000e-02	2.678662502e-01	-3.651157445e-04	1.319595947e-11
-1.650000000e-02	2.678662485e-01	-3.624023394e-04	4.463849629e-12
-1.660000000e-02	2.678662467e-01	-3.596889345e-04	2.631233725e-11
-1.670000000e-02	2.678662448e-01	-3.569755298e-04	2.085211376e-11
-1.680000000e-02	2.678662428e-01	-3.542621253e-04	3.042789009e-11
-1.690000000e-02	2.678662408e-01	-3.515487210e-04	1.728860284e-11
-1.700000000e-02	2.678662386e-01	-3.488353169e-04	9.790747238e-12
-1.710000000e-02	2.678662364e-01	-3.461219130e-04	1.246400369e-11
-1.720000000e-02	2.678662341e-01	-3.434085094e-04	6.510795785e-12
-1.730000000e-02	2.678662317e-01	-3.406951060e-04	8.286936251e-12
-1.740000000e-02	2.678662293e-01	-3.379817027e-04	2.708936817e-11
-1.750000000e-02	2.678662267e-01	-3.352682998e-04	2.644135845e-12
-1.760000000e-02	2.678662241e-01	-3.325548970e-04	1.243463680e-11
-1.770000000e-02	2.678662214e-01	-3.298414945e-04	1.629847063e-11
-1.780000000e-02	2.678662186e-01	-3.271280922e-04	5.845192373e-11
-1.790000000e-02	2.678662157e-01	-3.244146902e-04	2.333447169e-11
-1.800000000e-02	2.678662128e-01	-3.217012884e-04	3.903265922e-11
-1.810000000e-02	2.678662097e-01	-3.189878869e-04	1.419949672e-11
-1.820000000e-02	2.678662066e-01	-3.162744857e-04	1.277272208e-11
-1.830000000e-02	2.678662034e-01	-3.135610847e-04	2.180877823e-11
-1.840000000e-02	2.678662001e-01	-3.108476839e-04	1.165159661e-11
-1.850000000e-02	2.678661967e-01	-3.081342835e-04	2.303734959e-11
-1.860000000e-02	2.678661933e-01	-3.054208833e-04	3.225843806e-11
-1.870000000e-02	2.678661898e-01	-3.027074834e-04	1.056737498e-11
-1.880000000e-02	2.678661861e-01	-2.999940837e-04	1.334579971e-11
-1.890000000e-02	2.678661824e-01	-2.972806844e-04	1.936991189e-11
-1.900000000e-02	2.678661787e-01	-2.945672854e-04	1.313506676e-11
-1.910000000e-02	2.678661748e-01	-2.918538866e-04	6.949804570e-11
-1.920000000e-02	2.678661708e-01	-2.891404882e-04	2.175734928e-11
-1.930000000e-02	2.678661668e-01	-2.864270900e-04	4.544927678e-11
-1.940000000e-02	2.678661627e-01	-2.837136922e-04	4.887139168e-12
-1.950000000e-02	2.678661585e-01	-2.810002946e-04	8.413232766e-12
-1.960000000e-02	2.678661542e-01	-2.782868974e-04	1.861125294e-12
-1.970000000e-02	2.678661499e-01	-2.755735005e-04	1.778159533e-11
-1.980000000e-02	2.678661454e-01	-2.728601040e-04	5.203066829e-12
-1.990000000e-02	2.678661409e-01	-2.701467077e-04	4.565561049e-12
-2.000000000e-02	2.678661363e-01	-2.674333118e-04	1.651189354e-11
-2.010000000e-02	2.678661316e-01	-2.647199163e-04	4.740454480e-12
-2.020000000e-02	2.678661268e-01	-2.620065210e-04	3.456544712e-11
-2.030000000e-02	2.678661220e-01	-2.592931262e-04	2.288714761e-11
-2.040000000e-02	2.678661171e-01	-2.565797316e-04	3.802318955e-11
-2.050000000e-02	2.678661120e-01	-2.538663375e-04	9.347573918e-12
-2.060000000e-02	2.678661069e-01	-2.511529436e-04	1.064284640e-11
-2.070000000e-02	2.678661017e-01	-2.484395502e-04	9.745971545e-12
-2.080000000e-02	2.678660965e-01	-2.457261571e-04	8.028399845e-12
-2.090000000e-02	2.678660911e-01	-2.430127644e-04	1.372610773e-11
-2.100000000e-02	2.678660857e-01	-2.402993720e-04	2.327126449e-11
-2.110000000e-02	2.678660802e-01	-2.375859801e-04	3.467878701e-12
-2.120000000e-02	2.678660746e-01	-2.348725885e-04	3.801321196e-11
-2.130000000e-02	2.678660689e-01	-2.321591973e-04	6.703106645e-12
-2.140000000e-02	2.678660632e-01	-2.294458065e-04	1.514620888e-11
-2.150000000e-02	2.678660573e-01	-2.267324161e-04	9.024666745e-12
-2.160000000e-02	2.678660514e-01	-2.240190261e-04	8.287714620e-12
-2.170000000e-02	2.678660454e-01	-2.213056365e-04	7.296629547e-12
-2.180000000e-02	2.678660393e-01	-2.185922473e-04	3.512675232e-11
-2.190000000e-02	2.678660331e-01	-2.158788585e-04	8.527898562e-12
-2.200000000e-02	2.678660269e-01	-2.131654702e-04	2.184536503e-11
-2.210000000e-02	2.678660205e-01	-2.104520822e-04	9.216665993e-12
-2.220000000e-02	2.678660141e-01	-2.077386947e-04	3.181048568e-11
-2.230000000e-02	2.678660076e-01	-2.050253076e-04	1.217219864e-11
-2.240000000e-02	2.678660010e-01	-2.023119209e-04	2.141853071e-11
-2.250000000e-02	2.678659944e-01	-1.995985347e-04	6.622346896e-11
-2.260000000e-02	2.678659876e-01	-1.968851489e-04	1.881976708e-11
-2.270000000e-02	2.678659808e-01	-1.941717636e-04	6.955430953e-12
-2.280000000e-02	2.678659739e-01	-1.914583787e-04	5.613238674e-11
-2.290000000e-02	2.678659669e-01	-1.887449943e-04	4.694219973e-12
-2.300000000e-02	2.678659598e-01	-1.860316103e-04	5.948815995e-12
-2.310000000e-02	2.678659526e-01	-1.833182268e-04	3.579776372e-11
-2.320000000e-02	2.678659454e-01	-1.806048438e-04	1.219791309e-11
-2.330000000e-02	2.678659381e-01	-1.778914612e-04	1.521164489e-11
-2.340000000e-02	2.678659306e-01	-1.751780791e-04	1.044252628e-11
-2.350000000e-02	2.678659232e-01	-1.724646975e-04	1.177361819e-11
-2.360000000e-02	2.678659156e-01	-1.697513164e-04	5.223138185e-11
-2.370000000e-02	2.678659079e-01	-1.670379357e-04	3.989761708e-11
-2.380000000e-02	2.678659002e-01	-1.643245556e-04	9.959567388e-12
-2.390000000e-02	2.678658924e-01	-1.616111759e-04	2.029191347e-11
-2.400000000e-02	2.678658845e-01	-1.588977968e-04	1.864422053e-11
-2.410000000e-02	2.678658765e-01	-1.561844181e-04	1.942448465e-11
-2.420000000e-02	2.678658684e-01	-1.534710400e-04	1.643908971e-11
-2.430000000e-02	2.678658603e-01	-1.507576623e-04	3.715665998e-11
-2.440000000e-02	2.678658520e-01	-1.480442852e-04	1.086081033e-11
-2.450000000e-02	2.678658437e-01	-1.453309086e-04	1.627190341e-11
-2.460000000e-02	2.678658353e-01	-1.426175326e-04	2.319471778e-11
-2.470000000e-02	2.678658268e-01	-1.399041570e-04	2.226700329e-11
-2.480000000e-02	2.678658183e-01	-1.371907820e-04	4.305956085e-12
-2.490000000e-02	2.678658096e-01	-1.344774075e-04	2.454554184e-11
-2.500000000e-02	2.678658009e-01	-1.317640336e-04	4.712730031e-12
-2.510000000e-02	2.678657921e-01	-1.290506602e-04	1.168723556e-11
-2.520000000e-02	2.678657832e-01	-1.263372874e-04	1.355668109e-11
-2.530000000e-02	2.678657742e-01	-1.236239151e-04	1.743782442e-12
-2.540000000e-02	2.678657652e-01	-1.209105434e-04	3.489578000e-11
-2.550000000e-02	2.678657560e-01	-1.181971723e-04	2.546891761e-11
-2.560000000e-02	2.678657468e-01	-1.154838017e-04	1.614105863e-11
-2.570000000e-02	2.678657375e-01	-1.127704316e-04	7.678954848e-11
-2.580000000e-02	2.678657281e-01	-1.100570622e-04	1.815292580e-11
-2.590000000e-02	2.678657186e-01	-1.073436933e-04	2.851964350e-11
-2.600000000e-02	2.678657091e-01	-1.046303251e-04	1.618989398e-11
-2.610000000e-02	2.678656994e-01	-1.019169574e-04	1.281293843e-11
-2.620000000e-02	2.678656897e-01	-9.920359026e-05	7.922904088e-12
-2.630000000e-02	2.678656799e-01	-9.649022376e-05	2.781460841e-11
-2.640000000e-02	2.678656701e-01	-9.377685785e-05	1.059418882e-11
-2.650000000e-02	2.678656601e-01	-9.106349255e-05	1.340292265e-11
-2.660000000e-02	2.678656500e-01	-8.835012786e-05	1.434869743e-11
-2.670000000e-02	2.678656399e-01	-8.563676378e-05	3.687578300e-12
-2.680000000e-02	2.678656297e-01	-8.292340031e-05	1.025835701e-11
-2.690000000e-02	2.678656194e-01	-8.021003747e-05	5.317405975e-11
-2.700000000e-02	2.678656090e-01	-7.749667526e-05	4.991846806e-11
-2.710000000e-02	2.678655986e-01	-7.478331367e-05	1.443876869e-11
-2.720000000e-02	2.678655880e-01	-7.206995271e-05	2.136085876e-11
-2.730000000e-02	2.678655774e-01	-6.935659240e-05	7.802980777e-11
-2.740000000e-02	2.678655667e-01	-6.664323272e-05	4.018824265e-11
-2.750000000e-02	2.678655559e-01	-6.392987369e-05	2.261075494e-12
-2.760000000e-02	2.678655450e-01	-6.121651531e-05	2.012431259e-11
-2.770000000e-02	2.678655341e-01	-5.850315759e-05	2.653791841e-11
-2.780000000e-02	2.678655231e-01	-5.578980052e-05	1.627562354e-11
-2.790000000e-02	2.678655119e-01	-5.307644412e-05	1.062946672e-11
-2.800000000e-02	2.678655007e-01	-5.036308839e-05	9.639672384e-12
-2.810000000e-02	2.678654895e-01	-4.764973332e-05	5.892200232e-12
-2.820000000e-02	2.678654781e-01	-4.493637893e-05	1.316553535e-11
-2.830000000e-02	2.678654666e-01	-4.222302522e-05	5.617095682e-11
-2.840000000e-02	2.678654551e-01	-3.950967219e-05	1.413093855e-11
-2.850000000e-02	2.678654435e-01	-3.679631985e-05	2.466809903e-11
-2.860000000e-02	2.678654318e-01	-3.408296821e-05	1.166887579e-11
-2.870000000e-02	2.678654200e-01	-3.136961725e-05	1.539149908e-11
-2.880000000e-02	2.678654082e-01	-2.865626700e-05	9.298985805e-12
-2.890000000e-02	2.678653962e-01	-2.594291746e-05	2.032225625e-11
-2.900000000e-02	2.678653842e-01	-2.322956862e-05	3.731753125e-11
-2.910000000e-02	2.678653721e-01	-2.051622049e-05	1.071896947e-11
-2.920000000e-02	2.678653599e-01	-1.780287308e-05	1.520225139e-11
-2.930000000e-02	2.678653476e-01	-1.508952640e-05	9.280506742e-12
-2.940000000e-02	2.678653353e-01	-1.237618043e-05	2.614537272e-11
-2.950000000e-02	2.678653228e-01	-9.662835202e-06	3.614472614e-11
-2.960000000e-02	2.678653103e-01	-6.949490702e-06	1.175090729e-11
-2.970000000e-02	2.678652977e-01	-4.236146941e-06	2.333045837e-11
-2.980000000e-02	2.678652850e-01	-1.522803921e-06	7.862032032e-12
-2.990000000e-02	2.678652723e-01	1.190538352e-06	2.779385709e-12
-3.000000000e-02	2.678652594e-01	3.903879875e-06	2.421387099e-12
