# Im(epsi1)     Re(omega/c)      Im(omega/c)      Eq(det).Opt det CON kz, R=0.5 \mum, mu_c=0.3, Re(epsi1)=3.90solve_det_conkz_vs_kz.py
0.000000000e+00	2.678639718e-01	-8.101073328e-04	7.238720517e-12
-1.000000000e-04	2.678639836e-01	-8.073939642e-04	6.577407976e-12
-2.000000000e-04	2.678639953e-01	-8.046805952e-04	3.351504664e-12
-3.000000000e-04	2.678640070e-01	-8.019672257e-04	2.257743009e-11
-4.000000000e-04	2.678640185e-01	-7.992538557e-04	1.937581444e-12
-5.000000000e-04	2.678640300e-01	-7.965404852e-04	7.705360952e-12
-6.000000000e-04	2.678640414e-01	-7.938271143e-04	1.500671409e-11
-7.000000000e-04	2.678640527e-01	-7.911137428e-04	1.954019746e-11
-8.000000000e-04	2.678640639e-01	-7.884003709e-04	4.599029321e-11
-9.000000000e-04	2.678640750e-01	-7.856869986e-04	2.907063165e-11
-1.000000000e-03	2.678640861e-01	-7.829736258e-04	7.055137037e-12
-1.100000000e-03	2.678640970e-01	-7.802602525e-04	2.121565107e-11
-1.200000000e-03	2.678641079e-01	-7.775468788e-04	2.551683072e-11
-1.300000000e-03	2.678641187e-01	-7.748335046e-04	6.560840742e-11
-1.400000000e-03	2.678641295e-01	-7.721201300e-04	1.679715095e-10
-1.500000000e-03	2.678641401e-01	-7.694067549e-04	3.394591627e-12
-1.600000000e-03	2.678641507e-01	-7.666933795e-04	1.614881783e-11
-1.700000000e-03	2.678641611e-01	-7.639800035e-04	5.326620374e-12
-1.800000000e-03	2.678641715e-01	-7.612666272e-04	1.227064992e-11
-1.900000000e-03	2.678641819e-01	-7.585532504e-04	1.961590497e-11
-2.000000000e-03	2.678641921e-01	-7.558398733e-04	1.176237037e-11
-2.100000000e-03	2.678642022e-01	-7.531264957e-04	1.593493220e-11
-2.200000000e-03	2.678642123e-01	-7.504131177e-04	1.152387997e-11
-2.300000000e-03	2.678642223e-01	-7.476997393e-04	2.155850100e-11
-2.400000000e-03	2.678642322e-01	-7.449863604e-04	2.775600745e-11
-2.500000000e-03	2.678642420e-01	-7.422729812e-04	1.352110458e-11
-2.600000000e-03	2.678642517e-01	-7.395596016e-04	2.731716951e-11
-2.700000000e-03	2.678642614e-01	-7.368462216e-04	4.281954326e-11
-2.800000000e-03	2.678642710e-01	-7.341328413e-04	1.638191979e-11
-2.900000000e-03	2.678642804e-01	-7.314194605e-04	2.923824463e-11
-3.000000000e-03	2.678642899e-01	-7.287060794e-04	2.696070029e-11
-3.100000000e-03	2.678642992e-01	-7.259926979e-04	7.668489185e-12
-3.200000000e-03	2.678643084e-01	-7.232793160e-04	1.554532984e-11
-3.300000000e-03	2.678643176e-01	-7.205659338e-04	7.435166359e-12
-3.400000000e-03	2.678643267e-01	-7.178525512e-04	3.158524490e-11
-3.500000000e-03	2.678643356e-01	-7.151391683e-04	5.542418194e-12
-3.600000000e-03	2.678643446e-01	-7.124257850e-04	7.085681828e-12
-3.700000000e-03	2.678643534e-01	-7.097124013e-04	1.092958545e-11
-3.800000000e-03	2.678643621e-01	-7.069990173e-04	1.025537864e-11
-3.900000000e-03	2.678643708e-01	-7.042856330e-04	2.168687350e-11
-4.000000000e-03	2.678643794e-01	-7.015722483e-04	9.275571781e-12
-4.100000000e-03	2.678643879e-01	-6.988588633e-04	1.619003922e-11
-4.200000000e-03	2.678643963e-01	-6.961454780e-04	1.662663941e-11
-4.300000000e-03	2.678644046e-01	-6.934320924e-04	6.501063485e-12
-4.400000000e-03	2.678644129e-01	-6.907187064e-04	1.126184444e-11
-4.500000000e-03	2.678644211e-01	-6.880053202e-04	3.042359824e-11
-4.600000000e-03	2.678644291e-01	-6.852919336e-04	1.063526707e-11
-4.700000000e-03	2.678644371e-01	-6.825785467e-04	4.787642644e-11
-4.800000000e-03	2.678644451e-01	-6.798651595e-04	5.837625431e-13
-4.900000000e-03	2.678644529e-01	-6.771517720e-04	3.908625672e-11
-5.000000000e-03	2.678644607e-01	-6.744383843e-04	1.989805161e-11
-5.100000000e-03	2.678644683e-01	-6.717249962e-04	5.485599684e-11
-5.200000000e-03	2.678644759e-01	-6.690116079e-04	1.906181189e-11
-5.300000000e-03	2.678644834e-01	-6.662982192e-04	9.326939934e-12
-5.400000000e-03	2.678644909e-01	-6.635848303e-04	4.005063103e-12
-5.500000000e-03	2.678644982e-01	-6.608714412e-04	1.500971654e-11
-5.600000000e-03	2.678645055e-01	-6.581580517e-04	3.213377330e-11
-5.700000000e-03	2.678645127e-01	-6.554446620e-04	9.232002504e-12
-5.800000000e-03	2.678645198e-01	-6.527312720e-04	1.987492836e-10
-5.900000000e-03	2.678645268e-01	-6.500178818e-04	7.056054490e-12
-6.000000000e-03	2.678645337e-01	-6.473044914e-04	3.013422648e-11
-6.100000000e-03	2.678645406e-01	-6.445911006e-04	1.600252363e-11
-6.200000000e-03	2.678645473e-01	-6.418777097e-04	5.129263156e-12
-6.300000000e-03	2.678645540e-01	-6.391643185e-04	2.890262300e-11
-6.400000000e-03	2.678645606e-01	-6.364509271e-04	1.317329553e-11
-6.500000000e-03	2.678645671e-01	-6.337375354e-04	1.857072421e-11
-6.600000000e-03	2.678645736e-01	-6.310241435e-04	1.950902492e-12
-6.700000000e-03	2.678645799e-01	-6.283107514e-04	2.565744346e-11
-6.800000000e-03	2.678645862e-01	-6.255973591e-04	4.970973070e-13
-6.900000000e-03	2.678645924e-01	-6.228839665e-04	2.123576455e-11
-7.000000000e-03	2.678645985e-01	-6.201705738e-04	1.521426388e-11
-7.100000000e-03	2.678646045e-01	-6.174571808e-04	1.103896208e-11
-7.200000000e-03	2.678646105e-01	-6.147437877e-04	2.459000940e-11
-7.300000000e-03	2.678646163e-01	-6.120303943e-04	1.022136905e-10
-7.400000000e-03	2.678646221e-01	-6.093170008e-04	2.557778104e-11
-7.500000000e-03	2.678646278e-01	-6.066036070e-04	1.247733449e-11
-7.600000000e-03	2.678646334e-01	-6.038902131e-04	1.021700085e-11
-7.700000000e-03	2.678646390e-01	-6.011768190e-04	7.006954094e-11
-7.800000000e-03	2.678646444e-01	-5.984634248e-04	9.117700827e-12
-7.900000000e-03	2.678646498e-01	-5.957500303e-04	1.150299858e-11
-8.000000000e-03	2.678646551e-01	-5.930366357e-04	5.622132809e-13
-8.100000000e-03	2.678646603e-01	-5.903232409e-04	1.015205550e-11
-8.200000000e-03	2.678646654e-01	-5.876098460e-04	2.004577215e-11
-8.300000000e-03	2.678646704e-01	-5.848964509e-04	1.381366597e-11
-8.400000000e-03	2.678646754e-01	-5.821830557e-04	9.514709224e-12
-8.500000000e-03	2.678646802e-01	-5.794696603e-04	2.973147308e-11
-8.600000000e-03	2.678646850e-01	-5.767562647e-04	1.344149612e-11
-8.700000000e-03	2.678646897e-01	-5.740428691e-04	1.601324994e-11
-8.800000000e-03	2.678646944e-01	-5.713294733e-04	7.164582772e-12
-8.900000000e-03	2.678646989e-01	-5.686160773e-04	1.580013137e-11
-9.000000000e-03	2.678647034e-01	-5.659026813e-04	8.266063233e-12
-9.100000000e-03	2.678647078e-01	-5.631892851e-04	3.447971387e-12
-9.200000000e-03	2.678647120e-01	-5.604758888e-04	1.116010262e-11
-9.300000000e-03	2.678647163e-01	-5.577624924e-04	7.845930265e-12
-9.400000000e-03	2.678647204e-01	-5.550490959e-04	2.840933108e-11
-9.500000000e-03	2.678647244e-01	-5.523356993e-04	1.591804900e-12
-9.600000000e-03	2.678647284e-01	-5.496223025e-04	6.451046225e-12
-9.700000000e-03	2.678647323e-01	-5.469089057e-04	4.875213320e-11
-9.800000000e-03	2.678647361e-01	-5.441955088e-04	4.977705890e-12
-9.900000000e-03	2.678647398e-01	-5.414821118e-04	1.232104306e-11
-1.000000000e-02	2.678647434e-01	-5.387687147e-04	2.574766752e-11
-1.010000000e-02	2.678647470e-01	-5.360553176e-04	1.786495487e-11
-1.020000000e-02	2.678647505e-01	-5.333419203e-04	1.662696073e-11
-1.030000000e-02	2.678647539e-01	-5.306285230e-04	2.048987427e-11
-1.040000000e-02	2.678647572e-01	-5.279151256e-04	3.838294452e-12
-1.050000000e-02	2.678647604e-01	-5.252017282e-04	7.416228577e-12
-1.060000000e-02	2.678647635e-01	-5.224883307e-04	5.305508346e-11
-1.070000000e-02	2.678647666e-01	-5.197749331e-04	1.548750515e-11
-1.080000000e-02	2.678647696e-01	-5.170615355e-04	3.204092592e-11
-1.090000000e-02	2.678647725e-01	-5.143481379e-04	1.137428035e-12
-1.100000000e-02	2.678647753e-01	-5.116347402e-04	1.713093361e-11
-1.110000000e-02	2.678647780e-01	-5.089213425e-04	1.788416256e-11
-1.120000000e-02	2.678647807e-01	-5.062079447e-04	5.125506326e-11
-1.130000000e-02	2.678647832e-01	-5.034945469e-04	4.648220954e-12
-1.140000000e-02	2.678647857e-01	-5.007811491e-04	9.401625968e-12
-1.150000000e-02	2.678647881e-01	-4.980677512e-04	1.697550249e-11
-1.160000000e-02	2.678647904e-01	-4.953543534e-04	3.218655666e-11
-1.170000000e-02	2.678647926e-01	-4.926409555e-04	1.587914338e-11
-1.180000000e-02	2.678647948e-01	-4.899275576e-04	1.413502144e-11
-1.190000000e-02	2.678647969e-01	-4.872141597e-04	5.519117685e-13
-1.200000000e-02	2.678647989e-01	-4.845007618e-04	1.929179873e-11
-1.210000000e-02	2.678648008e-01	-4.817873639e-04	2.479542414e-11
-1.220000000e-02	2.678648026e-01	-4.790739661e-04	9.779797113e-12
-1.230000000e-02	2.678648043e-01	-4.763605682e-04	1.133302678e-11
-1.240000000e-02	2.678648060e-01	-4.736471704e-04	4.648473296e-12
-1.250000000e-02	2.678648076e-01	-4.709337725e-04	6.681634176e-12
-1.260000000e-02	2.678648091e-01	-4.682203747e-04	1.206046653e-11
-1.270000000e-02	2.678648105e-01	-4.655069770e-04	2.894553931e-11
-1.280000000e-02	2.678648118e-01	-4.627935792e-04	1.825693849e-11
-1.290000000e-02	2.678648130e-01	-4.600801815e-04	6.336016089e-12
-1.300000000e-02	2.678648142e-01	-4.573667838e-04	2.597109161e-11
-1.310000000e-02	2.678648153e-01	-4.546533862e-04	5.650008178e-12
-1.320000000e-02	2.678648163e-01	-4.519399886e-04	5.623467955e-12
-1.330000000e-02	2.678648172e-01	-4.492265911e-04	6.289525886e-12
-1.340000000e-02	2.678648180e-01	-4.465131937e-04	6.061936184e-12
-1.350000000e-02	2.678648188e-01	-4.437997963e-04	1.403997422e-11
-1.360000000e-02	2.678648195e-01	-4.410863989e-04	2.216612713e-11
-1.370000000e-02	2.678648200e-01	-4.383730017e-04	2.180046909e-11
-1.380000000e-02	2.678648205e-01	-4.356596045e-04	3.015340983e-11
-1.390000000e-02	2.678648210e-01	-4.329462074e-04	1.928561863e-11
-1.400000000e-02	2.678648213e-01	-4.302328104e-04	3.376293520e-11
-1.410000000e-02	2.678648216e-01	-4.275194134e-04	2.639538138e-11
-1.420000000e-02	2.678648217e-01	-4.248060166e-04	1.642693265e-11
-1.430000000e-02	2.678648218e-01	-4.220926198e-04	2.990685154e-12
-1.440000000e-02	2.678648218e-01	-4.193792232e-04	1.978248543e-11
-1.450000000e-02	2.678648218e-01	-4.166658266e-04	1.380853127e-11
-1.460000000e-02	2.678648216e-01	-4.139524302e-04	1.567982643e-11
-1.470000000e-02	2.678648214e-01	-4.112390339e-04	2.837455284e-11
-1.480000000e-02	2.678648210e-01	-4.085256377e-04	1.096403403e-11
-1.490000000e-02	2.678648206e-01	-4.058122416e-04	1.101999399e-11
-1.500000000e-02	2.678648202e-01	-4.030988456e-04	1.982453775e-11
-1.510000000e-02	2.678648196e-01	-4.003854498e-04	7.042439582e-12
-1.520000000e-02	2.678648189e-01	-3.976720541e-04	1.290920084e-10
-1.530000000e-02	2.678648182e-01	-3.949586585e-04	1.261159433e-11
-1.540000000e-02	2.678648174e-01	-3.922452631e-04	8.270020625e-12
-1.550000000e-02	2.678648165e-01	-3.895318678e-04	1.441189552e-12
-1.560000000e-02	2.678648155e-01	-3.868184727e-04	2.424965094e-11
-1.570000000e-02	2.678648145e-01	-3.841050777e-04	1.437886151e-11
-1.580000000e-02	2.678648133e-01	-3.813916829e-04	5.656816417e-11
-1.590000000e-02	2.678648121e-01	-3.786782882e-04	4.273601725e-11
-1.600000000e-02	2.678648108e-01	-3.759648937e-04	1.470317805e-11
-1.610000000e-02	2.678648094e-01	-3.732514994e-04	1.624776225e-11
-1.620000000e-02	2.678648079e-01	-3.705381053e-04	1.137521745e-11
-1.630000000e-02	2.678648064e-01	-3.678247113e-04	2.531218042e-11
-1.640000000e-02	2.678648047e-01	-3.651113175e-04	1.543920958e-11
-1.650000000e-02	2.678648030e-01	-3.623979239e-04	1.855453811e-11
-1.660000000e-02	2.678648012e-01	-3.596845305e-04	1.441576653e-11
-1.670000000e-02	2.678647993e-01	-3.569711373e-04	1.156974555e-11
-1.680000000e-02	2.678647973e-01	-3.542577443e-04	5.750058681e-12
-1.690000000e-02	2.678647953e-01	-3.515443515e-04	2.741529031e-11
-1.700000000e-02	2.678647931e-01	-3.488309589e-04	2.262126327e-11
-1.710000000e-02	2.678647909e-01	-3.461175665e-04	1.340375467e-11
-1.720000000e-02	2.678647886e-01	-3.434041743e-04	2.942008880e-12
-1.730000000e-02	2.678647863e-01	-3.406907824e-04	3.361957116e-11
-1.740000000e-02	2.678647838e-01	-3.379773907e-04	5.447092327e-12
-1.750000000e-02	2.678647812e-01	-3.352639992e-04	5.797887336e-12
-1.760000000e-02	2.678647786e-01	-3.325506079e-04	1.735350075e-12
-1.770000000e-02	2.678647759e-01	-3.298372169e-04	1.684766148e-11
-1.780000000e-02	2.678647731e-01	-3.271238261e-04	3.177981414e-11
-1.790000000e-02	2.678647702e-01	-3.244104356e-04	5.609496451e-12
-1.800000000e-02	2.678647673e-01	-3.216970453e-04	5.624903559e-11
-1.810000000e-02	2.678647642e-01	-3.189836552e-04	8.262065906e-12
-1.820000000e-02	2.678647611e-01	-3.162702655e-04	2.807859531e-11
-1.830000000e-02	2.678647579e-01	-3.135568759e-04	8.357105144e-12
-1.840000000e-02	2.678647546e-01	-3.108434867e-04	5.053701458e-12
-1.850000000e-02	2.678647513e-01	-3.081300977e-04	3.641435384e-12
-1.860000000e-02	2.678647478e-01	-3.054167090e-04	3.307915267e-11
-1.870000000e-02	2.678647443e-01	-3.027033206e-04	1.125571393e-11
-1.880000000e-02	2.678647406e-01	-2.999899324e-04	9.033593361e-12
-1.890000000e-02	2.678647369e-01	-2.972765446e-04	2.020589796e-11
-1.900000000e-02	2.678647332e-01	-2.945631570e-04	4.476637829e-11
-1.910000000e-02	2.678647293e-01	-2.918497698e-04	1.658395384e-11
-1.920000000e-02	2.678647254e-01	-2.891363828e-04	9.095945199e-12
-1.930000000e-02	2.678647213e-01	-2.864229961e-04	1.928784146e-11
-1.940000000e-02	2.678647172e-01	-2.837096098e-04	3.531657593e-11
-1.950000000e-02	2.678647130e-01	-2.809962237e-04	1.372848015e-11
-1.960000000e-02	2.678647087e-01	-2.782828380e-04	1.046160693e-11
-1.970000000e-02	2.678647044e-01	-2.755694526e-04	2.781766135e-11
-1.980000000e-02	2.678646999e-01	-2.728560675e-04	6.988508116e-12
-1.990000000e-02	2.678646954e-01	-2.701426828e-04	1.081639688e-11
-2.000000000e-02	2.678646908e-01	-2.674292984e-04	4.771157914e-11
-2.010000000e-02	2.678646861e-01	-2.647159143e-04	1.767399501e-11
-2.020000000e-02	2.678646814e-01	-2.620025305e-04	1.908725199e-11
-2.030000000e-02	2.678646765e-01	-2.592891471e-04	7.482767425e-12
-2.040000000e-02	2.678646716e-01	-2.565757641e-04	3.283473687e-11
-2.050000000e-02	2.678646665e-01	-2.538623814e-04	9.812630473e-13
-2.060000000e-02	2.678646614e-01	-2.511489991e-04	1.807103078e-11
-2.070000000e-02	2.678646563e-01	-2.484356171e-04	2.558561117e-11
-2.080000000e-02	2.678646510e-01	-2.457222355e-04	9.008418336e-12
-2.090000000e-02	2.678646456e-01	-2.430088543e-04	1.687010212e-11
-2.100000000e-02	2.678646402e-01	-2.402954734e-04	1.400680533e-11
-2.110000000e-02	2.678646347e-01	-2.375820929e-04	4.673876715e-12
-2.120000000e-02	2.678646291e-01	-2.348687128e-04	2.089034730e-11
-2.130000000e-02	2.678646234e-01	-2.321553331e-04	7.154565774e-12
-2.140000000e-02	2.678646177e-01	-2.294419538e-04	2.529556587e-11
-2.150000000e-02	2.678646118e-01	-2.267285749e-04	9.343858944e-12
-2.160000000e-02	2.678646059e-01	-2.240151964e-04	2.217786966e-11
-2.170000000e-02	2.678645999e-01	-2.213018183e-04	1.554295761e-11
-2.180000000e-02	2.678645938e-01	-2.185884406e-04	1.709566549e-11
-2.190000000e-02	2.678645876e-01	-2.158750633e-04	2.934659923e-11
-2.200000000e-02	2.678645814e-01	-2.131616864e-04	1.665157248e-12
-2.210000000e-02	2.678645750e-01	-2.104483099e-04	1.254555498e-11
-2.220000000e-02	2.678645686e-01	-2.077349339e-04	1.266287860e-11
-2.230000000e-02	2.678645621e-01	-2.050215583e-04	1.102992873e-11
-2.240000000e-02	2.678645555e-01	-2.023081831e-04	1.439660127e-11
-2.250000000e-02	2.678645489e-01	-1.995948084e-04	1.346534674e-11
-2.260000000e-02	2.678645421e-01	-1.968814341e-04	3.152101607e-11
-2.270000000e-02	2.678645353e-01	-1.941680602e-04	3.705051548e-12
-2.280000000e-02	2.678645284e-01	-1.914546868e-04	1.834783070e-11
-2.290000000e-02	2.678645214e-01	-1.887413139e-04	2.401836699e-11
-2.300000000e-02	2.678645143e-01	-1.860279414e-04	1.220399590e-11
-2.310000000e-02	2.678645071e-01	-1.833145694e-04	7.015229813e-12
-2.320000000e-02	2.678644999e-01	-1.806011978e-04	2.300054811e-11
-2.330000000e-02	2.678644926e-01	-1.778878268e-04	1.486153643e-11
-2.340000000e-02	2.678644852e-01	-1.751744561e-04	1.590640987e-11
-2.350000000e-02	2.678644777e-01	-1.724610860e-04	1.413055836e-11
-2.360000000e-02	2.678644701e-01	-1.697477164e-04	1.072077024e-11
-2.370000000e-02	2.678644624e-01	-1.670343472e-04	2.503674162e-12
-2.380000000e-02	2.678644547e-01	-1.643209785e-04	1.851979969e-11
-2.390000000e-02	2.678644469e-01	-1.616076104e-04	6.649606317e-12
-2.400000000e-02	2.678644390e-01	-1.588942427e-04	1.077350610e-11
-2.410000000e-02	2.678644310e-01	-1.561808755e-04	2.549570215e-11
-2.420000000e-02	2.678644229e-01	-1.534675089e-04	1.370221119e-11
-2.430000000e-02	2.678644148e-01	-1.507541427e-04	2.608874247e-11
-2.440000000e-02	2.678644065e-01	-1.480407771e-04	1.588217629e-11
-2.450000000e-02	2.678643982e-01	-1.453274120e-04	2.600984069e-11
-2.460000000e-02	2.678643898e-01	-1.426140474e-04	6.309527688e-12
-2.470000000e-02	2.678643813e-01	-1.399006834e-04	1.219816657e-11
-2.480000000e-02	2.678643728e-01	-1.371873198e-04	8.404307217e-12
-2.490000000e-02	2.678643641e-01	-1.344739568e-04	1.674324369e-11
-2.500000000e-02	2.678643554e-01	-1.317605944e-04	2.000584505e-11
-2.510000000e-02	2.678643466e-01	-1.290472325e-04	4.634982381e-11
-2.520000000e-02	2.678643377e-01	-1.263338712e-04	1.629078067e-11
-2.530000000e-02	2.678643287e-01	-1.236205104e-04	3.629044471e-11
-2.540000000e-02	2.678643197e-01	-1.209071501e-04	9.453749531e-12
-2.550000000e-02	2.678643105e-01	-1.181937905e-04	1.315410177e-11
-2.560000000e-02	2.678643013e-01	-1.154804314e-04	1.638060498e-11
-2.570000000e-02	2.678642920e-01	-1.127670728e-04	2.441081245e-11
-2.580000000e-02	2.678642826e-01	-1.100537149e-04	5.896050430e-11
-2.590000000e-02	2.678642731e-01	-1.073403575e-04	1.903071530e-11
-2.600000000e-02	2.678642636e-01	-1.046270007e-04	4.078923426e-12
-2.610000000e-02	2.678642540e-01	-1.019136445e-04	6.367327334e-12
-2.620000000e-02	2.678642442e-01	-9.920028888e-05	3.070867842e-11
-2.630000000e-02	2.678642344e-01	-9.648693386e-05	1.424378378e-11
-2.640000000e-02	2.678642246e-01	-9.377357944e-05	7.564565776e-12
-2.650000000e-02	2.678642146e-01	-9.106022562e-05	1.833029761e-11
-2.660000000e-02	2.678642045e-01	-8.834687241e-05	1.787099120e-11
-2.670000000e-02	2.678641944e-01	-8.563351982e-05	3.671710942e-11
-2.680000000e-02	2.678641842e-01	-8.292016784e-05	1.411198839e-11
-2.690000000e-02	2.678641739e-01	-8.020681648e-05	1.113360465e-11
-2.700000000e-02	2.678641635e-01	-7.749346575e-05	9.013880456e-12
-2.710000000e-02	2.678641531e-01	-7.478011565e-05	4.734433726e-12
-2.720000000e-02	2.678641425e-01	-7.206676618e-05	9.146909473e-12
-2.730000000e-02	2.678641319e-01	-6.935341735e-05	1.221748748e-11
-2.740000000e-02	2.678641212e-01	-6.664006916e-05	5.493393002e-12
-2.750000000e-02	2.678641104e-01	-6.392672162e-05	1.936217256e-11
-2.760000000e-02	2.678640996e-01	-6.121337472e-05	3.418031454e-11
-2.770000000e-02	2.678640886e-01	-5.850002849e-05	4.186389517e-12
-2.780000000e-02	2.678640776e-01	-5.578668291e-05	1.532059325e-11
-2.790000000e-02	2.678640664e-01	-5.307333799e-05	2.653531571e-11
-2.800000000e-02	2.678640552e-01	-5.035999374e-05	4.102895235e-11
-2.810000000e-02	2.678640440e-01	-4.764665016e-05	2.924052583e-12
-2.820000000e-02	2.678640326e-01	-4.493330725e-05	1.178505623e-11
-2.830000000e-02	2.678640212e-01	-4.221996503e-05	4.507381469e-12
-2.840000000e-02	2.678640096e-01	-3.950662349e-05	1.623032421e-11
-2.850000000e-02	2.678639980e-01	-3.679328263e-05	6.043582040e-12
-2.860000000e-02	2.678639863e-01	-3.407994247e-05	1.374880812e-11
-2.870000000e-02	2.678639745e-01	-3.136660300e-05	2.148412578e-12
-2.880000000e-02	2.678639627e-01	-2.865326424e-05	1.278976593e-11
-2.890000000e-02	2.678639507e-01	-2.593992618e-05	1.063976943e-11
-2.900000000e-02	2.678639387e-01	-2.322658882e-05	1.322583517e-11
-2.910000000e-02	2.678639266e-01	-2.051325219e-05	5.548915325e-11
-2.920000000e-02	2.678639144e-01	-1.779991626e-05	2.418693557e-11
-2.930000000e-02	2.678639021e-01	-1.508658106e-05	1.432429649e-11
-2.940000000e-02	2.678638898e-01	-1.237324658e-05	1.169312124e-11
-2.950000000e-02	2.678638774e-01	-9.659912836e-06	1.054344027e-11
-2.960000000e-02	2.678638648e-01	-6.946579822e-06	2.172412531e-11
-2.970000000e-02	2.678638522e-01	-4.233247546e-06	8.767261997e-11
-2.980000000e-02	2.678638395e-01	-1.519916011e-06	1.487811905e-10
-2.990000000e-02	2.678638268e-01	1.193414776e-06	4.042483029e-11
-3.000000000e-02	2.678638139e-01	3.906744813e-06	1.685646998e-12
