# Im(epsi1)     Re(omega/c)      Im(omega/c)      Eq(det).Opt det CON kz, R=0.5 \mum, mu_c=0.3, Re(epsi1)=3.90solve_det_conkz_vs_kz.py
0.000000000e+00	2.678528053e-01	-8.100585847e-04	2.001169580e-11
-1.000000000e-04	2.678528171e-01	-8.073453049e-04	6.971544122e-12
-2.000000000e-04	2.678528288e-01	-8.046320246e-04	1.000818811e-11
-3.000000000e-04	2.678528405e-01	-8.019187438e-04	1.902259478e-11
-4.000000000e-04	2.678528520e-01	-7.992054625e-04	1.159408260e-10
-5.000000000e-04	2.678528635e-01	-7.964921807e-04	8.002241833e-12
-6.000000000e-04	2.678528749e-01	-7.937788985e-04	1.770999048e-11
-7.000000000e-04	2.678528862e-01	-7.910656158e-04	2.683462740e-11
-8.000000000e-04	2.678528974e-01	-7.883523326e-04	7.088225566e-12
-9.000000000e-04	2.678529085e-01	-7.856390490e-04	1.494414682e-11
-1.000000000e-03	2.678529196e-01	-7.829257649e-04	9.856169338e-12
-1.100000000e-03	2.678529305e-01	-7.802124803e-04	2.023519565e-11
-1.200000000e-03	2.678529414e-01	-7.774991953e-04	6.071428078e-11
-1.300000000e-03	2.678529522e-01	-7.747859099e-04	1.391311503e-11
-1.400000000e-03	2.678529630e-01	-7.720726240e-04	1.326411648e-12
-1.500000000e-03	2.678529736e-01	-7.693593376e-04	2.826455463e-11
-1.600000000e-03	2.678529842e-01	-7.666460509e-04	4.509298408e-11
-1.700000000e-03	2.678529946e-01	-7.639327637e-04	2.529059217e-11
-1.800000000e-03	2.678530050e-01	-7.612194760e-04	2.202324607e-11
-1.900000000e-03	2.678530153e-01	-7.585061880e-04	8.401794148e-12
-2.000000000e-03	2.678530256e-01	-7.557928995e-04	1.640890268e-11
-2.100000000e-03	2.678530357e-01	-7.530796106e-04	1.713252590e-11
-2.200000000e-03	2.678530458e-01	-7.503663213e-04	1.927086978e-11
-2.300000000e-03	2.678530558e-01	-7.476530317e-04	1.550360538e-11
-2.400000000e-03	2.678530657e-01	-7.449397416e-04	8.894219688e-12
-2.500000000e-03	2.678530755e-01	-7.422264511e-04	1.263986907e-11
-2.600000000e-03	2.678530852e-01	-7.395131602e-04	1.129858473e-11
-2.700000000e-03	2.678530949e-01	-7.367998689e-04	1.697585753e-11
-2.800000000e-03	2.678531044e-01	-7.340865772e-04	2.268259371e-11
-2.900000000e-03	2.678531139e-01	-7.313732852e-04	1.402805135e-11
-3.000000000e-03	2.678531233e-01	-7.286599928e-04	1.404101786e-11
-3.100000000e-03	2.678531327e-01	-7.259467000e-04	1.155707964e-11
-3.200000000e-03	2.678531419e-01	-7.232334069e-04	2.633203987e-11
-3.300000000e-03	2.678531510e-01	-7.205201133e-04	6.918693960e-12
-3.400000000e-03	2.678531601e-01	-7.178068195e-04	1.421882729e-11
-3.500000000e-03	2.678531691e-01	-7.150935252e-04	1.357099619e-11
-3.600000000e-03	2.678531780e-01	-7.123802307e-04	2.742062139e-11
-3.700000000e-03	2.678531869e-01	-7.096669357e-04	1.795644600e-11
-3.800000000e-03	2.678531956e-01	-7.069536405e-04	1.999719241e-11
-3.900000000e-03	2.678532043e-01	-7.042403448e-04	5.391681712e-12
-4.000000000e-03	2.678532128e-01	-7.015270489e-04	6.773608185e-12
-4.100000000e-03	2.678532213e-01	-6.988137526e-04	9.234649591e-12
-4.200000000e-03	2.678532298e-01	-6.961004560e-04	1.277806859e-11
-4.300000000e-03	2.678532381e-01	-6.933871591e-04	6.390235516e-12
-4.400000000e-03	2.678532463e-01	-6.906738619e-04	1.045665812e-11
-4.500000000e-03	2.678532545e-01	-6.879605643e-04	1.714908612e-11
-4.600000000e-03	2.678532626e-01	-6.852472664e-04	4.713597225e-13
-4.700000000e-03	2.678532706e-01	-6.825339683e-04	1.743757784e-11
-4.800000000e-03	2.678532785e-01	-6.798206698e-04	1.104963108e-11
-4.900000000e-03	2.678532864e-01	-6.771073710e-04	2.127654246e-11
-5.000000000e-03	2.678532941e-01	-6.743940720e-04	9.739436998e-12
-5.100000000e-03	2.678533018e-01	-6.716807726e-04	1.646139725e-11
-5.200000000e-03	2.678533094e-01	-6.689674730e-04	1.668391954e-11
-5.300000000e-03	2.678533169e-01	-6.662541731e-04	3.015839166e-11
-5.400000000e-03	2.678533243e-01	-6.635408729e-04	3.444861060e-11
-5.500000000e-03	2.678533317e-01	-6.608275725e-04	1.922384694e-11
-5.600000000e-03	2.678533389e-01	-6.581142717e-04	1.625519905e-11
-5.700000000e-03	2.678533461e-01	-6.554009707e-04	3.578796835e-11
-5.800000000e-03	2.678533532e-01	-6.526876695e-04	1.384188238e-11
-5.900000000e-03	2.678533602e-01	-6.499743680e-04	1.148413619e-11
-6.000000000e-03	2.678533672e-01	-6.472610662e-04	5.890545336e-11
-6.100000000e-03	2.678533740e-01	-6.445477642e-04	1.138054735e-11
-6.200000000e-03	2.678533808e-01	-6.418344620e-04	7.833236700e-12
-6.300000000e-03	2.678533875e-01	-6.391211595e-04	1.355851137e-11
-6.400000000e-03	2.678533941e-01	-6.364078568e-04	1.012251641e-10
-6.500000000e-03	2.678534006e-01	-6.336945539e-04	1.648681676e-11
-6.600000000e-03	2.678534070e-01	-6.309812507e-04	2.493853963e-11
-6.700000000e-03	2.678534134e-01	-6.282679473e-04	1.734048851e-11
-6.800000000e-03	2.678534196e-01	-6.255546437e-04	1.363407589e-11
-6.900000000e-03	2.678534258e-01	-6.228413399e-04	1.577690107e-10
-7.000000000e-03	2.678534319e-01	-6.201280358e-04	2.429751951e-11
-7.100000000e-03	2.678534380e-01	-6.174147316e-04	2.373279719e-11
-7.200000000e-03	2.678534439e-01	-6.147014272e-04	7.533933822e-12
-7.300000000e-03	2.678534498e-01	-6.119881225e-04	8.682632645e-12
-7.400000000e-03	2.678534556e-01	-6.092748177e-04	2.431120005e-11
-7.500000000e-03	2.678534612e-01	-6.065615127e-04	1.247499910e-11
-7.600000000e-03	2.678534669e-01	-6.038482075e-04	1.634357163e-11
-7.700000000e-03	2.678534724e-01	-6.011349021e-04	7.967331979e-12
-7.800000000e-03	2.678534778e-01	-5.984215965e-04	7.876012304e-12
-7.900000000e-03	2.678534832e-01	-5.957082908e-04	2.836782677e-11
-8.000000000e-03	2.678534885e-01	-5.929949849e-04	9.104916707e-12
-8.100000000e-03	2.678534937e-01	-5.902816789e-04	3.045389039e-10
-8.200000000e-03	2.678534988e-01	-5.875683727e-04	1.399394294e-11
-8.300000000e-03	2.678535039e-01	-5.848550663e-04	1.249487142e-11
-8.400000000e-03	2.678535088e-01	-5.821417598e-04	1.579955033e-11
-8.500000000e-03	2.678535137e-01	-5.794284531e-04	1.804399709e-11
-8.600000000e-03	2.678535185e-01	-5.767151463e-04	3.332053107e-11
-8.700000000e-03	2.678535232e-01	-5.740018393e-04	4.928062592e-12
-8.800000000e-03	2.678535278e-01	-5.712885322e-04	1.151417773e-11
-8.900000000e-03	2.678535323e-01	-5.685752250e-04	7.679489057e-12
-9.000000000e-03	2.678535368e-01	-5.658619177e-04	1.804325267e-11
-9.100000000e-03	2.678535412e-01	-5.631486102e-04	1.295596427e-11
-9.200000000e-03	2.678535455e-01	-5.604353027e-04	1.520465328e-11
-9.300000000e-03	2.678535497e-01	-5.577219950e-04	7.750388645e-12
-9.400000000e-03	2.678535538e-01	-5.550086872e-04	7.276066589e-12
-9.500000000e-03	2.678535579e-01	-5.522953793e-04	4.861729666e-11
-9.600000000e-03	2.678535618e-01	-5.495820713e-04	6.923341269e-11
-9.700000000e-03	2.678535657e-01	-5.468687632e-04	1.213214010e-11
-9.800000000e-03	2.678535695e-01	-5.441554550e-04	5.322982504e-12
-9.900000000e-03	2.678535732e-01	-5.414421467e-04	1.154687602e-11
-1.000000000e-02	2.678535769e-01	-5.387288383e-04	7.148494703e-12
-1.010000000e-02	2.678535804e-01	-5.360155299e-04	1.079130667e-11
-1.020000000e-02	2.678535839e-01	-5.333022213e-04	5.705032352e-11
-1.030000000e-02	2.678535873e-01	-5.305889128e-04	2.257604904e-11
-1.040000000e-02	2.678535906e-01	-5.278756041e-04	1.490537686e-11
-1.050000000e-02	2.678535938e-01	-5.251622954e-04	1.127817171e-11
-1.060000000e-02	2.678535969e-01	-5.224489866e-04	9.345355615e-12
-1.070000000e-02	2.678536000e-01	-5.197356777e-04	1.022732407e-11
-1.080000000e-02	2.678536030e-01	-5.170223689e-04	1.781286799e-11
-1.090000000e-02	2.678536059e-01	-5.143090599e-04	3.307967091e-11
-1.100000000e-02	2.678536087e-01	-5.115957509e-04	4.317267117e-11
-1.110000000e-02	2.678536114e-01	-5.088824419e-04	6.281415750e-12
-1.120000000e-02	2.678536141e-01	-5.061691329e-04	8.769802277e-12
-1.130000000e-02	2.678536166e-01	-5.034558238e-04	6.506453891e-12
-1.140000000e-02	2.678536191e-01	-5.007425147e-04	3.265173479e-11
-1.150000000e-02	2.678536215e-01	-4.980292056e-04	8.404007543e-12
-1.160000000e-02	2.678536238e-01	-4.953158964e-04	1.437510015e-11
-1.170000000e-02	2.678536261e-01	-4.926025873e-04	2.527436904e-11
-1.180000000e-02	2.678536282e-01	-4.898892781e-04	1.085842178e-11
-1.190000000e-02	2.678536303e-01	-4.871759689e-04	1.367960389e-11
-1.200000000e-02	2.678536323e-01	-4.844626598e-04	2.676497732e-11
-1.210000000e-02	2.678536342e-01	-4.817493506e-04	1.432420335e-11
-1.220000000e-02	2.678536360e-01	-4.790360415e-04	1.293913006e-11
-1.230000000e-02	2.678536377e-01	-4.763227323e-04	1.019361387e-11
-1.240000000e-02	2.678536394e-01	-4.736094232e-04	9.470273261e-12
-1.250000000e-02	2.678536410e-01	-4.708961141e-04	6.536187052e-12
-1.260000000e-02	2.678536425e-01	-4.681828050e-04	2.230751926e-11
-1.270000000e-02	2.678536439e-01	-4.654694959e-04	1.044009019e-11
-1.280000000e-02	2.678536452e-01	-4.627561869e-04	3.115577087e-11
-1.290000000e-02	2.678536464e-01	-4.600428779e-04	2.429704602e-11
-1.300000000e-02	2.678536476e-01	-4.573295690e-04	1.358759133e-11
-1.310000000e-02	2.678536487e-01	-4.546162601e-04	9.605574703e-12
-1.320000000e-02	2.678536497e-01	-4.519029512e-04	8.457521641e-12
-1.330000000e-02	2.678536506e-01	-4.491896424e-04	8.362056327e-12
-1.340000000e-02	2.678536514e-01	-4.464763337e-04	1.345245719e-11
-1.350000000e-02	2.678536522e-01	-4.437630250e-04	3.392415376e-11
-1.360000000e-02	2.678536528e-01	-4.410497164e-04	8.015000569e-12
-1.370000000e-02	2.678536534e-01	-4.383364079e-04	8.747766851e-11
-1.380000000e-02	2.678536539e-01	-4.356230994e-04	3.003644640e-11
-1.390000000e-02	2.678536544e-01	-4.329097910e-04	2.052256380e-11
-1.400000000e-02	2.678536547e-01	-4.301964827e-04	6.906526130e-12
-1.410000000e-02	2.678536549e-01	-4.274831745e-04	9.033731295e-12
-1.420000000e-02	2.678536551e-01	-4.247698663e-04	1.643035047e-11
-1.430000000e-02	2.678536552e-01	-4.220565583e-04	3.593546671e-11
-1.440000000e-02	2.678536552e-01	-4.193432504e-04	5.399938153e-12
-1.450000000e-02	2.678536551e-01	-4.166299426e-04	2.169074010e-11
-1.460000000e-02	2.678536550e-01	-4.139166348e-04	6.677754064e-12
-1.470000000e-02	2.678536548e-01	-4.112033272e-04	1.068729533e-11
-1.480000000e-02	2.678536544e-01	-4.084900197e-04	9.737803378e-12
-1.490000000e-02	2.678536540e-01	-4.057767124e-04	2.491418109e-11
-1.500000000e-02	2.678536535e-01	-4.030634051e-04	1.595753967e-11
-1.510000000e-02	2.678536530e-01	-4.003500980e-04	2.467803333e-11
-1.520000000e-02	2.678536523e-01	-3.976367910e-04	1.342956555e-11
-1.530000000e-02	2.678536516e-01	-3.949234842e-04	5.219791173e-11
-1.540000000e-02	2.678536508e-01	-3.922101775e-04	1.498396208e-11
-1.550000000e-02	2.678536499e-01	-3.894968709e-04	2.283089424e-11
-1.560000000e-02	2.678536489e-01	-3.867835645e-04	2.269412757e-11
-1.570000000e-02	2.678536478e-01	-3.840702582e-04	4.039263077e-11
-1.580000000e-02	2.678536467e-01	-3.813569521e-04	9.034562322e-12
-1.590000000e-02	2.678536455e-01	-3.786436462e-04	6.225761664e-12
-1.600000000e-02	2.678536442e-01	-3.759303404e-04	7.019854543e-12
-1.610000000e-02	2.678536428e-01	-3.732170348e-04	1.294248587e-11
-1.620000000e-02	2.678536413e-01	-3.705037294e-04	1.837249864e-11
-1.630000000e-02	2.678536397e-01	-3.677904242e-04	2.643784581e-11
-1.640000000e-02	2.678536381e-01	-3.650771191e-04	1.980133378e-11
-1.650000000e-02	2.678536364e-01	-3.623638142e-04	1.049533996e-11
-1.660000000e-02	2.678536346e-01	-3.596505095e-04	9.259474315e-12
-1.670000000e-02	2.678536327e-01	-3.569372050e-04	2.448843232e-11
-1.680000000e-02	2.678536307e-01	-3.542239008e-04	3.663144520e-11
-1.690000000e-02	2.678536287e-01	-3.515105967e-04	1.825702280e-11
-1.700000000e-02	2.678536265e-01	-3.487972928e-04	4.952491448e-12
-1.710000000e-02	2.678536243e-01	-3.460839891e-04	7.161334625e-12
-1.720000000e-02	2.678536220e-01	-3.433706857e-04	9.750944920e-12
-1.730000000e-02	2.678536196e-01	-3.406573824e-04	1.050764074e-11
-1.740000000e-02	2.678536172e-01	-3.379440794e-04	7.128719006e-12
-1.750000000e-02	2.678536146e-01	-3.352307767e-04	8.165830860e-12
-1.760000000e-02	2.678536120e-01	-3.325174741e-04	7.521599988e-12
-1.770000000e-02	2.678536093e-01	-3.298041718e-04	8.565812480e-12
-1.780000000e-02	2.678536065e-01	-3.270908698e-04	2.593903072e-11
-1.790000000e-02	2.678536036e-01	-3.243775679e-04	1.725061044e-11
-1.800000000e-02	2.678536006e-01	-3.216642664e-04	1.468685550e-11
-1.810000000e-02	2.678535976e-01	-3.189509650e-04	2.205032702e-11
-1.820000000e-02	2.678535945e-01	-3.162376640e-04	1.630027733e-11
-1.830000000e-02	2.678535913e-01	-3.135243632e-04	3.746603746e-11
-1.840000000e-02	2.678535880e-01	-3.108110627e-04	2.148993859e-11
-1.850000000e-02	2.678535846e-01	-3.080977624e-04	9.787827838e-12
-1.860000000e-02	2.678535812e-01	-3.053844624e-04	4.223411059e-12
-1.870000000e-02	2.678535776e-01	-3.026711627e-04	1.024666641e-11
-1.880000000e-02	2.678535740e-01	-2.999578633e-04	8.272952486e-12
-1.890000000e-02	2.678535703e-01	-2.972445642e-04	2.560432855e-11
-1.900000000e-02	2.678535665e-01	-2.945312653e-04	2.233863424e-11
-1.910000000e-02	2.678535627e-01	-2.918179668e-04	2.188430471e-11
-1.920000000e-02	2.678535587e-01	-2.891046685e-04	1.787493285e-11
-1.930000000e-02	2.678535547e-01	-2.863913706e-04	2.318297803e-11
-1.940000000e-02	2.678535506e-01	-2.836780730e-04	1.284777248e-11
-1.950000000e-02	2.678535464e-01	-2.809647756e-04	1.401282439e-11
-1.960000000e-02	2.678535421e-01	-2.782514786e-04	1.798949222e-11
-1.970000000e-02	2.678535377e-01	-2.755381820e-04	7.373324130e-11
-1.980000000e-02	2.678535333e-01	-2.728248856e-04	1.615686348e-10
-1.990000000e-02	2.678535288e-01	-2.701115896e-04	5.286154169e-11
-2.000000000e-02	2.678535242e-01	-2.673982939e-04	2.311398227e-11
-2.010000000e-02	2.678535195e-01	-2.646849985e-04	1.809914768e-11
-2.020000000e-02	2.678535147e-01	-2.619717035e-04	2.038109765e-11
-2.030000000e-02	2.678535098e-01	-2.592584088e-04	7.242415617e-12
-2.040000000e-02	2.678535049e-01	-2.565451145e-04	2.162578828e-11
-2.050000000e-02	2.678534999e-01	-2.538318205e-04	2.998762968e-11
-2.060000000e-02	2.678534948e-01	-2.511185269e-04	1.799084879e-11
-2.070000000e-02	2.678534896e-01	-2.484052337e-04	3.002617661e-11
-2.080000000e-02	2.678534843e-01	-2.456919408e-04	1.322150719e-11
-2.090000000e-02	2.678534790e-01	-2.429786483e-04	1.012684256e-11
-2.100000000e-02	2.678534736e-01	-2.402653561e-04	1.332299965e-11
-2.110000000e-02	2.678534680e-01	-2.375520644e-04	1.270499404e-11
-2.120000000e-02	2.678534625e-01	-2.348387730e-04	7.946258583e-12
-2.130000000e-02	2.678534568e-01	-2.321254820e-04	8.173444018e-12
-2.140000000e-02	2.678534510e-01	-2.294121914e-04	1.700476694e-11
-2.150000000e-02	2.678534452e-01	-2.266989012e-04	1.164001152e-11
-2.160000000e-02	2.678534392e-01	-2.239856114e-04	1.115898921e-11
-2.170000000e-02	2.678534332e-01	-2.212723220e-04	1.423323413e-11
-2.180000000e-02	2.678534271e-01	-2.185590330e-04	5.440608515e-12
-2.190000000e-02	2.678534210e-01	-2.158457445e-04	2.850129902e-11
-2.200000000e-02	2.678534147e-01	-2.131324563e-04	4.752512285e-11
-2.210000000e-02	2.678534084e-01	-2.104191686e-04	2.170934768e-11
-2.220000000e-02	2.678534020e-01	-2.077058813e-04	2.031170934e-11
-2.230000000e-02	2.678533955e-01	-2.049925944e-04	6.663157748e-12
-2.240000000e-02	2.678533889e-01	-2.022793079e-04	1.735452973e-11
-2.250000000e-02	2.678533822e-01	-1.995660219e-04	9.458107515e-12
-2.260000000e-02	2.678533755e-01	-1.968527363e-04	1.419536900e-11
-2.270000000e-02	2.678533686e-01	-1.941394512e-04	1.224644683e-10
-2.280000000e-02	2.678533617e-01	-1.914261665e-04	1.918720585e-11
-2.290000000e-02	2.678533547e-01	-1.887128823e-04	1.108523920e-11
-2.300000000e-02	2.678533476e-01	-1.859995986e-04	6.512417038e-12
-2.310000000e-02	2.678533405e-01	-1.832863153e-04	1.382088764e-11
-2.320000000e-02	2.678533332e-01	-1.805730324e-04	2.272311070e-11
-2.330000000e-02	2.678533259e-01	-1.778597501e-04	1.002311264e-11
-2.340000000e-02	2.678533185e-01	-1.751464682e-04	1.116307740e-11
-2.350000000e-02	2.678533110e-01	-1.724331868e-04	3.005044595e-11
-2.360000000e-02	2.678533034e-01	-1.697199058e-04	1.774391777e-11
-2.370000000e-02	2.678532958e-01	-1.670066254e-04	1.713803863e-11
-2.380000000e-02	2.678532880e-01	-1.642933455e-04	9.722959166e-12
-2.390000000e-02	2.678532802e-01	-1.615800660e-04	1.244394830e-11
-2.400000000e-02	2.678532723e-01	-1.588667871e-04	2.088335875e-11
-2.410000000e-02	2.678532643e-01	-1.561535086e-04	3.557490465e-11
-2.420000000e-02	2.678532562e-01	-1.534402307e-04	3.404627669e-11
-2.430000000e-02	2.678532481e-01	-1.507269532e-04	8.514928149e-12
-2.440000000e-02	2.678532399e-01	-1.480136763e-04	1.060453855e-10
-2.450000000e-02	2.678532315e-01	-1.453003999e-04	7.501239621e-12
-2.460000000e-02	2.678532231e-01	-1.425871241e-04	9.790627076e-12
-2.470000000e-02	2.678532147e-01	-1.398738488e-04	7.633421142e-12
-2.480000000e-02	2.678532061e-01	-1.371605740e-04	1.214220332e-11
-2.490000000e-02	2.678531975e-01	-1.344472997e-04	1.846379331e-11
-2.500000000e-02	2.678531887e-01	-1.317340260e-04	2.315256391e-11
-2.510000000e-02	2.678531799e-01	-1.290207528e-04	1.508365858e-11
-2.520000000e-02	2.678531710e-01	-1.263074802e-04	2.083629991e-11
-2.530000000e-02	2.678531620e-01	-1.235942081e-04	1.464592955e-11
-2.540000000e-02	2.678531530e-01	-1.208809366e-04	1.268866563e-11
-2.550000000e-02	2.678531438e-01	-1.181676656e-04	2.023947477e-11
-2.560000000e-02	2.678531346e-01	-1.154543953e-04	3.862328720e-12
-2.570000000e-02	2.678531253e-01	-1.127411254e-04	1.001968086e-11
-2.580000000e-02	2.678531159e-01	-1.100278562e-04	1.463046296e-11
-2.590000000e-02	2.678531065e-01	-1.073145876e-04	1.277240260e-11
-2.600000000e-02	2.678530969e-01	-1.046013195e-04	1.112124800e-11
-2.610000000e-02	2.678530873e-01	-1.018880520e-04	1.642172304e-11
-2.620000000e-02	2.678530776e-01	-9.917478510e-05	9.095663552e-12
-2.630000000e-02	2.678530678e-01	-9.646151880e-05	4.221608599e-12
-2.640000000e-02	2.678530579e-01	-9.374825311e-05	1.692281418e-11
-2.650000000e-02	2.678530479e-01	-9.103498801e-05	1.103109222e-11
-2.660000000e-02	2.678530379e-01	-8.832172353e-05	8.039962700e-12
-2.670000000e-02	2.678530277e-01	-8.560845965e-05	6.520263667e-12
-2.680000000e-02	2.678530175e-01	-8.289519640e-05	9.414443521e-12
-2.690000000e-02	2.678530072e-01	-8.018193376e-05	1.020543142e-11
-2.700000000e-02	2.678529969e-01	-7.746867176e-05	1.956499358e-11
-2.710000000e-02	2.678529864e-01	-7.475541037e-05	8.360549079e-12
-2.720000000e-02	2.678529759e-01	-7.204214963e-05	2.116187588e-11
-2.730000000e-02	2.678529652e-01	-6.932888952e-05	1.176848750e-11
-2.740000000e-02	2.678529545e-01	-6.661563005e-05	1.762416666e-11
-2.750000000e-02	2.678529437e-01	-6.390237123e-05	9.915300940e-12
-2.760000000e-02	2.678529329e-01	-6.118911306e-05	2.899902965e-11
-2.770000000e-02	2.678529219e-01	-5.847585554e-05	1.413267529e-11
-2.780000000e-02	2.678529109e-01	-5.576259868e-05	4.203240947e-11
-2.790000000e-02	2.678528998e-01	-5.304934249e-05	5.791540944e-12
-2.800000000e-02	2.678528886e-01	-5.033608696e-05	1.064539683e-11
-2.810000000e-02	2.678528773e-01	-4.762283210e-05	7.661296478e-12
-2.820000000e-02	2.678528659e-01	-4.490957792e-05	7.660809662e-12
-2.830000000e-02	2.678528545e-01	-4.219632442e-05	1.820970164e-11
-2.840000000e-02	2.678528429e-01	-3.948307160e-05	1.526162556e-11
-2.850000000e-02	2.678528313e-01	-3.676981947e-05	1.047038669e-11
-2.860000000e-02	2.678528196e-01	-3.405656803e-05	1.563053611e-11
-2.870000000e-02	2.678528078e-01	-3.134331729e-05	1.236199656e-11
-2.880000000e-02	2.678527960e-01	-2.863006724e-05	1.486567736e-11
-2.890000000e-02	2.678527840e-01	-2.591681790e-05	3.481488599e-12
-2.900000000e-02	2.678527720e-01	-2.320356927e-05	2.117302932e-11
-2.910000000e-02	2.678527599e-01	-2.049032136e-05	9.736649365e-12
-2.920000000e-02	2.678527477e-01	-1.777707416e-05	3.445517991e-12
-2.930000000e-02	2.678527354e-01	-1.506382768e-05	1.086651653e-11
-2.940000000e-02	2.678527231e-01	-1.235058192e-05	2.016622755e-11
-2.950000000e-02	2.678527107e-01	-9.637336898e-06	8.088720040e-12
-2.960000000e-02	2.678526981e-01	-6.924092606e-06	8.268426996e-12
-2.970000000e-02	2.678526855e-01	-4.210849053e-06	3.510775739e-11
-2.980000000e-02	2.678526729e-01	-1.497606242e-06	9.779138985e-12
-2.990000000e-02	2.678526601e-01	1.215635824e-06	8.110750129e-12
-3.000000000e-02	2.678526472e-01	3.928877138e-06	9.768770217e-12
