# Im(epsi1)     Re(omega/c)      Im(omega/c)      Eq(det).Opt det CON kz, R=0.5 \mum, mu_c=0.3, Re(epsi1)=3.90solve_det_conkz_vs_kz.py
0.000000000e+00	2.678544482e-01	-8.100657568e-04	1.541643866e-11
-1.000000000e-04	2.678544600e-01	-8.073524639e-04	1.683699192e-11
-2.000000000e-04	2.678544717e-01	-8.046391706e-04	2.467551499e-11
-3.000000000e-04	2.678544834e-01	-8.019258767e-04	1.901599383e-11
-4.000000000e-04	2.678544949e-01	-7.992125824e-04	1.927018103e-11
-5.000000000e-04	2.678545064e-01	-7.964992876e-04	4.358454891e-12
-6.000000000e-04	2.678545178e-01	-7.937859923e-04	4.201056575e-12
-7.000000000e-04	2.678545291e-01	-7.910726965e-04	1.432666656e-11
-8.000000000e-04	2.678545403e-01	-7.883594003e-04	8.747492733e-12
-9.000000000e-04	2.678545514e-01	-7.856461036e-04	1.333028593e-11
-1.000000000e-03	2.678545625e-01	-7.829328064e-04	6.044269834e-12
-1.100000000e-03	2.678545734e-01	-7.802195088e-04	1.048681538e-11
-1.200000000e-03	2.678545843e-01	-7.775062108e-04	1.570164023e-11
-1.300000000e-03	2.678545951e-01	-7.747929123e-04	8.516934868e-12
-1.400000000e-03	2.678546059e-01	-7.720796133e-04	9.484473946e-12
-1.500000000e-03	2.678546165e-01	-7.693663139e-04	1.770454035e-11
-1.600000000e-03	2.678546271e-01	-7.666530141e-04	1.763107450e-11
-1.700000000e-03	2.678546375e-01	-7.639397138e-04	2.942140830e-11
-1.800000000e-03	2.678546479e-01	-7.612264132e-04	5.317488478e-11
-1.900000000e-03	2.678546583e-01	-7.585131121e-04	9.543146095e-12
-2.000000000e-03	2.678546685e-01	-7.557998105e-04	7.966324018e-12
-2.100000000e-03	2.678546786e-01	-7.530865086e-04	9.695086460e-12
-2.200000000e-03	2.678546887e-01	-7.503732063e-04	1.815898652e-11
-2.300000000e-03	2.678546987e-01	-7.476599035e-04	2.214881772e-11
-2.400000000e-03	2.678547086e-01	-7.449466004e-04	8.440881971e-12
-2.500000000e-03	2.678547184e-01	-7.422332968e-04	5.835584590e-12
-2.600000000e-03	2.678547281e-01	-7.395199929e-04	2.324444458e-11
-2.700000000e-03	2.678547378e-01	-7.368066886e-04	2.281127553e-11
-2.800000000e-03	2.678547473e-01	-7.340933839e-04	1.511270073e-11
-2.900000000e-03	2.678547568e-01	-7.313800788e-04	1.168023516e-11
-3.000000000e-03	2.678547662e-01	-7.286667733e-04	6.003036665e-12
-3.100000000e-03	2.678547756e-01	-7.259534675e-04	4.840005053e-12
-3.200000000e-03	2.678547848e-01	-7.232401613e-04	1.554596369e-11
-3.300000000e-03	2.678547940e-01	-7.205268547e-04	1.211327311e-11
-3.400000000e-03	2.678548030e-01	-7.178135478e-04	9.057471977e-12
-3.500000000e-03	2.678548120e-01	-7.151002405e-04	1.368644324e-11
-3.600000000e-03	2.678548209e-01	-7.123869329e-04	1.268594444e-11
-3.700000000e-03	2.678548298e-01	-7.096736249e-04	2.316176611e-11
-3.800000000e-03	2.678548385e-01	-7.069603165e-04	2.593149936e-11
-3.900000000e-03	2.678548472e-01	-7.042470079e-04	1.429179568e-11
-4.000000000e-03	2.678548558e-01	-7.015336989e-04	2.746766408e-11
-4.100000000e-03	2.678548643e-01	-6.988203896e-04	1.608991143e-11
-4.200000000e-03	2.678548727e-01	-6.961070799e-04	1.476307134e-11
-4.300000000e-03	2.678548810e-01	-6.933937699e-04	6.019763222e-11
-4.400000000e-03	2.678548893e-01	-6.906804596e-04	1.152629473e-11
-4.500000000e-03	2.678548974e-01	-6.879671490e-04	1.669874355e-11
-4.600000000e-03	2.678549055e-01	-6.852538381e-04	2.326201894e-11
-4.700000000e-03	2.678549135e-01	-6.825405269e-04	6.447609277e-12
-4.800000000e-03	2.678549214e-01	-6.798272154e-04	1.244899106e-11
-4.900000000e-03	2.678549293e-01	-6.771139036e-04	1.844423161e-11
-5.000000000e-03	2.678549370e-01	-6.744005915e-04	1.736299978e-11
-5.100000000e-03	2.678549447e-01	-6.716872791e-04	1.742601371e-11
-5.200000000e-03	2.678549523e-01	-6.689739664e-04	1.045641200e-11
-5.300000000e-03	2.678549598e-01	-6.662606534e-04	1.874388380e-11
-5.400000000e-03	2.678549672e-01	-6.635473402e-04	2.925668051e-11
-5.500000000e-03	2.678549746e-01	-6.608340267e-04	3.586413870e-11
-5.600000000e-03	2.678549818e-01	-6.581207129e-04	7.800432244e-12
-5.700000000e-03	2.678549890e-01	-6.554073989e-04	9.131832036e-12
-5.800000000e-03	2.678549961e-01	-6.526940846e-04	9.353472813e-12
-5.900000000e-03	2.678550031e-01	-6.499807700e-04	9.288789628e-12
-6.000000000e-03	2.678550101e-01	-6.472674552e-04	8.808515635e-12
-6.100000000e-03	2.678550169e-01	-6.445541401e-04	1.116796518e-11
-6.200000000e-03	2.678550237e-01	-6.418408248e-04	1.036428921e-11
-6.300000000e-03	2.678550304e-01	-6.391275093e-04	5.812894853e-12
-6.400000000e-03	2.678550370e-01	-6.364141935e-04	2.919881585e-11
-6.500000000e-03	2.678550435e-01	-6.337008776e-04	1.003466465e-11
-6.600000000e-03	2.678550499e-01	-6.309875613e-04	3.102963620e-12
-6.700000000e-03	2.678550563e-01	-6.282742449e-04	1.094554010e-11
-6.800000000e-03	2.678550626e-01	-6.255609282e-04	2.843078942e-11
-6.900000000e-03	2.678550688e-01	-6.228476113e-04	8.413160876e-12
-7.000000000e-03	2.678550749e-01	-6.201342943e-04	1.322928493e-11
-7.100000000e-03	2.678550809e-01	-6.174209770e-04	6.982963040e-12
-7.200000000e-03	2.678550868e-01	-6.147076595e-04	2.761507744e-11
-7.300000000e-03	2.678550927e-01	-6.119943418e-04	1.014747194e-11
-7.400000000e-03	2.678550985e-01	-6.092810239e-04	1.918316768e-11
-7.500000000e-03	2.678551042e-01	-6.065677058e-04	3.156354560e-12
-7.600000000e-03	2.678551098e-01	-6.038543876e-04	1.305856572e-11
-7.700000000e-03	2.678551153e-01	-6.011410692e-04	2.479579778e-11
-7.800000000e-03	2.678551208e-01	-5.984277506e-04	1.250589136e-11
-7.900000000e-03	2.678551261e-01	-5.957144318e-04	1.144399226e-11
-8.000000000e-03	2.678551314e-01	-5.930011128e-04	1.671367009e-11
-8.100000000e-03	2.678551366e-01	-5.902877937e-04	2.280187328e-11
-8.200000000e-03	2.678551417e-01	-5.875744745e-04	1.343203908e-11
-8.300000000e-03	2.678551468e-01	-5.848611550e-04	1.263631051e-11
-8.400000000e-03	2.678551517e-01	-5.821478355e-04	1.342834240e-11
-8.500000000e-03	2.678551566e-01	-5.794345157e-04	2.779455522e-11
-8.600000000e-03	2.678551614e-01	-5.767211959e-04	2.900200365e-11
-8.700000000e-03	2.678551661e-01	-5.740078759e-04	1.881212213e-11
-8.800000000e-03	2.678551707e-01	-5.712945557e-04	2.473539169e-11
-8.900000000e-03	2.678551753e-01	-5.685812355e-04	2.110544813e-11
-9.000000000e-03	2.678551797e-01	-5.658679151e-04	2.138381142e-11
-9.100000000e-03	2.678551841e-01	-5.631545946e-04	1.450468566e-11
-9.200000000e-03	2.678551884e-01	-5.604412739e-04	1.064554896e-11
-9.300000000e-03	2.678551926e-01	-5.577279532e-04	2.151345323e-11
-9.400000000e-03	2.678551967e-01	-5.550146323e-04	1.409967127e-11
-9.500000000e-03	2.678552008e-01	-5.523013114e-04	2.792559988e-11
-9.600000000e-03	2.678552047e-01	-5.495879903e-04	1.703581715e-11
-9.700000000e-03	2.678552086e-01	-5.468746692e-04	8.593801918e-12
-9.800000000e-03	2.678552124e-01	-5.441613479e-04	3.286010564e-11
-9.900000000e-03	2.678552161e-01	-5.414480266e-04	1.080955761e-11
-1.000000000e-02	2.678552198e-01	-5.387347052e-04	1.290303350e-11
-1.010000000e-02	2.678552233e-01	-5.360213837e-04	4.244722867e-11
-1.020000000e-02	2.678552268e-01	-5.333080621e-04	1.344041774e-11
-1.030000000e-02	2.678552302e-01	-5.305947405e-04	2.164707792e-10
-1.040000000e-02	2.678552335e-01	-5.278814187e-04	1.021705933e-11
-1.050000000e-02	2.678552367e-01	-5.251680970e-04	4.674886466e-11
-1.060000000e-02	2.678552399e-01	-5.224547751e-04	1.688547226e-11
-1.070000000e-02	2.678552429e-01	-5.197414532e-04	1.307411813e-11
-1.080000000e-02	2.678552459e-01	-5.170281313e-04	7.856539099e-12
-1.090000000e-02	2.678552488e-01	-5.143148093e-04	1.106788898e-11
-1.100000000e-02	2.678552516e-01	-5.116014873e-04	1.767275244e-11
-1.110000000e-02	2.678552543e-01	-5.088881652e-04	3.301334946e-11
-1.120000000e-02	2.678552570e-01	-5.061748431e-04	2.982078752e-12
-1.130000000e-02	2.678552595e-01	-5.034615210e-04	5.244045959e-12
-1.140000000e-02	2.678552620e-01	-5.007481988e-04	1.767156220e-11
-1.150000000e-02	2.678552644e-01	-4.980348767e-04	1.587374111e-11
-1.160000000e-02	2.678552667e-01	-4.953215545e-04	7.979492543e-11
-1.170000000e-02	2.678552690e-01	-4.926082322e-04	1.312936292e-11
-1.180000000e-02	2.678552711e-01	-4.898949100e-04	1.583360418e-11
-1.190000000e-02	2.678552732e-01	-4.871815878e-04	8.734091431e-12
-1.200000000e-02	2.678552752e-01	-4.844682656e-04	9.393915642e-12
-1.210000000e-02	2.678552771e-01	-4.817549434e-04	2.745443464e-11
-1.220000000e-02	2.678552789e-01	-4.790416212e-04	1.600172765e-11
-1.230000000e-02	2.678552807e-01	-4.763282990e-04	1.318359071e-11
-1.240000000e-02	2.678552823e-01	-4.736149768e-04	1.554390205e-10
-1.250000000e-02	2.678552839e-01	-4.709016546e-04	1.708902935e-11
-1.260000000e-02	2.678552854e-01	-4.681883325e-04	9.883401856e-12
-1.270000000e-02	2.678552868e-01	-4.654750104e-04	7.351893888e-12
-1.280000000e-02	2.678552881e-01	-4.627616883e-04	1.152803040e-11
-1.290000000e-02	2.678552894e-01	-4.600483663e-04	1.199392117e-11
-1.300000000e-02	2.678552905e-01	-4.573350443e-04	1.235127438e-11
-1.310000000e-02	2.678552916e-01	-4.546217223e-04	5.261344878e-12
-1.320000000e-02	2.678552926e-01	-4.519084004e-04	4.230032605e-12
-1.330000000e-02	2.678552935e-01	-4.491950785e-04	9.732235212e-12
-1.340000000e-02	2.678552943e-01	-4.464817568e-04	8.959743917e-12
-1.350000000e-02	2.678552951e-01	-4.437684350e-04	1.221492609e-11
-1.360000000e-02	2.678552958e-01	-4.410551134e-04	2.314122577e-11
-1.370000000e-02	2.678552964e-01	-4.383417918e-04	8.849262953e-12
-1.380000000e-02	2.678552969e-01	-4.356284702e-04	1.376244271e-11
-1.390000000e-02	2.678552973e-01	-4.329151488e-04	1.206371268e-11
-1.400000000e-02	2.678552976e-01	-4.302018275e-04	4.206732628e-12
-1.410000000e-02	2.678552979e-01	-4.274885062e-04	2.328190757e-11
-1.420000000e-02	2.678552980e-01	-4.247751850e-04	3.043995980e-11
-1.430000000e-02	2.678552981e-01	-4.220618639e-04	1.558887214e-11
-1.440000000e-02	2.678552981e-01	-4.193485429e-04	2.172257892e-11
-1.450000000e-02	2.678552981e-01	-4.166352221e-04	3.498033361e-11
-1.460000000e-02	2.678552979e-01	-4.139219013e-04	2.210987632e-11
-1.470000000e-02	2.678552977e-01	-4.112085806e-04	5.938318067e-12
-1.480000000e-02	2.678552974e-01	-4.084952601e-04	1.658280573e-11
-1.490000000e-02	2.678552970e-01	-4.057819397e-04	2.033344945e-11
-1.500000000e-02	2.678552965e-01	-4.030686194e-04	1.974426385e-11
-1.510000000e-02	2.678552959e-01	-4.003552992e-04	2.888641889e-11
-1.520000000e-02	2.678552952e-01	-3.976419791e-04	1.134049432e-11
-1.530000000e-02	2.678552945e-01	-3.949286592e-04	1.410241983e-11
-1.540000000e-02	2.678552937e-01	-3.922153395e-04	8.984086840e-12
-1.550000000e-02	2.678552928e-01	-3.895020199e-04	2.404970845e-11
-1.560000000e-02	2.678552918e-01	-3.867887004e-04	1.626122132e-11
-1.570000000e-02	2.678552908e-01	-3.840753811e-04	7.599590123e-12
-1.580000000e-02	2.678552896e-01	-3.813620620e-04	7.372903554e-12
-1.590000000e-02	2.678552884e-01	-3.786487430e-04	8.460796646e-12
-1.600000000e-02	2.678552871e-01	-3.759354241e-04	7.157662314e-12
-1.610000000e-02	2.678552857e-01	-3.732221055e-04	1.404693085e-11
-1.620000000e-02	2.678552842e-01	-3.705087870e-04	2.069278962e-11
-1.630000000e-02	2.678552827e-01	-3.677954687e-04	1.971475456e-11
-1.640000000e-02	2.678552810e-01	-3.650821506e-04	1.198616867e-10
-1.650000000e-02	2.678552793e-01	-3.623688327e-04	7.162115376e-12
-1.660000000e-02	2.678552775e-01	-3.596555149e-04	4.401627643e-11
-1.670000000e-02	2.678552756e-01	-3.569421974e-04	1.194397355e-11
-1.680000000e-02	2.678552736e-01	-3.542288800e-04	1.608567173e-11
-1.690000000e-02	2.678552716e-01	-3.515155629e-04	4.101441308e-12
-1.700000000e-02	2.678552694e-01	-3.488022460e-04	1.994097109e-11
-1.710000000e-02	2.678552672e-01	-3.460889293e-04	3.608019084e-12
-1.720000000e-02	2.678552649e-01	-3.433756127e-04	5.770114938e-11
-1.730000000e-02	2.678552625e-01	-3.406622965e-04	9.416138072e-12
-1.740000000e-02	2.678552601e-01	-3.379489804e-04	1.106206300e-11
-1.750000000e-02	2.678552575e-01	-3.352356646e-04	6.158957421e-12
-1.760000000e-02	2.678552549e-01	-3.325223490e-04	1.672286757e-11
-1.770000000e-02	2.678552522e-01	-3.298090336e-04	1.858123395e-11
-1.780000000e-02	2.678552494e-01	-3.270957185e-04	7.238311357e-12
-1.790000000e-02	2.678552465e-01	-3.243824036e-04	1.455926187e-11
-1.800000000e-02	2.678552436e-01	-3.216690890e-04	1.056384403e-11
-1.810000000e-02	2.678552405e-01	-3.189557747e-04	1.551607643e-11
-1.820000000e-02	2.678552374e-01	-3.162424605e-04	8.676630272e-12
-1.830000000e-02	2.678552342e-01	-3.135291467e-04	2.701857879e-11
-1.840000000e-02	2.678552309e-01	-3.108158331e-04	7.153362559e-12
-1.850000000e-02	2.678552275e-01	-3.081025198e-04	6.248729835e-12
-1.860000000e-02	2.678552241e-01	-3.053892068e-04	9.885184620e-12
-1.870000000e-02	2.678552206e-01	-3.026758940e-04	1.557865108e-11
-1.880000000e-02	2.678552169e-01	-2.999625815e-04	6.113882280e-12
-1.890000000e-02	2.678552132e-01	-2.972492694e-04	2.150019053e-11
-1.900000000e-02	2.678552095e-01	-2.945359575e-04	1.629128891e-11
-1.910000000e-02	2.678552056e-01	-2.918226459e-04	7.369691163e-12
-1.920000000e-02	2.678552016e-01	-2.891093346e-04	1.623262964e-11
-1.930000000e-02	2.678551976e-01	-2.863960236e-04	1.834472268e-11
-1.940000000e-02	2.678551935e-01	-2.836827129e-04	2.515322905e-11
-1.950000000e-02	2.678551893e-01	-2.809694025e-04	1.313039524e-11
-1.960000000e-02	2.678551850e-01	-2.782560924e-04	6.021013978e-12
-1.970000000e-02	2.678551807e-01	-2.755427827e-04	1.838283267e-11
-1.980000000e-02	2.678551762e-01	-2.728294733e-04	9.403587684e-11
-1.990000000e-02	2.678551717e-01	-2.701161642e-04	1.459680190e-11
-2.000000000e-02	2.678551671e-01	-2.674028555e-04	2.655530679e-11
-2.010000000e-02	2.678551624e-01	-2.646895471e-04	8.310877078e-12
-2.020000000e-02	2.678551576e-01	-2.619762390e-04	9.909908537e-12
-2.030000000e-02	2.678551528e-01	-2.592629313e-04	9.814605711e-12
-2.040000000e-02	2.678551478e-01	-2.565496239e-04	1.084066656e-11
-2.050000000e-02	2.678551428e-01	-2.538363169e-04	5.128834204e-11
-2.060000000e-02	2.678551377e-01	-2.511230102e-04	2.235597239e-11
-2.070000000e-02	2.678551325e-01	-2.484097039e-04	8.124284119e-12
-2.080000000e-02	2.678551273e-01	-2.456963980e-04	2.715164487e-12
-2.090000000e-02	2.678551219e-01	-2.429830924e-04	1.748263649e-11
-2.100000000e-02	2.678551165e-01	-2.402697872e-04	1.139924063e-11
-2.110000000e-02	2.678551110e-01	-2.375564824e-04	5.378398982e-12
-2.120000000e-02	2.678551054e-01	-2.348431780e-04	3.243218020e-11
-2.130000000e-02	2.678550997e-01	-2.321298739e-04	2.372813835e-11
-2.140000000e-02	2.678550939e-01	-2.294165703e-04	3.097799205e-11
-2.150000000e-02	2.678550881e-01	-2.267032670e-04	1.176186069e-11
-2.160000000e-02	2.678550822e-01	-2.239899642e-04	2.274901611e-11
-2.170000000e-02	2.678550762e-01	-2.212766617e-04	1.768333142e-11
-2.180000000e-02	2.678550701e-01	-2.185633597e-04	2.328536003e-11
-2.190000000e-02	2.678550639e-01	-2.158500581e-04	2.953803916e-11
-2.200000000e-02	2.678550576e-01	-2.131367568e-04	5.947077235e-12
-2.210000000e-02	2.678550513e-01	-2.104234561e-04	1.320395021e-11
-2.220000000e-02	2.678550449e-01	-2.077101557e-04	1.097579072e-11
-2.230000000e-02	2.678550384e-01	-2.049968558e-04	1.225791666e-11
-2.240000000e-02	2.678550318e-01	-2.022835563e-04	4.810525432e-12
-2.250000000e-02	2.678550251e-01	-1.995702572e-04	1.497752799e-11
-2.260000000e-02	2.678550184e-01	-1.968569586e-04	1.275673220e-11
-2.270000000e-02	2.678550116e-01	-1.941436604e-04	3.310821095e-11
-2.280000000e-02	2.678550046e-01	-1.914303627e-04	2.024263234e-11
-2.290000000e-02	2.678549976e-01	-1.887170654e-04	4.239003867e-12
-2.300000000e-02	2.678549906e-01	-1.860037686e-04	1.311586111e-11
-2.310000000e-02	2.678549834e-01	-1.832904722e-04	9.557861021e-12
-2.320000000e-02	2.678549762e-01	-1.805771763e-04	1.179940315e-11
-2.330000000e-02	2.678549688e-01	-1.778638809e-04	5.527063257e-11
-2.340000000e-02	2.678549614e-01	-1.751505860e-04	4.208092542e-11
-2.350000000e-02	2.678549539e-01	-1.724372915e-04	2.656034322e-10
-2.360000000e-02	2.678549464e-01	-1.697239975e-04	1.723397635e-11
-2.370000000e-02	2.678549387e-01	-1.670107040e-04	9.459042205e-12
-2.380000000e-02	2.678549310e-01	-1.642974110e-04	1.271851026e-11
-2.390000000e-02	2.678549231e-01	-1.615841185e-04	9.057666500e-12
-2.400000000e-02	2.678549152e-01	-1.588708265e-04	7.407850708e-12
-2.410000000e-02	2.678549072e-01	-1.561575350e-04	7.582065531e-12
-2.420000000e-02	2.678548992e-01	-1.534442441e-04	1.443320128e-12
-2.430000000e-02	2.678548910e-01	-1.507309536e-04	1.852390633e-11
-2.440000000e-02	2.678548828e-01	-1.480176636e-04	3.212808226e-11
-2.450000000e-02	2.678548745e-01	-1.453043742e-04	6.001048907e-11
-2.460000000e-02	2.678548661e-01	-1.425910853e-04	1.862040935e-11
-2.470000000e-02	2.678548576e-01	-1.398777969e-04	2.750390903e-11
-2.480000000e-02	2.678548490e-01	-1.371645090e-04	8.134415425e-11
-2.490000000e-02	2.678548404e-01	-1.344512217e-04	1.426461792e-11
-2.500000000e-02	2.678548317e-01	-1.317379349e-04	5.804623867e-12
-2.510000000e-02	2.678548228e-01	-1.290246487e-04	3.543367461e-11
-2.520000000e-02	2.678548140e-01	-1.263113630e-04	2.088174169e-11
-2.530000000e-02	2.678548050e-01	-1.235980779e-04	7.402403301e-12
-2.540000000e-02	2.678547959e-01	-1.208847933e-04	3.507897153e-11
-2.550000000e-02	2.678547868e-01	-1.181715093e-04	3.271747689e-12
-2.560000000e-02	2.678547776e-01	-1.154582259e-04	1.117611406e-11
-2.570000000e-02	2.678547683e-01	-1.127449430e-04	1.059693390e-11
-2.580000000e-02	2.678547589e-01	-1.100316608e-04	6.955402974e-11
-2.590000000e-02	2.678547494e-01	-1.073183790e-04	6.938459229e-11
-2.600000000e-02	2.678547398e-01	-1.046050979e-04	7.716898961e-12
-2.610000000e-02	2.678547302e-01	-1.018918174e-04	4.526395600e-11
-2.620000000e-02	2.678547205e-01	-9.917853743e-05	1.040857971e-11
-2.630000000e-02	2.678547107e-01	-9.646525808e-05	1.461177305e-11
-2.640000000e-02	2.678547008e-01	-9.375197933e-05	6.826508544e-12
-2.650000000e-02	2.678546908e-01	-9.103870118e-05	2.300784697e-11
-2.660000000e-02	2.678546808e-01	-8.832542364e-05	9.863153951e-11
-2.670000000e-02	2.678546707e-01	-8.561214672e-05	1.224310270e-11
-2.680000000e-02	2.678546605e-01	-8.289887041e-05	7.893787979e-12
-2.690000000e-02	2.678546502e-01	-8.018559472e-05	2.154160607e-11
-2.700000000e-02	2.678546398e-01	-7.747231966e-05	6.580570962e-12
-2.710000000e-02	2.678546293e-01	-7.475904522e-05	8.484369747e-12
-2.720000000e-02	2.678546188e-01	-7.204577142e-05	4.447930513e-11
-2.730000000e-02	2.678546082e-01	-6.933249826e-05	1.552861052e-11
-2.740000000e-02	2.678545975e-01	-6.661922574e-05	5.931906722e-11
-2.750000000e-02	2.678545867e-01	-6.390595387e-05	2.448010770e-11
-2.760000000e-02	2.678545758e-01	-6.119268264e-05	8.722298912e-12
-2.770000000e-02	2.678545648e-01	-5.847941207e-05	9.820514621e-12
-2.780000000e-02	2.678545538e-01	-5.576614216e-05	1.613486213e-11
-2.790000000e-02	2.678545427e-01	-5.305287291e-05	3.468420443e-11
-2.800000000e-02	2.678545315e-01	-5.033960433e-05	1.579470136e-11
-2.810000000e-02	2.678545202e-01	-4.762633642e-05	9.062579094e-12
-2.820000000e-02	2.678545088e-01	-4.491306919e-05	1.487183156e-11
-2.830000000e-02	2.678544974e-01	-4.219980263e-05	1.341998066e-11
-2.840000000e-02	2.678544859e-01	-3.948653676e-05	9.450535968e-12
-2.850000000e-02	2.678544743e-01	-3.677327158e-05	2.099605667e-11
-2.860000000e-02	2.678544626e-01	-3.406000708e-05	7.091790514e-12
-2.870000000e-02	2.678544508e-01	-3.134674329e-05	1.677200433e-11
-2.880000000e-02	2.678544389e-01	-2.863348019e-05	5.106635096e-12
-2.890000000e-02	2.678544270e-01	-2.592021780e-05	1.370325316e-11
-2.900000000e-02	2.678544150e-01	-2.320695612e-05	1.119945414e-11
-2.910000000e-02	2.678544028e-01	-2.049369514e-05	4.325364720e-11
-2.920000000e-02	2.678543907e-01	-1.778043489e-05	1.306182168e-11
-2.930000000e-02	2.678543784e-01	-1.506717536e-05	1.016788366e-11
-2.940000000e-02	2.678543660e-01	-1.235391655e-05	1.374222301e-11
-2.950000000e-02	2.678543536e-01	-9.640658473e-06	1.560570561e-11
-2.960000000e-02	2.678543411e-01	-6.927401129e-06	3.072813347e-11
-2.970000000e-02	2.678543285e-01	-4.214144523e-06	1.586578626e-11
-2.980000000e-02	2.678543158e-01	-1.500888658e-06	2.219097360e-11
-2.990000000e-02	2.678543030e-01	1.212366460e-06	2.421327059e-11
-3.000000000e-02	2.678542902e-01	3.925620828e-06	1.002229063e-11
