# Im(epsi1)     Re(omega/c)      Im(omega/c)      Eq(det).Opt det CON kz, R=0.5 \mum, mu_c=0.3, Re(epsi1)=3.90solve_det_conkz_vs_kz.py
0.000000000e+00	2.678556455e-01	-8.100709836e-04	4.985628844e-12
-1.000000000e-04	2.678556573e-01	-8.073576812e-04	1.282054948e-11
-2.000000000e-04	2.678556690e-01	-8.046443783e-04	1.458048629e-11
-3.000000000e-04	2.678556807e-01	-8.019310750e-04	9.226387965e-11
-4.000000000e-04	2.678556922e-01	-7.992177711e-04	6.733577804e-12
-5.000000000e-04	2.678557037e-01	-7.965044668e-04	1.450728755e-11
-6.000000000e-04	2.678557151e-01	-7.937911620e-04	1.548578619e-11
-7.000000000e-04	2.678557264e-01	-7.910778567e-04	6.307245390e-12
-8.000000000e-04	2.678557376e-01	-7.883645510e-04	7.672146857e-12
-9.000000000e-04	2.678557487e-01	-7.856512448e-04	5.855448740e-12
-1.000000000e-03	2.678557598e-01	-7.829379381e-04	1.917159582e-11
-1.100000000e-03	2.678557707e-01	-7.802246310e-04	1.303232434e-11
-1.200000000e-03	2.678557816e-01	-7.775113234e-04	1.581053427e-11
-1.300000000e-03	2.678557924e-01	-7.747980154e-04	1.902572080e-11
-1.400000000e-03	2.678558032e-01	-7.720847069e-04	9.624921415e-12
-1.500000000e-03	2.678558138e-01	-7.693713980e-04	2.091660057e-11
-1.600000000e-03	2.678558244e-01	-7.666580887e-04	2.915350640e-11
-1.700000000e-03	2.678558348e-01	-7.639447789e-04	3.387290673e-11
-1.800000000e-03	2.678558452e-01	-7.612314688e-04	4.919272554e-11
-1.900000000e-03	2.678558556e-01	-7.585181581e-04	2.726025696e-12
-2.000000000e-03	2.678558658e-01	-7.558048471e-04	4.340098013e-12
-2.100000000e-03	2.678558759e-01	-7.530915357e-04	8.484304092e-12
-2.200000000e-03	2.678558860e-01	-7.503782238e-04	2.382568571e-11
-2.300000000e-03	2.678558960e-01	-7.476649116e-04	1.460362042e-11
-2.400000000e-03	2.678559059e-01	-7.449515989e-04	1.044342488e-11
-2.500000000e-03	2.678559157e-01	-7.422382858e-04	1.650463692e-11
-2.600000000e-03	2.678559254e-01	-7.395249724e-04	1.039238140e-11
-2.700000000e-03	2.678559351e-01	-7.368116586e-04	9.137314786e-12
-2.800000000e-03	2.678559447e-01	-7.340983443e-04	6.470552414e-12
-2.900000000e-03	2.678559541e-01	-7.313850297e-04	9.434867880e-12
-3.000000000e-03	2.678559635e-01	-7.286717148e-04	1.063453110e-11
-3.100000000e-03	2.678559729e-01	-7.259583994e-04	7.307628633e-12
-3.200000000e-03	2.678559821e-01	-7.232450837e-04	2.188212216e-11
-3.300000000e-03	2.678559913e-01	-7.205317676e-04	8.546903024e-12
-3.400000000e-03	2.678560003e-01	-7.178184512e-04	9.002804542e-12
-3.500000000e-03	2.678560093e-01	-7.151051344e-04	1.251185979e-11
-3.600000000e-03	2.678560182e-01	-7.123918172e-04	8.135945500e-12
-3.700000000e-03	2.678560271e-01	-7.096784997e-04	9.373560371e-12
-3.800000000e-03	2.678560358e-01	-7.069651819e-04	1.118331864e-11
-3.900000000e-03	2.678560445e-01	-7.042518637e-04	1.055445141e-11
-4.000000000e-03	2.678560531e-01	-7.015385452e-04	1.385689125e-11
-4.100000000e-03	2.678560616e-01	-6.988252264e-04	3.230608629e-11
-4.200000000e-03	2.678560700e-01	-6.961119072e-04	1.003445620e-11
-4.300000000e-03	2.678560783e-01	-6.933985877e-04	2.011541628e-11
-4.400000000e-03	2.678560866e-01	-6.906852679e-04	1.518303227e-11
-4.500000000e-03	2.678560947e-01	-6.879719478e-04	8.516154919e-12
-4.600000000e-03	2.678561028e-01	-6.852586274e-04	9.134219036e-12
-4.700000000e-03	2.678561108e-01	-6.825453067e-04	1.826037699e-11
-4.800000000e-03	2.678561187e-01	-6.798319856e-04	2.329273978e-11
-4.900000000e-03	2.678561266e-01	-6.771186643e-04	1.191403042e-11
-5.000000000e-03	2.678561343e-01	-6.744053427e-04	1.564126411e-11
-5.100000000e-03	2.678561420e-01	-6.716920208e-04	1.396131368e-11
-5.200000000e-03	2.678561496e-01	-6.689786986e-04	1.766189521e-11
-5.300000000e-03	2.678561571e-01	-6.662653761e-04	1.231221835e-11
-5.400000000e-03	2.678561645e-01	-6.635520533e-04	3.434789911e-12
-5.500000000e-03	2.678561719e-01	-6.608387303e-04	8.585649234e-12
-5.600000000e-03	2.678561792e-01	-6.581254070e-04	1.870379608e-11
-5.700000000e-03	2.678561863e-01	-6.554120835e-04	1.540629945e-11
-5.800000000e-03	2.678561934e-01	-6.526987597e-04	1.600488873e-11
-5.900000000e-03	2.678562004e-01	-6.499854356e-04	1.897184415e-11
-6.000000000e-03	2.678562074e-01	-6.472721113e-04	4.391708106e-11
-6.100000000e-03	2.678562142e-01	-6.445587867e-04	4.637412980e-11
-6.200000000e-03	2.678562210e-01	-6.418454619e-04	1.222793854e-11
-6.300000000e-03	2.678562277e-01	-6.391321369e-04	1.526425825e-11
-6.400000000e-03	2.678562343e-01	-6.364188116e-04	2.349234027e-11
-6.500000000e-03	2.678562408e-01	-6.337054861e-04	2.785820361e-11
-6.600000000e-03	2.678562472e-01	-6.309921603e-04	5.046800659e-11
-6.700000000e-03	2.678562536e-01	-6.282788344e-04	4.771605814e-12
-6.800000000e-03	2.678562599e-01	-6.255655082e-04	1.508143211e-11
-6.900000000e-03	2.678562661e-01	-6.228521818e-04	1.607662855e-11
-7.000000000e-03	2.678562722e-01	-6.201388552e-04	1.948573335e-11
-7.100000000e-03	2.678562782e-01	-6.174255284e-04	5.563289141e-12
-7.200000000e-03	2.678562841e-01	-6.147122014e-04	2.053232311e-11
-7.300000000e-03	2.678562900e-01	-6.119988742e-04	1.684850579e-11
-7.400000000e-03	2.678562958e-01	-6.092855468e-04	1.848844010e-11
-7.500000000e-03	2.678563015e-01	-6.065722193e-04	4.264289390e-11
-7.600000000e-03	2.678563071e-01	-6.038588915e-04	4.832066696e-12
-7.700000000e-03	2.678563126e-01	-6.011455635e-04	7.951332791e-12
-7.800000000e-03	2.678563181e-01	-5.984322354e-04	2.192207768e-11
-7.900000000e-03	2.678563234e-01	-5.957189071e-04	1.166663278e-11
-8.000000000e-03	2.678563287e-01	-5.930055787e-04	1.521946505e-11
-8.100000000e-03	2.678563339e-01	-5.902922501e-04	1.392406412e-11
-8.200000000e-03	2.678563390e-01	-5.875789213e-04	2.970259679e-11
-8.300000000e-03	2.678563441e-01	-5.848655923e-04	2.521782939e-11
-8.400000000e-03	2.678563490e-01	-5.821522633e-04	6.151719879e-12
-8.500000000e-03	2.678563539e-01	-5.794389340e-04	1.256496098e-11
-8.600000000e-03	2.678563587e-01	-5.767256046e-04	8.934489565e-12
-8.700000000e-03	2.678563634e-01	-5.740122751e-04	9.572642979e-12
-8.800000000e-03	2.678563680e-01	-5.712989455e-04	1.826740010e-11
-8.900000000e-03	2.678563726e-01	-5.685856157e-04	1.718664122e-11
-9.000000000e-03	2.678563770e-01	-5.658722858e-04	1.110965760e-11
-9.100000000e-03	2.678563814e-01	-5.631589558e-04	8.000245488e-12
-9.200000000e-03	2.678563857e-01	-5.604456256e-04	1.918590694e-11
-9.300000000e-03	2.678563899e-01	-5.577322954e-04	9.441996503e-12
-9.400000000e-03	2.678563940e-01	-5.550189650e-04	3.553697782e-12
-9.500000000e-03	2.678563981e-01	-5.523056345e-04	2.206511663e-12
-9.600000000e-03	2.678564021e-01	-5.495923040e-04	2.051862213e-11
-9.700000000e-03	2.678564059e-01	-5.468789733e-04	2.554222843e-11
-9.800000000e-03	2.678564097e-01	-5.441656425e-04	5.834420276e-12
-9.900000000e-03	2.678564135e-01	-5.414523117e-04	5.874882295e-11
-1.000000000e-02	2.678564171e-01	-5.387389808e-04	1.009386809e-11
-1.010000000e-02	2.678564206e-01	-5.360256498e-04	1.661576016e-11
-1.020000000e-02	2.678564241e-01	-5.333123187e-04	1.411883005e-11
-1.030000000e-02	2.678564275e-01	-5.305989875e-04	1.829479975e-11
-1.040000000e-02	2.678564308e-01	-5.278856563e-04	1.320966960e-11
-1.050000000e-02	2.678564340e-01	-5.251723250e-04	3.245093861e-11
-1.060000000e-02	2.678564372e-01	-5.224589937e-04	1.793288623e-11
-1.070000000e-02	2.678564402e-01	-5.197456623e-04	1.815377757e-11
-1.080000000e-02	2.678564432e-01	-5.170323308e-04	1.236918660e-11
-1.090000000e-02	2.678564461e-01	-5.143189993e-04	5.660239950e-12
-1.100000000e-02	2.678564489e-01	-5.116056678e-04	1.064939292e-11
-1.110000000e-02	2.678564516e-01	-5.088923362e-04	1.124449752e-11
-1.120000000e-02	2.678564543e-01	-5.061790046e-04	1.651419249e-11
-1.130000000e-02	2.678564569e-01	-5.034656729e-04	1.624549314e-11
-1.140000000e-02	2.678564593e-01	-5.007523413e-04	1.048466429e-10
-1.150000000e-02	2.678564617e-01	-4.980390096e-04	2.566425659e-11
-1.160000000e-02	2.678564641e-01	-4.953256779e-04	2.126652869e-11
-1.170000000e-02	2.678564663e-01	-4.926123461e-04	1.211948605e-10
-1.180000000e-02	2.678564684e-01	-4.898990144e-04	1.133074959e-11
-1.190000000e-02	2.678564705e-01	-4.871856827e-04	8.154065398e-12
-1.200000000e-02	2.678564725e-01	-4.844723509e-04	5.231069265e-11
-1.210000000e-02	2.678564744e-01	-4.817590192e-04	9.618601707e-12
-1.220000000e-02	2.678564762e-01	-4.790456875e-04	9.859079781e-12
-1.230000000e-02	2.678564780e-01	-4.763323558e-04	1.389579471e-11
-1.240000000e-02	2.678564796e-01	-4.736190241e-04	1.230699484e-11
-1.250000000e-02	2.678564812e-01	-4.709056924e-04	2.698230315e-11
-1.260000000e-02	2.678564827e-01	-4.681923608e-04	2.814596867e-11
-1.270000000e-02	2.678564841e-01	-4.654790291e-04	1.799351754e-11
-1.280000000e-02	2.678564854e-01	-4.627656975e-04	1.249834462e-11
-1.290000000e-02	2.678564867e-01	-4.600523660e-04	3.030561688e-11
-1.300000000e-02	2.678564878e-01	-4.573390345e-04	9.798814096e-12
-1.310000000e-02	2.678564889e-01	-4.546257030e-04	1.224939972e-11
-1.320000000e-02	2.678564899e-01	-4.519123716e-04	8.115072172e-12
-1.330000000e-02	2.678564908e-01	-4.491990402e-04	2.114289084e-11
-1.340000000e-02	2.678564917e-01	-4.464857089e-04	1.770638984e-11
-1.350000000e-02	2.678564924e-01	-4.437723777e-04	1.488033120e-10
-1.360000000e-02	2.678564931e-01	-4.410590465e-04	1.582005849e-11
-1.370000000e-02	2.678564937e-01	-4.383457154e-04	2.453768663e-11
-1.380000000e-02	2.678564942e-01	-4.356323844e-04	1.561496518e-11
-1.390000000e-02	2.678564946e-01	-4.329190534e-04	1.473336083e-11
-1.400000000e-02	2.678564949e-01	-4.302057226e-04	3.297388874e-11
-1.410000000e-02	2.678564952e-01	-4.274923918e-04	1.172821309e-11
-1.420000000e-02	2.678564954e-01	-4.247790611e-04	1.382067778e-11
-1.430000000e-02	2.678564954e-01	-4.220657305e-04	5.116164439e-12
-1.440000000e-02	2.678564955e-01	-4.193524000e-04	1.115911448e-11
-1.450000000e-02	2.678564954e-01	-4.166390696e-04	1.376582772e-11
-1.460000000e-02	2.678564952e-01	-4.139257393e-04	3.263065336e-11
-1.470000000e-02	2.678564950e-01	-4.112124091e-04	2.655387800e-11
-1.480000000e-02	2.678564947e-01	-4.084990791e-04	7.874273764e-12
-1.490000000e-02	2.678564943e-01	-4.057857492e-04	7.500804206e-12
-1.500000000e-02	2.678564938e-01	-4.030724193e-04	1.423890986e-11
-1.510000000e-02	2.678564932e-01	-4.003590897e-04	5.301080464e-12
-1.520000000e-02	2.678564926e-01	-3.976457601e-04	5.321531471e-12
-1.530000000e-02	2.678564918e-01	-3.949324307e-04	1.546794426e-11
-1.540000000e-02	2.678564910e-01	-3.922191014e-04	1.032231377e-11
-1.550000000e-02	2.678564901e-01	-3.895057723e-04	1.049104839e-11
-1.560000000e-02	2.678564891e-01	-3.867924433e-04	9.705692323e-12
-1.570000000e-02	2.678564881e-01	-3.840791145e-04	1.128009198e-11
-1.580000000e-02	2.678564869e-01	-3.813657858e-04	4.797222395e-12
-1.590000000e-02	2.678564857e-01	-3.786524573e-04	1.824577077e-11
-1.600000000e-02	2.678564844e-01	-3.759391290e-04	1.436628007e-11
-1.610000000e-02	2.678564830e-01	-3.732258008e-04	1.161455248e-11
-1.620000000e-02	2.678564815e-01	-3.705124728e-04	8.975755602e-12
-1.630000000e-02	2.678564800e-01	-3.677991450e-04	1.373716413e-11
-1.640000000e-02	2.678564783e-01	-3.650858174e-04	2.446675782e-11
-1.650000000e-02	2.678564766e-01	-3.623724900e-04	2.423290574e-11
-1.660000000e-02	2.678564748e-01	-3.596591627e-04	1.035045794e-11
-1.670000000e-02	2.678564729e-01	-3.569458357e-04	4.624109742e-12
-1.680000000e-02	2.678564709e-01	-3.542325088e-04	1.321222487e-11
-1.690000000e-02	2.678564689e-01	-3.515191821e-04	1.089912240e-11
-1.700000000e-02	2.678564668e-01	-3.488058557e-04	9.738977618e-12
-1.710000000e-02	2.678564645e-01	-3.460925295e-04	5.341005083e-12
-1.720000000e-02	2.678564622e-01	-3.433792035e-04	9.119356034e-12
-1.730000000e-02	2.678564599e-01	-3.406658777e-04	1.422107333e-11
-1.740000000e-02	2.678564574e-01	-3.379525521e-04	8.404542830e-12
-1.750000000e-02	2.678564549e-01	-3.352392268e-04	1.387200158e-11
-1.760000000e-02	2.678564522e-01	-3.325259016e-04	8.823957435e-12
-1.770000000e-02	2.678564495e-01	-3.298125768e-04	9.546754057e-12
-1.780000000e-02	2.678564467e-01	-3.270992521e-04	4.215501456e-12
-1.790000000e-02	2.678564438e-01	-3.243859278e-04	2.270577858e-12
-1.800000000e-02	2.678564409e-01	-3.216726036e-04	7.895026853e-12
-1.810000000e-02	2.678564378e-01	-3.189592797e-04	4.074342906e-11
-1.820000000e-02	2.678564347e-01	-3.162459561e-04	2.476365839e-11
-1.830000000e-02	2.678564315e-01	-3.135326328e-04	9.231801904e-11
-1.840000000e-02	2.678564282e-01	-3.108193097e-04	5.784880145e-12
-1.850000000e-02	2.678564249e-01	-3.081059869e-04	2.175701159e-11
-1.860000000e-02	2.678564214e-01	-3.053926643e-04	2.040612249e-11
-1.870000000e-02	2.678564179e-01	-3.026793420e-04	8.770621376e-12
-1.880000000e-02	2.678564143e-01	-2.999660201e-04	1.737791184e-11
-1.890000000e-02	2.678564106e-01	-2.972526984e-04	6.402310437e-11
-1.900000000e-02	2.678564068e-01	-2.945393769e-04	1.548407081e-11
-1.910000000e-02	2.678564029e-01	-2.918260558e-04	2.335523922e-11
-1.920000000e-02	2.678563990e-01	-2.891127350e-04	1.024683038e-11
-1.930000000e-02	2.678563949e-01	-2.863994145e-04	8.769920945e-12
-1.940000000e-02	2.678563908e-01	-2.836860943e-04	1.288536642e-11
-1.950000000e-02	2.678563866e-01	-2.809727744e-04	2.934773655e-11
-1.960000000e-02	2.678563823e-01	-2.782594549e-04	5.332935200e-12
-1.970000000e-02	2.678563780e-01	-2.755461356e-04	1.744955596e-11
-1.980000000e-02	2.678563735e-01	-2.728328167e-04	1.213794411e-11
-1.990000000e-02	2.678563690e-01	-2.701194981e-04	1.601384067e-11
-2.000000000e-02	2.678563644e-01	-2.674061798e-04	1.182727789e-11
-2.010000000e-02	2.678563597e-01	-2.646928619e-04	1.992674517e-11
-2.020000000e-02	2.678563549e-01	-2.619795443e-04	2.361834840e-10
-2.030000000e-02	2.678563501e-01	-2.592662271e-04	2.071326415e-11
-2.040000000e-02	2.678563452e-01	-2.565529102e-04	4.487941636e-11
-2.050000000e-02	2.678563401e-01	-2.538395937e-04	4.142361050e-11
-2.060000000e-02	2.678563350e-01	-2.511262775e-04	2.737081808e-11
-2.070000000e-02	2.678563299e-01	-2.484129617e-04	8.137706192e-12
-2.080000000e-02	2.678563246e-01	-2.456996462e-04	6.836314270e-12
-2.090000000e-02	2.678563192e-01	-2.429863311e-04	1.248293399e-11
-2.100000000e-02	2.678563138e-01	-2.402730164e-04	3.449235523e-11
-2.110000000e-02	2.678563083e-01	-2.375597021e-04	1.164856039e-11
-2.120000000e-02	2.678563027e-01	-2.348463882e-04	2.567734544e-11
-2.130000000e-02	2.678562970e-01	-2.321330746e-04	1.023912958e-11
-2.140000000e-02	2.678562913e-01	-2.294197615e-04	1.745793318e-11
-2.150000000e-02	2.678562854e-01	-2.267064487e-04	1.301315688e-11
-2.160000000e-02	2.678562795e-01	-2.239931363e-04	1.425698046e-11
-2.170000000e-02	2.678562735e-01	-2.212798244e-04	1.040355526e-11
-2.180000000e-02	2.678562674e-01	-2.185665128e-04	7.282374963e-12
-2.190000000e-02	2.678562612e-01	-2.158532017e-04	1.009126406e-11
-2.200000000e-02	2.678562550e-01	-2.131398910e-04	5.176805521e-11
-2.210000000e-02	2.678562486e-01	-2.104265807e-04	1.157846981e-11
-2.220000000e-02	2.678562422e-01	-2.077132708e-04	2.313832043e-11
-2.230000000e-02	2.678562357e-01	-2.049999613e-04	7.839050558e-12
-2.240000000e-02	2.678562291e-01	-2.022866523e-04	1.039228575e-11
-2.250000000e-02	2.678562225e-01	-1.995733437e-04	4.640511920e-11
-2.260000000e-02	2.678562157e-01	-1.968600356e-04	1.552417320e-11
-2.270000000e-02	2.678562089e-01	-1.941467279e-04	1.189950094e-11
-2.280000000e-02	2.678562020e-01	-1.914334207e-04	1.689333689e-11
-2.290000000e-02	2.678561950e-01	-1.887201139e-04	1.429204848e-11
-2.300000000e-02	2.678561879e-01	-1.860068076e-04	2.201621222e-11
-2.310000000e-02	2.678561807e-01	-1.832935017e-04	5.799808398e-11
-2.320000000e-02	2.678561735e-01	-1.805801963e-04	5.766903843e-12
-2.330000000e-02	2.678561661e-01	-1.778668914e-04	1.593488733e-11
-2.340000000e-02	2.678561587e-01	-1.751535869e-04	6.944102900e-12
-2.350000000e-02	2.678561512e-01	-1.724402829e-04	7.449977277e-12
-2.360000000e-02	2.678561437e-01	-1.697269794e-04	8.045500467e-12
-2.370000000e-02	2.678561360e-01	-1.670136764e-04	1.160614664e-11
-2.380000000e-02	2.678561283e-01	-1.643003739e-04	8.891622595e-12
-2.390000000e-02	2.678561205e-01	-1.615870719e-04	1.451406606e-11
-2.400000000e-02	2.678561125e-01	-1.588737704e-04	1.379589068e-11
-2.410000000e-02	2.678561046e-01	-1.561604694e-04	1.996433204e-11
-2.420000000e-02	2.678560965e-01	-1.534471689e-04	1.670557763e-11
-2.430000000e-02	2.678560883e-01	-1.507338689e-04	1.764132857e-11
-2.440000000e-02	2.678560801e-01	-1.480205694e-04	8.070802083e-12
-2.450000000e-02	2.678560718e-01	-1.453072705e-04	2.632305389e-11
-2.460000000e-02	2.678560634e-01	-1.425939720e-04	8.117489221e-12
-2.470000000e-02	2.678560549e-01	-1.398806741e-04	9.621535055e-12
-2.480000000e-02	2.678560464e-01	-1.371673768e-04	2.279723951e-10
-2.490000000e-02	2.678560377e-01	-1.344540799e-04	2.981613086e-11
-2.500000000e-02	2.678560290e-01	-1.317407837e-04	8.568450658e-12
-2.510000000e-02	2.678560202e-01	-1.290274879e-04	8.229701401e-12
-2.520000000e-02	2.678560113e-01	-1.263141927e-04	2.479640520e-11
-2.530000000e-02	2.678560023e-01	-1.236008981e-04	1.884362755e-11
-2.540000000e-02	2.678559932e-01	-1.208876040e-04	6.450250243e-11
-2.550000000e-02	2.678559841e-01	-1.181743105e-04	8.822317110e-12
-2.560000000e-02	2.678559749e-01	-1.154610176e-04	3.321269197e-12
-2.570000000e-02	2.678559656e-01	-1.127477252e-04	5.488929493e-12
-2.580000000e-02	2.678559562e-01	-1.100344334e-04	1.862750426e-11
-2.590000000e-02	2.678559467e-01	-1.073211422e-04	1.790292642e-11
-2.600000000e-02	2.678559372e-01	-1.046078515e-04	4.727303838e-12
-2.610000000e-02	2.678559275e-01	-1.018945615e-04	3.467090569e-11
-2.620000000e-02	2.678559178e-01	-9.918127200e-05	5.961462307e-12
-2.630000000e-02	2.678559080e-01	-9.646798314e-05	1.849282633e-11
-2.640000000e-02	2.678558981e-01	-9.375469488e-05	9.964671299e-12
-2.650000000e-02	2.678558882e-01	-9.104140722e-05	9.764980375e-12
-2.660000000e-02	2.678558781e-01	-8.832812017e-05	1.268299233e-11
-2.670000000e-02	2.678558680e-01	-8.561483373e-05	1.379070280e-11
-2.680000000e-02	2.678558578e-01	-8.290154791e-05	8.360348433e-12
-2.690000000e-02	2.678558475e-01	-8.018826271e-05	9.104010778e-12
-2.700000000e-02	2.678558371e-01	-7.747497813e-05	2.501858973e-11
-2.710000000e-02	2.678558267e-01	-7.476169419e-05	1.540452262e-11
-2.720000000e-02	2.678558161e-01	-7.204841087e-05	1.572686793e-11
-2.730000000e-02	2.678558055e-01	-6.933512820e-05	1.799960813e-11
-2.740000000e-02	2.678557948e-01	-6.662184617e-05	6.730023454e-12
-2.750000000e-02	2.678557840e-01	-6.390856478e-05	6.588201923e-12
-2.760000000e-02	2.678557731e-01	-6.119528404e-05	1.284207728e-11
-2.770000000e-02	2.678557622e-01	-5.848200396e-05	9.387225515e-12
-2.780000000e-02	2.678557511e-01	-5.576872454e-05	2.096056007e-11
-2.790000000e-02	2.678557400e-01	-5.305544577e-05	1.019435663e-11
-2.800000000e-02	2.678557288e-01	-5.034216768e-05	1.010967269e-11
-2.810000000e-02	2.678557175e-01	-4.762889026e-05	1.056690146e-11
-2.820000000e-02	2.678557062e-01	-4.491561351e-05	7.310686232e-12
-2.830000000e-02	2.678556947e-01	-4.220233744e-05	3.280509585e-11
-2.840000000e-02	2.678556832e-01	-3.948906206e-05	3.076464590e-11
-2.850000000e-02	2.678556716e-01	-3.677578736e-05	2.519439221e-11
-2.860000000e-02	2.678556599e-01	-3.406251335e-05	3.277465633e-11
-2.870000000e-02	2.678556481e-01	-3.134924005e-05	6.137741983e-11
-2.880000000e-02	2.678556362e-01	-2.863596744e-05	1.159196946e-11
-2.890000000e-02	2.678556243e-01	-2.592269553e-05	6.958083612e-12
-2.900000000e-02	2.678556123e-01	-2.320942434e-05	4.769356710e-12
-2.910000000e-02	2.678556002e-01	-2.049615385e-05	4.816508689e-12
-2.920000000e-02	2.678555880e-01	-1.778288409e-05	6.457106069e-11
-2.930000000e-02	2.678555757e-01	-1.506961504e-05	1.818835122e-11
-2.940000000e-02	2.678555634e-01	-1.235634672e-05	2.642492041e-11
-2.950000000e-02	2.678555509e-01	-9.643079130e-06	1.592215590e-11
-2.960000000e-02	2.678555384e-01	-6.929812273e-06	1.082673832e-11
-2.970000000e-02	2.678555258e-01	-4.216546154e-06	8.116370982e-12
-2.980000000e-02	2.678555131e-01	-1.503280777e-06	1.268576414e-11
-2.990000000e-02	2.678555003e-01	1.209983854e-06	6.228520138e-12
-3.000000000e-02	2.678554875e-01	3.923247735e-06	1.181063810e-11
