# Im(epsi1)     Re(omega/c)      Im(omega/c)      Eq(det).Opt det CON kz, R=0.5 \mum, mu_c=0.3, Re(epsi1)=3.90solve_det_conkz_vs_kz.py
0.000000000e+00	2.678628562e-01	-8.101024625e-04	1.026361357e-11
-1.000000000e-04	2.678628680e-01	-8.073891029e-04	1.483451415e-11
-2.000000000e-04	2.678628798e-01	-8.046757427e-04	1.698396898e-11
-3.000000000e-04	2.678628914e-01	-8.019623821e-04	2.674596171e-12
-4.000000000e-04	2.678629029e-01	-7.992490209e-04	1.660089707e-11
-5.000000000e-04	2.678629144e-01	-7.965356593e-04	3.913340599e-12
-6.000000000e-04	2.678629258e-01	-7.938222972e-04	1.170873799e-11
-7.000000000e-04	2.678629371e-01	-7.911089347e-04	3.120662295e-11
-8.000000000e-04	2.678629483e-01	-7.883955716e-04	1.586095035e-11
-9.000000000e-04	2.678629594e-01	-7.856822081e-04	7.575044002e-12
-1.000000000e-03	2.678629705e-01	-7.829688442e-04	1.346178341e-11
-1.100000000e-03	2.678629815e-01	-7.802554798e-04	2.695525184e-11
-1.200000000e-03	2.678629924e-01	-7.775421149e-04	9.074018679e-12
-1.300000000e-03	2.678630032e-01	-7.748287496e-04	2.838578321e-11
-1.400000000e-03	2.678630139e-01	-7.721153839e-04	1.530752488e-10
-1.500000000e-03	2.678630245e-01	-7.694020177e-04	1.792940188e-11
-1.600000000e-03	2.678630351e-01	-7.666886511e-04	2.527673290e-11
-1.700000000e-03	2.678630456e-01	-7.639752840e-04	1.229828356e-11
-1.800000000e-03	2.678630560e-01	-7.612619165e-04	1.227782234e-11
-1.900000000e-03	2.678630663e-01	-7.585485486e-04	1.307222623e-11
-2.000000000e-03	2.678630765e-01	-7.558351803e-04	5.237018824e-12
-2.100000000e-03	2.678630867e-01	-7.531218116e-04	5.466161906e-12
-2.200000000e-03	2.678630967e-01	-7.504084424e-04	1.809576734e-11
-2.300000000e-03	2.678631067e-01	-7.476950729e-04	1.880541969e-11
-2.400000000e-03	2.678631166e-01	-7.449817029e-04	1.447881936e-10
-2.500000000e-03	2.678631264e-01	-7.422683326e-04	2.356796149e-11
-2.600000000e-03	2.678631362e-01	-7.395549619e-04	1.100451850e-13
-2.700000000e-03	2.678631458e-01	-7.368415907e-04	2.362797956e-11
-2.800000000e-03	2.678631554e-01	-7.341282192e-04	6.004422090e-12
-2.900000000e-03	2.678631649e-01	-7.314148473e-04	2.435625463e-11
-3.000000000e-03	2.678631743e-01	-7.287014751e-04	1.705733784e-11
-3.100000000e-03	2.678631836e-01	-7.259881024e-04	2.395827518e-11
-3.200000000e-03	2.678631928e-01	-7.232747294e-04	8.466144453e-12
-3.300000000e-03	2.678632020e-01	-7.205613561e-04	1.229998861e-11
-3.400000000e-03	2.678632111e-01	-7.178479823e-04	8.638688658e-12
-3.500000000e-03	2.678632201e-01	-7.151346082e-04	9.809028009e-12
-3.600000000e-03	2.678632290e-01	-7.124212338e-04	2.550673124e-11
-3.700000000e-03	2.678632378e-01	-7.097078590e-04	7.830150541e-12
-3.800000000e-03	2.678632466e-01	-7.069944839e-04	8.579576292e-12
-3.900000000e-03	2.678632552e-01	-7.042811084e-04	3.017602442e-12
-4.000000000e-03	2.678632638e-01	-7.015677327e-04	3.376218903e-11
-4.100000000e-03	2.678632723e-01	-6.988543565e-04	2.223834812e-11
-4.200000000e-03	2.678632807e-01	-6.961409801e-04	2.476183423e-11
-4.300000000e-03	2.678632891e-01	-6.934276033e-04	1.475827987e-11
-4.400000000e-03	2.678632973e-01	-6.907142262e-04	9.552258930e-12
-4.500000000e-03	2.678633055e-01	-6.880008488e-04	7.661481718e-12
-4.600000000e-03	2.678633136e-01	-6.852874711e-04	1.154529663e-11
-4.700000000e-03	2.678633216e-01	-6.825740931e-04	3.462166782e-11
-4.800000000e-03	2.678633295e-01	-6.798607147e-04	3.621011942e-11
-4.900000000e-03	2.678633373e-01	-6.771473361e-04	5.691660107e-12
-5.000000000e-03	2.678633451e-01	-6.744339572e-04	2.956876703e-11
-5.100000000e-03	2.678633528e-01	-6.717205780e-04	5.848577524e-12
-5.200000000e-03	2.678633604e-01	-6.690071985e-04	1.736036397e-11
-5.300000000e-03	2.678633679e-01	-6.662938188e-04	4.230130623e-11
-5.400000000e-03	2.678633753e-01	-6.635804387e-04	1.362280004e-11
-5.500000000e-03	2.678633826e-01	-6.608670584e-04	2.460119346e-11
-5.600000000e-03	2.678633899e-01	-6.581536778e-04	1.644713170e-11
-5.700000000e-03	2.678633971e-01	-6.554402970e-04	2.134367923e-11
-5.800000000e-03	2.678634042e-01	-6.527269159e-04	3.539150971e-11
-5.900000000e-03	2.678634112e-01	-6.500135345e-04	1.189843711e-11
-6.000000000e-03	2.678634181e-01	-6.473001529e-04	4.311542757e-11
-6.100000000e-03	2.678634250e-01	-6.445867711e-04	3.947570744e-11
-6.200000000e-03	2.678634317e-01	-6.418733890e-04	3.740320369e-12
-6.300000000e-03	2.678634384e-01	-6.391600067e-04	9.261142578e-12
-6.400000000e-03	2.678634450e-01	-6.364466241e-04	2.404434590e-11
-6.500000000e-03	2.678634516e-01	-6.337332413e-04	1.098737432e-11
-6.600000000e-03	2.678634580e-01	-6.310198583e-04	1.658971963e-11
-6.700000000e-03	2.678634643e-01	-6.283064750e-04	1.366670311e-11
-6.800000000e-03	2.678634706e-01	-6.255930916e-04	3.223347645e-11
-6.900000000e-03	2.678634768e-01	-6.228797079e-04	1.450502546e-11
-7.000000000e-03	2.678634829e-01	-6.201663240e-04	1.196934660e-11
-7.100000000e-03	2.678634889e-01	-6.174529399e-04	1.060682984e-11
-7.200000000e-03	2.678634949e-01	-6.147395556e-04	8.989156090e-12
-7.300000000e-03	2.678635008e-01	-6.120261711e-04	1.220985201e-11
-7.400000000e-03	2.678635065e-01	-6.093127864e-04	7.020412489e-12
-7.500000000e-03	2.678635122e-01	-6.065994016e-04	1.375570248e-11
-7.600000000e-03	2.678635178e-01	-6.038860165e-04	4.215944284e-11
-7.700000000e-03	2.678635234e-01	-6.011726313e-04	8.772265368e-12
-7.800000000e-03	2.678635288e-01	-5.984592459e-04	1.248174588e-11
-7.900000000e-03	2.678635342e-01	-5.957458603e-04	2.865548048e-11
-8.000000000e-03	2.678635395e-01	-5.930324746e-04	1.202586922e-11
-8.100000000e-03	2.678635447e-01	-5.903190886e-04	3.043103705e-11
-8.200000000e-03	2.678635498e-01	-5.876057026e-04	1.773294853e-11
-8.300000000e-03	2.678635548e-01	-5.848923163e-04	1.488779448e-11
-8.400000000e-03	2.678635598e-01	-5.821789300e-04	8.491290067e-12
-8.500000000e-03	2.678635647e-01	-5.794655435e-04	7.671351631e-12
-8.600000000e-03	2.678635695e-01	-5.767521568e-04	2.789145176e-11
-8.700000000e-03	2.678635742e-01	-5.740387700e-04	5.587047685e-12
-8.800000000e-03	2.678635788e-01	-5.713253830e-04	1.682884214e-11
-8.900000000e-03	2.678635833e-01	-5.686119960e-04	4.857304343e-11
-9.000000000e-03	2.678635878e-01	-5.658986088e-04	1.814182492e-11
-9.100000000e-03	2.678635922e-01	-5.631852215e-04	9.254709166e-12
-9.200000000e-03	2.678635965e-01	-5.604718340e-04	1.255897256e-11
-9.300000000e-03	2.678636007e-01	-5.577584465e-04	4.098526400e-11
-9.400000000e-03	2.678636048e-01	-5.550450588e-04	7.140964365e-12
-9.500000000e-03	2.678636089e-01	-5.523316711e-04	1.024738395e-11
-9.600000000e-03	2.678636128e-01	-5.496182832e-04	5.391860839e-12
-9.700000000e-03	2.678636167e-01	-5.469048953e-04	1.208328949e-11
-9.800000000e-03	2.678636205e-01	-5.441915072e-04	1.544233666e-11
-9.900000000e-03	2.678636242e-01	-5.414781191e-04	4.887447305e-12
-1.000000000e-02	2.678636279e-01	-5.387647309e-04	8.422545666e-12
-1.010000000e-02	2.678636314e-01	-5.360513426e-04	1.812842546e-11
-1.020000000e-02	2.678636349e-01	-5.333379542e-04	1.039194271e-11
-1.030000000e-02	2.678636383e-01	-5.306245657e-04	3.045666954e-12
-1.040000000e-02	2.678636416e-01	-5.279111772e-04	3.572736978e-12
-1.050000000e-02	2.678636448e-01	-5.251977886e-04	5.881732095e-12
-1.060000000e-02	2.678636479e-01	-5.224844000e-04	1.578813180e-11
-1.070000000e-02	2.678636510e-01	-5.197710113e-04	1.355552213e-11
-1.080000000e-02	2.678636540e-01	-5.170576226e-04	9.169133862e-12
-1.090000000e-02	2.678636569e-01	-5.143442338e-04	1.763719641e-11
-1.100000000e-02	2.678636597e-01	-5.116308450e-04	1.318583920e-11
-1.110000000e-02	2.678636624e-01	-5.089174561e-04	5.140680318e-11
-1.120000000e-02	2.678636651e-01	-5.062040672e-04	7.762627727e-12
-1.130000000e-02	2.678636676e-01	-5.034906782e-04	1.138145458e-11
-1.140000000e-02	2.678636701e-01	-5.007772893e-04	2.252218815e-11
-1.150000000e-02	2.678636725e-01	-4.980639003e-04	8.076636688e-12
-1.160000000e-02	2.678636748e-01	-4.953505113e-04	1.952370102e-11
-1.170000000e-02	2.678636771e-01	-4.926371223e-04	1.508067862e-11
-1.180000000e-02	2.678636792e-01	-4.899237333e-04	1.787293648e-11
-1.190000000e-02	2.678636813e-01	-4.872103443e-04	4.819206789e-12
-1.200000000e-02	2.678636833e-01	-4.844969552e-04	1.035795447e-11
-1.210000000e-02	2.678636852e-01	-4.817835662e-04	1.463590547e-11
-1.220000000e-02	2.678636870e-01	-4.790701772e-04	1.291922587e-11
-1.230000000e-02	2.678636887e-01	-4.763567882e-04	3.881490499e-12
-1.240000000e-02	2.678636904e-01	-4.736433992e-04	2.980118366e-12
-1.250000000e-02	2.678636920e-01	-4.709300103e-04	2.519800539e-11
-1.260000000e-02	2.678636935e-01	-4.682166213e-04	2.684621324e-11
-1.270000000e-02	2.678636949e-01	-4.655032324e-04	1.875859562e-11
-1.280000000e-02	2.678636962e-01	-4.627898435e-04	1.495150630e-11
-1.290000000e-02	2.678636975e-01	-4.600764547e-04	1.161633002e-11
-1.300000000e-02	2.678636986e-01	-4.573630659e-04	3.233348119e-12
-1.310000000e-02	2.678636997e-01	-4.546496771e-04	5.685142831e-12
-1.320000000e-02	2.678637007e-01	-4.519362884e-04	1.897146796e-11
-1.330000000e-02	2.678637016e-01	-4.492228998e-04	2.520628571e-11
-1.340000000e-02	2.678637024e-01	-4.465095112e-04	6.849957944e-12
-1.350000000e-02	2.678637032e-01	-4.437961226e-04	2.779126168e-11
-1.360000000e-02	2.678637039e-01	-4.410827342e-04	2.156047772e-11
-1.370000000e-02	2.678637045e-01	-4.383693458e-04	3.751709203e-11
-1.380000000e-02	2.678637050e-01	-4.356559575e-04	2.549503824e-12
-1.390000000e-02	2.678637054e-01	-4.329425692e-04	9.705103203e-12
-1.400000000e-02	2.678637057e-01	-4.302291811e-04	7.804911355e-12
-1.410000000e-02	2.678637060e-01	-4.275157930e-04	1.624416026e-11
-1.420000000e-02	2.678637061e-01	-4.248024050e-04	3.816809275e-11
-1.430000000e-02	2.678637062e-01	-4.220890171e-04	1.749820568e-11
-1.440000000e-02	2.678637062e-01	-4.193756293e-04	1.328143389e-11
-1.450000000e-02	2.678637062e-01	-4.166622416e-04	1.133995698e-11
-1.460000000e-02	2.678637060e-01	-4.139488541e-04	1.908801858e-11
-1.470000000e-02	2.678637058e-01	-4.112354666e-04	1.184008635e-11
-1.480000000e-02	2.678637055e-01	-4.085220793e-04	1.499400913e-11
-1.490000000e-02	2.678637051e-01	-4.058086920e-04	1.352152670e-11
-1.500000000e-02	2.678637046e-01	-4.030953049e-04	1.435257311e-11
-1.510000000e-02	2.678637040e-01	-4.003819180e-04	2.123452835e-11
-1.520000000e-02	2.678637034e-01	-3.976685311e-04	1.298179567e-11
-1.530000000e-02	2.678637026e-01	-3.949551444e-04	2.680920894e-11
-1.540000000e-02	2.678637018e-01	-3.922417579e-04	2.573243335e-11
-1.550000000e-02	2.678637009e-01	-3.895283714e-04	1.768052298e-11
-1.560000000e-02	2.678636999e-01	-3.868149852e-04	1.302229539e-11
-1.570000000e-02	2.678636989e-01	-3.841015991e-04	7.834858857e-12
-1.580000000e-02	2.678636977e-01	-3.813882131e-04	1.103351992e-11
-1.590000000e-02	2.678636965e-01	-3.786748273e-04	8.927492498e-12
-1.600000000e-02	2.678636952e-01	-3.759614417e-04	2.508058721e-11
-1.610000000e-02	2.678636938e-01	-3.732480562e-04	8.799018878e-12
-1.620000000e-02	2.678636923e-01	-3.705346709e-04	1.196618140e-11
-1.630000000e-02	2.678636908e-01	-3.678212858e-04	1.426087802e-11
-1.640000000e-02	2.678636891e-01	-3.651079009e-04	8.573114405e-12
-1.650000000e-02	2.678636874e-01	-3.623945162e-04	3.126335926e-11
-1.660000000e-02	2.678636856e-01	-3.596811316e-04	1.191653427e-11
-1.670000000e-02	2.678636837e-01	-3.569677473e-04	1.653166019e-11
-1.680000000e-02	2.678636817e-01	-3.542543632e-04	1.711568444e-11
-1.690000000e-02	2.678636797e-01	-3.515409792e-04	1.282359070e-11
-1.700000000e-02	2.678636776e-01	-3.488275955e-04	1.097282512e-11
-1.710000000e-02	2.678636753e-01	-3.461142120e-04	1.649144689e-11
-1.720000000e-02	2.678636730e-01	-3.434008286e-04	1.423651772e-11
-1.730000000e-02	2.678636707e-01	-3.406874456e-04	1.846527856e-11
-1.740000000e-02	2.678636682e-01	-3.379740627e-04	1.454093463e-11
-1.750000000e-02	2.678636657e-01	-3.352606801e-04	2.960055941e-11
-1.760000000e-02	2.678636630e-01	-3.325472977e-04	1.839532826e-11
-1.770000000e-02	2.678636603e-01	-3.298339155e-04	6.844541606e-12
-1.780000000e-02	2.678636575e-01	-3.271205336e-04	2.011362444e-11
-1.790000000e-02	2.678636546e-01	-3.244071519e-04	7.233596007e-12
-1.800000000e-02	2.678636517e-01	-3.216937705e-04	1.489939957e-11
-1.810000000e-02	2.678636486e-01	-3.189803893e-04	1.340064844e-11
-1.820000000e-02	2.678636455e-01	-3.162670084e-04	9.857874530e-12
-1.830000000e-02	2.678636423e-01	-3.135536278e-04	1.583834160e-11
-1.840000000e-02	2.678636390e-01	-3.108402474e-04	1.620439126e-11
-1.850000000e-02	2.678636357e-01	-3.081268673e-04	1.081784201e-11
-1.860000000e-02	2.678636322e-01	-3.054134874e-04	1.051407633e-11
-1.870000000e-02	2.678636287e-01	-3.027001079e-04	4.387945853e-12
-1.880000000e-02	2.678636251e-01	-2.999867286e-04	1.355113006e-11
-1.890000000e-02	2.678636214e-01	-2.972733496e-04	5.863710793e-11
-1.900000000e-02	2.678636176e-01	-2.945599709e-04	1.670481235e-12
-1.910000000e-02	2.678636137e-01	-2.918465925e-04	9.145888457e-12
-1.920000000e-02	2.678636098e-01	-2.891332144e-04	7.491320717e-12
-1.930000000e-02	2.678636057e-01	-2.864198366e-04	1.239276338e-11
-1.940000000e-02	2.678636016e-01	-2.837064591e-04	1.161791938e-11
-1.950000000e-02	2.678635974e-01	-2.809930819e-04	4.589643329e-12
-1.960000000e-02	2.678635932e-01	-2.782797051e-04	2.527236020e-11
-1.970000000e-02	2.678635888e-01	-2.755663285e-04	1.763424433e-11
-1.980000000e-02	2.678635844e-01	-2.728529523e-04	5.248704171e-12
-1.990000000e-02	2.678635798e-01	-2.701395764e-04	2.769382587e-11
-2.000000000e-02	2.678635752e-01	-2.674262009e-04	9.068764673e-12
-2.010000000e-02	2.678635705e-01	-2.647128256e-04	4.456186344e-11
-2.020000000e-02	2.678635658e-01	-2.619994508e-04	2.628427471e-11
-2.030000000e-02	2.678635609e-01	-2.592860762e-04	7.350455562e-12
-2.040000000e-02	2.678635560e-01	-2.565727021e-04	1.157643967e-11
-2.050000000e-02	2.678635510e-01	-2.538593282e-04	1.143407491e-11
-2.060000000e-02	2.678635459e-01	-2.511459548e-04	9.321467614e-12
-2.070000000e-02	2.678635407e-01	-2.484325817e-04	1.621184535e-11
-2.080000000e-02	2.678635354e-01	-2.457192089e-04	1.030572467e-11
-2.090000000e-02	2.678635301e-01	-2.430058366e-04	1.800406249e-11
-2.100000000e-02	2.678635246e-01	-2.402924646e-04	4.102728876e-11
-2.110000000e-02	2.678635191e-01	-2.375790929e-04	2.556995727e-12
-2.120000000e-02	2.678635135e-01	-2.348657217e-04	1.286949396e-11
-2.130000000e-02	2.678635078e-01	-2.321523509e-04	3.742831473e-11
-2.140000000e-02	2.678635021e-01	-2.294389804e-04	1.661546998e-11
-2.150000000e-02	2.678634962e-01	-2.267256104e-04	3.370149518e-11
-2.160000000e-02	2.678634903e-01	-2.240122407e-04	5.699595445e-11
-2.170000000e-02	2.678634843e-01	-2.212988715e-04	1.124040288e-11
-2.180000000e-02	2.678634782e-01	-2.185855026e-04	1.637862326e-10
-2.190000000e-02	2.678634720e-01	-2.158721342e-04	1.832040887e-12
-2.200000000e-02	2.678634658e-01	-2.131587662e-04	1.896770797e-12
-2.210000000e-02	2.678634594e-01	-2.104453986e-04	1.266048146e-12
-2.220000000e-02	2.678634530e-01	-2.077320314e-04	1.672490429e-11
-2.230000000e-02	2.678634465e-01	-2.050186647e-04	5.168476179e-11
-2.240000000e-02	2.678634399e-01	-2.023052984e-04	1.308503982e-12
-2.250000000e-02	2.678634333e-01	-1.995919325e-04	1.249697998e-11
-2.260000000e-02	2.678634265e-01	-1.968785671e-04	1.133561879e-11
-2.270000000e-02	2.678634197e-01	-1.941652021e-04	1.467741672e-09
-2.280000000e-02	2.678634128e-01	-1.914518375e-04	8.692554979e-12
-2.290000000e-02	2.678634058e-01	-1.887384735e-04	1.832857184e-11
-2.300000000e-02	2.678633987e-01	-1.860251098e-04	6.502934792e-12
-2.310000000e-02	2.678633915e-01	-1.833117467e-04	1.038982550e-11
-2.320000000e-02	2.678633843e-01	-1.805983840e-04	9.404284141e-11
-2.330000000e-02	2.678633770e-01	-1.778850218e-04	1.345197065e-11
-2.340000000e-02	2.678633696e-01	-1.751716600e-04	1.529362565e-11
-2.350000000e-02	2.678633621e-01	-1.724582988e-04	1.044990401e-11
-2.360000000e-02	2.678633545e-01	-1.697449380e-04	5.394843953e-12
-2.370000000e-02	2.678633468e-01	-1.670315777e-04	1.272609268e-11
-2.380000000e-02	2.678633391e-01	-1.643182179e-04	5.965218997e-12
-2.390000000e-02	2.678633313e-01	-1.616048586e-04	2.102949948e-11
-2.400000000e-02	2.678633234e-01	-1.588914998e-04	1.131653514e-11
-2.410000000e-02	2.678633154e-01	-1.561781415e-04	1.855300940e-11
-2.420000000e-02	2.678633073e-01	-1.534647837e-04	1.374320381e-11
-2.430000000e-02	2.678632992e-01	-1.507514264e-04	9.780403278e-12
-2.440000000e-02	2.678632909e-01	-1.480380696e-04	1.488535695e-11
-2.450000000e-02	2.678632826e-01	-1.453247134e-04	1.404432193e-11
-2.460000000e-02	2.678632742e-01	-1.426113577e-04	4.678469837e-12
-2.470000000e-02	2.678632657e-01	-1.398980025e-04	2.236173104e-11
-2.480000000e-02	2.678632572e-01	-1.371846478e-04	1.756217131e-11
-2.490000000e-02	2.678632485e-01	-1.344712937e-04	8.911082471e-12
-2.500000000e-02	2.678632398e-01	-1.317579401e-04	8.446283407e-12
-2.510000000e-02	2.678632310e-01	-1.290445871e-04	1.711260103e-11
-2.520000000e-02	2.678632221e-01	-1.263312346e-04	4.279163311e-12
-2.530000000e-02	2.678632131e-01	-1.236178827e-04	4.028231111e-12
-2.540000000e-02	2.678632041e-01	-1.209045313e-04	1.232763027e-11
-2.550000000e-02	2.678631949e-01	-1.181911805e-04	7.863431311e-12
-2.560000000e-02	2.678631857e-01	-1.154778303e-04	8.224980901e-11
-2.570000000e-02	2.678631764e-01	-1.127644806e-04	1.311913079e-11
-2.580000000e-02	2.678631670e-01	-1.100511315e-04	2.021407384e-11
-2.590000000e-02	2.678631575e-01	-1.073377830e-04	3.054235615e-12
-2.600000000e-02	2.678631480e-01	-1.046244350e-04	2.931421807e-11
-2.610000000e-02	2.678631384e-01	-1.019110877e-04	8.797533524e-12
-2.620000000e-02	2.678631286e-01	-9.919774095e-05	1.183980183e-11
-2.630000000e-02	2.678631188e-01	-9.648439479e-05	5.603592843e-12
-2.640000000e-02	2.678631090e-01	-9.377104924e-05	2.470787559e-11
-2.650000000e-02	2.678630990e-01	-9.105770429e-05	2.090201607e-12
-2.660000000e-02	2.678630890e-01	-8.834435994e-05	2.350322870e-11
-2.670000000e-02	2.678630788e-01	-8.563101621e-05	5.171807873e-11
-2.680000000e-02	2.678630686e-01	-8.291767310e-05	2.218742859e-11
-2.690000000e-02	2.678630583e-01	-8.020433061e-05	3.203491630e-11
-2.700000000e-02	2.678630479e-01	-7.749098874e-05	9.621712123e-12
-2.710000000e-02	2.678630375e-01	-7.477764750e-05	3.333141550e-10
-2.720000000e-02	2.678630269e-01	-7.206430690e-05	1.762191829e-11
-2.730000000e-02	2.678630163e-01	-6.935096693e-05	5.343477025e-12
-2.740000000e-02	2.678630056e-01	-6.663762760e-05	1.091715864e-11
-2.750000000e-02	2.678629948e-01	-6.392428893e-05	1.522478416e-11
-2.760000000e-02	2.678629840e-01	-6.121095090e-05	6.020937481e-12
-2.770000000e-02	2.678629730e-01	-5.849761352e-05	1.709583843e-11
-2.780000000e-02	2.678629620e-01	-5.578427681e-05	1.069416703e-11
-2.790000000e-02	2.678629509e-01	-5.307094075e-05	3.096538432e-11
-2.800000000e-02	2.678629397e-01	-5.035760537e-05	1.823845707e-11
-2.810000000e-02	2.678629284e-01	-4.764427065e-05	1.397260711e-11
-2.820000000e-02	2.678629170e-01	-4.493093661e-05	2.162447505e-11
-2.830000000e-02	2.678629056e-01	-4.221760325e-05	1.459746275e-11
-2.840000000e-02	2.678628940e-01	-3.950427057e-05	1.822378482e-11
-2.850000000e-02	2.678628824e-01	-3.679093858e-05	6.233033257e-13
-2.860000000e-02	2.678628707e-01	-3.407760728e-05	3.147090284e-12
-2.870000000e-02	2.678628589e-01	-3.136427668e-05	6.942747778e-11
-2.880000000e-02	2.678628471e-01	-2.865094678e-05	3.284409718e-11
-2.890000000e-02	2.678628351e-01	-2.593761758e-05	7.750610815e-12
-2.900000000e-02	2.678628231e-01	-2.322428909e-05	6.086863402e-12
-2.910000000e-02	2.678628110e-01	-2.051096132e-05	2.040978028e-11
-2.920000000e-02	2.678627988e-01	-1.779763426e-05	3.130173147e-12
-2.930000000e-02	2.678627865e-01	-1.508430792e-05	8.794452113e-12
-2.940000000e-02	2.678627742e-01	-1.237098231e-05	9.010459553e-11
-2.950000000e-02	2.678627618e-01	-9.657657426e-06	1.271694886e-11
-2.960000000e-02	2.678627492e-01	-6.944333277e-06	5.833774189e-12
-2.970000000e-02	2.678627366e-01	-4.231009865e-06	1.253867472e-12
-2.980000000e-02	2.678627240e-01	-1.517687195e-06	1.209480117e-11
-2.990000000e-02	2.678627112e-01	1.195634729e-06	1.127141844e-11
-3.000000000e-02	2.678626983e-01	3.908955902e-06	1.764150294e-11
