# Im(epsi1)     Re(omega/c)      Im(omega/c)      Eq(det).Opt det CON kz, R=0.5 \mum, mu_c=0.3, Re(epsi1)=3.90solve_det_conkz_vs_kz.py
0.000000000e+00	2.678642564e-01	-8.101085751e-04	3.040307862e-11
-1.000000000e-04	2.678642682e-01	-8.073952043e-04	2.596046894e-11
-2.000000000e-04	2.678642799e-01	-8.046818330e-04	1.071683182e-11
-3.000000000e-04	2.678642915e-01	-8.019684612e-04	4.107185475e-12
-4.000000000e-04	2.678643031e-01	-7.992550890e-04	2.984752704e-12
-5.000000000e-04	2.678643145e-01	-7.965417162e-04	8.483440411e-12
-6.000000000e-04	2.678643259e-01	-7.938283430e-04	8.794651408e-12
-7.000000000e-04	2.678643372e-01	-7.911149693e-04	2.055454749e-11
-8.000000000e-04	2.678643484e-01	-7.884015952e-04	1.893469500e-11
-9.000000000e-04	2.678643596e-01	-7.856882205e-04	2.029113830e-11
-1.000000000e-03	2.678643706e-01	-7.829748455e-04	5.229296127e-12
-1.100000000e-03	2.678643816e-01	-7.802614699e-04	1.692891179e-11
-1.200000000e-03	2.678643925e-01	-7.775480939e-04	1.718009283e-11
-1.300000000e-03	2.678644033e-01	-7.748347175e-04	1.763162637e-11
-1.400000000e-03	2.678644140e-01	-7.721213406e-04	1.115329851e-11
-1.500000000e-03	2.678644247e-01	-7.694079633e-04	1.265684631e-11
-1.600000000e-03	2.678644352e-01	-7.666945856e-04	5.689562238e-12
-1.700000000e-03	2.678644457e-01	-7.639812074e-04	8.405472758e-11
-1.800000000e-03	2.678644561e-01	-7.612678288e-04	1.810126798e-12
-1.900000000e-03	2.678644664e-01	-7.585544498e-04	1.097454342e-11
-2.000000000e-03	2.678644766e-01	-7.558410703e-04	7.074778326e-12
-2.100000000e-03	2.678644868e-01	-7.531276905e-04	1.788122169e-11
-2.200000000e-03	2.678644969e-01	-7.504143102e-04	1.179972313e-11
-2.300000000e-03	2.678645068e-01	-7.477009296e-04	4.367901741e-12
-2.400000000e-03	2.678645167e-01	-7.449875485e-04	1.702514103e-11
-2.500000000e-03	2.678645266e-01	-7.422741670e-04	1.579130973e-11
-2.600000000e-03	2.678645363e-01	-7.395607851e-04	2.016578631e-11
-2.700000000e-03	2.678645459e-01	-7.368474029e-04	6.265149034e-12
-2.800000000e-03	2.678645555e-01	-7.341340203e-04	1.730512862e-11
-2.900000000e-03	2.678645650e-01	-7.314206373e-04	1.574528455e-11
-3.000000000e-03	2.678645744e-01	-7.287072539e-04	1.804911288e-11
-3.100000000e-03	2.678645837e-01	-7.259938701e-04	1.073938508e-10
-3.200000000e-03	2.678645930e-01	-7.232804860e-04	6.019352580e-12
-3.300000000e-03	2.678646021e-01	-7.205671015e-04	1.530887860e-11
-3.400000000e-03	2.678646112e-01	-7.178537166e-04	2.116929163e-11
-3.500000000e-03	2.678646202e-01	-7.151403314e-04	5.077785133e-12
-3.600000000e-03	2.678646291e-01	-7.124269459e-04	2.647724402e-11
-3.700000000e-03	2.678646379e-01	-7.097135600e-04	3.733836600e-11
-3.800000000e-03	2.678646467e-01	-7.070001737e-04	2.961488299e-11
-3.900000000e-03	2.678646554e-01	-7.042867871e-04	1.874714805e-12
-4.000000000e-03	2.678646639e-01	-7.015734002e-04	1.410952107e-11
-4.100000000e-03	2.678646724e-01	-6.988600129e-04	1.042775833e-11
-4.200000000e-03	2.678646809e-01	-6.961466254e-04	2.008988557e-11
-4.300000000e-03	2.678646892e-01	-6.934332375e-04	1.388101874e-12
-4.400000000e-03	2.678646974e-01	-6.907198493e-04	5.586364247e-11
-4.500000000e-03	2.678647056e-01	-6.880064607e-04	5.848582354e-12
-4.600000000e-03	2.678647137e-01	-6.852930719e-04	2.683625042e-11
-4.700000000e-03	2.678647217e-01	-6.825796827e-04	2.568875406e-11
-4.800000000e-03	2.678647296e-01	-6.798662933e-04	2.868435378e-11
-4.900000000e-03	2.678647375e-01	-6.771529036e-04	4.887008592e-12
-5.000000000e-03	2.678647452e-01	-6.744395135e-04	8.493946595e-12
-5.100000000e-03	2.678647529e-01	-6.717261232e-04	1.955756127e-11
-5.200000000e-03	2.678647605e-01	-6.690127326e-04	4.193990589e-11
-5.300000000e-03	2.678647680e-01	-6.662993417e-04	1.635825802e-11
-5.400000000e-03	2.678647754e-01	-6.635859505e-04	2.524063182e-11
-5.500000000e-03	2.678647828e-01	-6.608725591e-04	3.856872981e-11
-5.600000000e-03	2.678647900e-01	-6.581591674e-04	2.686990312e-11
-5.700000000e-03	2.678647972e-01	-6.554457754e-04	5.359245289e-12
-5.800000000e-03	2.678648043e-01	-6.527323832e-04	2.172851061e-11
-5.900000000e-03	2.678648113e-01	-6.500189907e-04	1.006198083e-11
-6.000000000e-03	2.678648183e-01	-6.473055980e-04	3.989892721e-12
-6.100000000e-03	2.678648251e-01	-6.445922050e-04	1.716458117e-11
-6.200000000e-03	2.678648319e-01	-6.418788118e-04	3.944074495e-11
-6.300000000e-03	2.678648386e-01	-6.391654183e-04	2.007396706e-11
-6.400000000e-03	2.678648452e-01	-6.364520247e-04	1.485282964e-10
-6.500000000e-03	2.678648517e-01	-6.337386307e-04	7.312510141e-12
-6.600000000e-03	2.678648581e-01	-6.310252366e-04	4.061974539e-13
-6.700000000e-03	2.678648645e-01	-6.283118422e-04	1.944299651e-11
-6.800000000e-03	2.678648708e-01	-6.255984476e-04	2.654266824e-11
-6.900000000e-03	2.678648770e-01	-6.228850528e-04	1.015972969e-11
-7.000000000e-03	2.678648831e-01	-6.201716578e-04	1.199482266e-11
-7.100000000e-03	2.678648891e-01	-6.174582626e-04	8.481146328e-11
-7.200000000e-03	2.678648950e-01	-6.147448672e-04	1.943056127e-11
-7.300000000e-03	2.678649009e-01	-6.120314716e-04	1.166005296e-11
-7.400000000e-03	2.678649067e-01	-6.093180758e-04	3.039228940e-11
-7.500000000e-03	2.678649124e-01	-6.066046798e-04	3.029402447e-11
-7.600000000e-03	2.678649180e-01	-6.038912836e-04	1.639786336e-11
-7.700000000e-03	2.678649235e-01	-6.011778872e-04	7.892095824e-12
-7.800000000e-03	2.678649290e-01	-5.984644907e-04	5.497956195e-12
-7.900000000e-03	2.678649343e-01	-5.957510940e-04	2.973724962e-12
-8.000000000e-03	2.678649396e-01	-5.930376971e-04	4.453258335e-11
-8.100000000e-03	2.678649448e-01	-5.903243001e-04	4.843211681e-11
-8.200000000e-03	2.678649499e-01	-5.876109029e-04	3.844111348e-12
-8.300000000e-03	2.678649550e-01	-5.848975055e-04	8.082794285e-12
-8.400000000e-03	2.678649599e-01	-5.821841080e-04	7.393999029e-11
-8.500000000e-03	2.678649648e-01	-5.794707104e-04	1.978491837e-11
-8.600000000e-03	2.678649696e-01	-5.767573126e-04	1.913072730e-11
-8.700000000e-03	2.678649743e-01	-5.740439147e-04	2.266318834e-11
-8.800000000e-03	2.678649789e-01	-5.713305166e-04	2.435722933e-11
-8.900000000e-03	2.678649835e-01	-5.686171184e-04	5.981828628e-12
-9.000000000e-03	2.678649879e-01	-5.659037201e-04	5.982308083e-12
-9.100000000e-03	2.678649923e-01	-5.631903217e-04	1.539419251e-11
-9.200000000e-03	2.678649966e-01	-5.604769231e-04	7.594217706e-12
-9.300000000e-03	2.678650008e-01	-5.577635244e-04	6.744210421e-12
-9.400000000e-03	2.678650050e-01	-5.550501257e-04	4.013025862e-11
-9.500000000e-03	2.678650090e-01	-5.523367268e-04	6.307510375e-12
-9.600000000e-03	2.678650130e-01	-5.496233278e-04	5.601239441e-11
-9.700000000e-03	2.678650169e-01	-5.469099287e-04	6.384582010e-12
-9.800000000e-03	2.678650207e-01	-5.441965295e-04	3.798171556e-11
-9.900000000e-03	2.678650244e-01	-5.414831303e-04	1.061968834e-11
-1.000000000e-02	2.678650280e-01	-5.387697309e-04	3.802251805e-12
-1.010000000e-02	2.678650316e-01	-5.360563315e-04	2.011870340e-10
-1.020000000e-02	2.678650350e-01	-5.333429320e-04	1.801238954e-11
-1.030000000e-02	2.678650384e-01	-5.306295324e-04	8.113205385e-12
-1.040000000e-02	2.678650417e-01	-5.279161328e-04	2.820918261e-11
-1.050000000e-02	2.678650450e-01	-5.252027331e-04	3.615782908e-11
-1.060000000e-02	2.678650481e-01	-5.224893333e-04	1.292666509e-11
-1.070000000e-02	2.678650512e-01	-5.197759335e-04	5.191719381e-11
-1.080000000e-02	2.678650541e-01	-5.170625337e-04	9.299891923e-12
-1.090000000e-02	2.678650570e-01	-5.143491337e-04	4.572539483e-11
-1.100000000e-02	2.678650598e-01	-5.116357338e-04	2.193346138e-11
-1.110000000e-02	2.678650626e-01	-5.089223338e-04	6.158104719e-12
-1.120000000e-02	2.678650652e-01	-5.062089338e-04	2.914125821e-10
-1.130000000e-02	2.678650678e-01	-5.034955337e-04	3.535864591e-12
-1.140000000e-02	2.678650703e-01	-5.007821336e-04	1.254334863e-11
-1.150000000e-02	2.678650727e-01	-4.980687335e-04	4.185199867e-12
-1.160000000e-02	2.678650750e-01	-4.953553334e-04	3.711564438e-11
-1.170000000e-02	2.678650772e-01	-4.926419333e-04	2.004114986e-11
-1.180000000e-02	2.678650794e-01	-4.899285331e-04	2.385512418e-12
-1.190000000e-02	2.678650814e-01	-4.872151330e-04	2.138584985e-11
-1.200000000e-02	2.678650834e-01	-4.845017328e-04	1.439569029e-11
-1.210000000e-02	2.678650853e-01	-4.817883327e-04	1.230970844e-11
-1.220000000e-02	2.678650872e-01	-4.790749325e-04	9.672422227e-12
-1.230000000e-02	2.678650889e-01	-4.763615324e-04	1.859446885e-11
-1.240000000e-02	2.678650905e-01	-4.736481323e-04	1.141362229e-11
-1.250000000e-02	2.678650921e-01	-4.709347322e-04	4.522807709e-11
-1.260000000e-02	2.678650936e-01	-4.682213321e-04	1.441700834e-11
-1.270000000e-02	2.678650950e-01	-4.655079321e-04	1.334357516e-11
-1.280000000e-02	2.678650964e-01	-4.627945321e-04	1.003045202e-10
-1.290000000e-02	2.678650976e-01	-4.600811321e-04	1.613993870e-11
-1.300000000e-02	2.678650988e-01	-4.573677322e-04	2.201825267e-11
-1.310000000e-02	2.678650998e-01	-4.546543323e-04	2.606736455e-11
-1.320000000e-02	2.678651008e-01	-4.519409325e-04	1.706656661e-11
-1.330000000e-02	2.678651018e-01	-4.492275327e-04	1.838699585e-11
-1.340000000e-02	2.678651026e-01	-4.465141330e-04	7.656478756e-12
-1.350000000e-02	2.678651033e-01	-4.438007334e-04	1.915953379e-11
-1.360000000e-02	2.678651040e-01	-4.410873338e-04	1.247927380e-12
-1.370000000e-02	2.678651046e-01	-4.383739342e-04	2.029767063e-11
-1.380000000e-02	2.678651051e-01	-4.356605348e-04	4.719048500e-11
-1.390000000e-02	2.678651055e-01	-4.329471354e-04	7.858585403e-13
-1.400000000e-02	2.678651059e-01	-4.302337361e-04	4.816599707e-11
-1.410000000e-02	2.678651061e-01	-4.275203369e-04	1.425507539e-11
-1.420000000e-02	2.678651063e-01	-4.248069378e-04	3.271662509e-12
-1.430000000e-02	2.678651064e-01	-4.220935388e-04	1.439228576e-11
-1.440000000e-02	2.678651064e-01	-4.193801399e-04	1.312611293e-11
-1.450000000e-02	2.678651063e-01	-4.166667411e-04	1.578141896e-11
-1.460000000e-02	2.678651062e-01	-4.139533424e-04	2.117211573e-11
-1.470000000e-02	2.678651059e-01	-4.112399438e-04	2.058755713e-11
-1.480000000e-02	2.678651056e-01	-4.085265453e-04	1.516527137e-11
-1.490000000e-02	2.678651052e-01	-4.058131470e-04	2.860277392e-11
-1.500000000e-02	2.678651047e-01	-4.030997488e-04	1.850670369e-11
-1.510000000e-02	2.678651042e-01	-4.003863507e-04	2.205292843e-11
-1.520000000e-02	2.678651035e-01	-3.976729527e-04	1.828136047e-11
-1.530000000e-02	2.678651028e-01	-3.949595549e-04	1.745752483e-11
-1.540000000e-02	2.678651020e-01	-3.922461572e-04	1.527944537e-11
-1.550000000e-02	2.678651011e-01	-3.895327597e-04	5.415316586e-12
-1.560000000e-02	2.678651001e-01	-3.868193623e-04	5.543047403e-12
-1.570000000e-02	2.678650990e-01	-3.841059650e-04	1.273554946e-11
-1.580000000e-02	2.678650979e-01	-3.813925679e-04	1.630590430e-11
-1.590000000e-02	2.678650966e-01	-3.786791710e-04	1.315730681e-11
-1.600000000e-02	2.678650953e-01	-3.759657743e-04	1.313736183e-11
-1.610000000e-02	2.678650939e-01	-3.732523777e-04	1.905853098e-11
-1.620000000e-02	2.678650925e-01	-3.705389813e-04	1.228308524e-11
-1.630000000e-02	2.678650909e-01	-3.678255851e-04	2.603547100e-11
-1.640000000e-02	2.678650893e-01	-3.651121890e-04	2.232208829e-11
-1.650000000e-02	2.678650876e-01	-3.623987932e-04	7.587934233e-12
-1.660000000e-02	2.678650858e-01	-3.596853975e-04	2.207949855e-12
-1.670000000e-02	2.678650839e-01	-3.569720020e-04	1.605352391e-10
-1.680000000e-02	2.678650819e-01	-3.542586068e-04	2.090829661e-12
-1.690000000e-02	2.678650798e-01	-3.515452117e-04	1.426562388e-11
-1.700000000e-02	2.678650777e-01	-3.488318168e-04	2.311710598e-11
-1.710000000e-02	2.678650755e-01	-3.461184222e-04	1.126317749e-11
-1.720000000e-02	2.678650732e-01	-3.434050277e-04	1.450652802e-11
-1.730000000e-02	2.678650708e-01	-3.406916335e-04	1.212977066e-11
-1.740000000e-02	2.678650684e-01	-3.379782396e-04	1.268578599e-11
-1.750000000e-02	2.678650658e-01	-3.352648458e-04	9.505825512e-13
-1.760000000e-02	2.678650632e-01	-3.325514523e-04	6.044453080e-12
-1.770000000e-02	2.678650605e-01	-3.298380590e-04	7.206508082e-12
-1.780000000e-02	2.678650577e-01	-3.271246659e-04	3.828653505e-12
-1.790000000e-02	2.678650548e-01	-3.244112731e-04	6.755734845e-12
-1.800000000e-02	2.678650518e-01	-3.216978806e-04	7.693351546e-12
-1.810000000e-02	2.678650488e-01	-3.189844883e-04	1.671774808e-11
-1.820000000e-02	2.678650457e-01	-3.162710963e-04	1.201450761e-11
-1.830000000e-02	2.678650425e-01	-3.135577045e-04	1.022300853e-11
-1.840000000e-02	2.678650392e-01	-3.108443130e-04	6.426827291e-13
-1.850000000e-02	2.678650358e-01	-3.081309217e-04	1.926363304e-11
-1.860000000e-02	2.678650324e-01	-3.054175308e-04	1.021020659e-11
-1.870000000e-02	2.678650288e-01	-3.027041401e-04	2.955989999e-12
-1.880000000e-02	2.678650252e-01	-2.999907497e-04	3.288616732e-11
-1.890000000e-02	2.678650215e-01	-2.972773596e-04	1.281992682e-11
-1.900000000e-02	2.678650177e-01	-2.945639697e-04	1.812323322e-11
-1.910000000e-02	2.678650139e-01	-2.918505802e-04	1.634068118e-11
-1.920000000e-02	2.678650099e-01	-2.891371910e-04	2.523642336e-11
-1.930000000e-02	2.678650059e-01	-2.864238021e-04	6.519940522e-12
-1.940000000e-02	2.678650018e-01	-2.837104135e-04	1.833390685e-11
-1.950000000e-02	2.678649976e-01	-2.809970252e-04	1.293122435e-11
-1.960000000e-02	2.678649933e-01	-2.782836372e-04	4.421180549e-11
-1.970000000e-02	2.678649889e-01	-2.755702495e-04	7.359590043e-11
-1.980000000e-02	2.678649845e-01	-2.728568622e-04	6.983927655e-12
-1.990000000e-02	2.678649800e-01	-2.701434751e-04	2.099445269e-11
-2.000000000e-02	2.678649754e-01	-2.674300885e-04	1.522632151e-11
-2.010000000e-02	2.678649707e-01	-2.647167021e-04	8.225936203e-12
-2.020000000e-02	2.678649659e-01	-2.620033161e-04	7.049566186e-11
-2.030000000e-02	2.678649611e-01	-2.592899305e-04	2.348511542e-11
-2.040000000e-02	2.678649561e-01	-2.565765452e-04	1.405840602e-11
-2.050000000e-02	2.678649511e-01	-2.538631602e-04	1.240522665e-11
-2.060000000e-02	2.678649460e-01	-2.511497756e-04	5.675254457e-12
-2.070000000e-02	2.678649408e-01	-2.484363914e-04	5.929282458e-12
-2.080000000e-02	2.678649356e-01	-2.457230075e-04	2.872092617e-11
-2.090000000e-02	2.678649302e-01	-2.430096240e-04	1.439915687e-11
-2.100000000e-02	2.678649248e-01	-2.402962409e-04	9.772904616e-12
-2.110000000e-02	2.678649193e-01	-2.375828582e-04	2.700278500e-11
-2.120000000e-02	2.678649137e-01	-2.348694758e-04	1.270095679e-11
-2.130000000e-02	2.678649080e-01	-2.321560939e-04	6.050974337e-12
-2.140000000e-02	2.678649022e-01	-2.294427123e-04	1.117944071e-11
-2.150000000e-02	2.678648964e-01	-2.267293311e-04	2.708646313e-11
-2.160000000e-02	2.678648905e-01	-2.240159503e-04	1.184254457e-11
-2.170000000e-02	2.678648845e-01	-2.213025699e-04	9.831459766e-12
-2.180000000e-02	2.678648784e-01	-2.185891900e-04	1.206752107e-11
-2.190000000e-02	2.678648722e-01	-2.158758104e-04	7.995589561e-12
-2.200000000e-02	2.678648659e-01	-2.131624313e-04	5.626192954e-12
-2.210000000e-02	2.678648596e-01	-2.104490525e-04	3.609480431e-12
-2.220000000e-02	2.678648532e-01	-2.077356743e-04	7.071185855e-11
-2.230000000e-02	2.678648467e-01	-2.050222964e-04	1.083864327e-11
-2.240000000e-02	2.678648401e-01	-2.023089190e-04	8.368979279e-12
-2.250000000e-02	2.678648334e-01	-1.995955420e-04	1.989265931e-11
-2.260000000e-02	2.678648267e-01	-1.968821654e-04	6.240359423e-12
-2.270000000e-02	2.678648198e-01	-1.941687893e-04	1.490654623e-11
-2.280000000e-02	2.678648129e-01	-1.914554136e-04	3.406846856e-11
-2.290000000e-02	2.678648059e-01	-1.887420384e-04	6.312557719e-12
-2.300000000e-02	2.678647989e-01	-1.860286637e-04	5.214367527e-12
-2.310000000e-02	2.678647917e-01	-1.833152894e-04	1.167544635e-11
-2.320000000e-02	2.678647845e-01	-1.806019156e-04	6.290325419e-11
-2.330000000e-02	2.678647771e-01	-1.778885423e-04	1.239113313e-11
-2.340000000e-02	2.678647697e-01	-1.751751694e-04	6.763079966e-11
-2.350000000e-02	2.678647622e-01	-1.724617970e-04	7.427418380e-12
-2.360000000e-02	2.678647547e-01	-1.697484251e-04	3.395322034e-12
-2.370000000e-02	2.678647470e-01	-1.670350537e-04	1.055421621e-11
-2.380000000e-02	2.678647393e-01	-1.643216827e-04	7.329190991e-12
-2.390000000e-02	2.678647314e-01	-1.616083123e-04	2.364133224e-11
-2.400000000e-02	2.678647235e-01	-1.588949424e-04	3.725199402e-12
-2.410000000e-02	2.678647155e-01	-1.561815729e-04	6.213458075e-12
-2.420000000e-02	2.678647075e-01	-1.534682040e-04	9.544338574e-12
-2.430000000e-02	2.678646993e-01	-1.507548356e-04	2.752595558e-12
-2.440000000e-02	2.678646911e-01	-1.480414677e-04	3.351824783e-11
-2.450000000e-02	2.678646828e-01	-1.453281004e-04	5.590275811e-12
-2.460000000e-02	2.678646744e-01	-1.426147335e-04	1.655129775e-11
-2.470000000e-02	2.678646659e-01	-1.399013672e-04	1.314584718e-11
-2.480000000e-02	2.678646573e-01	-1.371880014e-04	5.866293370e-12
-2.490000000e-02	2.678646487e-01	-1.344746362e-04	2.197378603e-11
-2.500000000e-02	2.678646400e-01	-1.317612715e-04	1.190538986e-11
-2.510000000e-02	2.678646312e-01	-1.290479073e-04	1.588651048e-11
-2.520000000e-02	2.678646223e-01	-1.263345437e-04	6.131550564e-12
-2.530000000e-02	2.678646133e-01	-1.236211806e-04	8.091767717e-12
-2.540000000e-02	2.678646042e-01	-1.209078182e-04	1.721392676e-12
-2.550000000e-02	2.678645951e-01	-1.181944562e-04	2.032903135e-12
-2.560000000e-02	2.678645859e-01	-1.154810949e-04	2.279378111e-11
-2.570000000e-02	2.678645766e-01	-1.127677341e-04	1.747891266e-11
-2.580000000e-02	2.678645672e-01	-1.100543738e-04	2.765714110e-11
-2.590000000e-02	2.678645577e-01	-1.073410142e-04	5.632467197e-12
-2.600000000e-02	2.678645482e-01	-1.046276551e-04	1.852648902e-11
-2.610000000e-02	2.678645385e-01	-1.019142967e-04	3.548115918e-12
-2.620000000e-02	2.678645288e-01	-9.920093880e-05	9.115042134e-12
-2.630000000e-02	2.678645190e-01	-9.648758152e-05	3.913726507e-11
-2.640000000e-02	2.678645091e-01	-9.377422484e-05	1.388953365e-11
-2.650000000e-02	2.678644992e-01	-9.106086876e-05	1.488146395e-11
-2.660000000e-02	2.678644891e-01	-8.834751329e-05	9.518898021e-12
-2.670000000e-02	2.678644790e-01	-8.563415844e-05	2.207717026e-11
-2.680000000e-02	2.678644688e-01	-8.292080420e-05	1.528376058e-11
-2.690000000e-02	2.678644585e-01	-8.020745058e-05	1.055662497e-11
-2.700000000e-02	2.678644481e-01	-7.749409759e-05	6.307541430e-12
-2.710000000e-02	2.678644376e-01	-7.478074522e-05	8.603715251e-12
-2.720000000e-02	2.678644271e-01	-7.206739349e-05	2.291107260e-11
-2.730000000e-02	2.678644165e-01	-6.935404240e-05	7.988768856e-11
-2.740000000e-02	2.678644058e-01	-6.664069195e-05	3.213697991e-11
-2.750000000e-02	2.678643950e-01	-6.392734215e-05	1.521348401e-11
-2.760000000e-02	2.678643841e-01	-6.121399299e-05	1.448074664e-11
-2.770000000e-02	2.678643732e-01	-5.850064449e-05	2.034037750e-11
-2.780000000e-02	2.678643621e-01	-5.578729665e-05	4.561647709e-12
-2.790000000e-02	2.678643510e-01	-5.307394947e-05	1.487688002e-11
-2.800000000e-02	2.678643398e-01	-5.036060296e-05	1.621843190e-11
-2.810000000e-02	2.678643285e-01	-4.764725712e-05	1.675486303e-11
-2.820000000e-02	2.678643172e-01	-4.493391196e-05	6.109287389e-12
-2.830000000e-02	2.678643057e-01	-4.222056747e-05	1.135641561e-11
-2.840000000e-02	2.678642942e-01	-3.950722367e-05	1.600412171e-11
-2.850000000e-02	2.678642826e-01	-3.679388055e-05	1.700156199e-11
-2.860000000e-02	2.678642709e-01	-3.408053813e-05	6.593053358e-12
-2.870000000e-02	2.678642591e-01	-3.136719640e-05	2.920896221e-12
-2.880000000e-02	2.678642472e-01	-2.865385537e-05	2.284214304e-11
-2.890000000e-02	2.678642353e-01	-2.594051505e-05	2.844580112e-12
-2.900000000e-02	2.678642233e-01	-2.322717544e-05	1.388305634e-11
-2.910000000e-02	2.678642112e-01	-2.051383654e-05	1.086427704e-11
-2.920000000e-02	2.678641990e-01	-1.780049835e-05	6.234936278e-11
-2.930000000e-02	2.678641867e-01	-1.508716089e-05	2.459576082e-11
-2.940000000e-02	2.678641744e-01	-1.237382415e-05	1.336490235e-11
-2.950000000e-02	2.678641619e-01	-9.660488144e-06	7.462708681e-12
-2.960000000e-02	2.678641494e-01	-6.947152869e-06	1.662745440e-11
-2.970000000e-02	2.678641368e-01	-4.233818332e-06	1.412679661e-11
-2.980000000e-02	2.678641241e-01	-1.520484538e-06	1.662106202e-11
-2.990000000e-02	2.678641113e-01	1.192848511e-06	2.252845927e-11
-3.000000000e-02	2.678640985e-01	3.906180810e-06	2.990193119e-12
