# Im(epsi1)     Re(omega/c)      Im(omega/c)      Eq(det).Opt det CON kz, R=0.5 \mum, mu_c=0.3, Re(epsi1)=3.90solve_det_conkz_vs_kz.py
0.000000000e+00	2.678499401e-01	-8.100460768e-04	1.255183350e-11
-1.000000000e-04	2.678499519e-01	-8.073328197e-04	1.670785992e-11
-2.000000000e-04	2.678499636e-01	-8.046195622e-04	1.463212187e-11
-3.000000000e-04	2.678499752e-01	-8.019063041e-04	3.119535053e-11
-4.000000000e-04	2.678499868e-01	-7.991930456e-04	1.650743725e-11
-5.000000000e-04	2.678499982e-01	-7.964797866e-04	1.064159028e-11
-6.000000000e-04	2.678500096e-01	-7.937665271e-04	1.351836239e-11
-7.000000000e-04	2.678500209e-01	-7.910532672e-04	3.207123000e-11
-8.000000000e-04	2.678500321e-01	-7.883400068e-04	9.285434751e-12
-9.000000000e-04	2.678500433e-01	-7.856267459e-04	7.024858066e-12
-1.000000000e-03	2.678500543e-01	-7.829134845e-04	4.786038521e-11
-1.100000000e-03	2.678500653e-01	-7.802002227e-04	9.714403793e-12
-1.200000000e-03	2.678500762e-01	-7.774869605e-04	1.839099270e-11
-1.300000000e-03	2.678500870e-01	-7.747736978e-04	1.095407239e-11
-1.400000000e-03	2.678500977e-01	-7.720604347e-04	6.244886049e-12
-1.500000000e-03	2.678501084e-01	-7.693471711e-04	1.131222005e-11
-1.600000000e-03	2.678501189e-01	-7.666339071e-04	1.288533082e-11
-1.700000000e-03	2.678501294e-01	-7.639206426e-04	8.561825055e-12
-1.800000000e-03	2.678501398e-01	-7.612073778e-04	8.367887056e-12
-1.900000000e-03	2.678501501e-01	-7.584941125e-04	1.057168014e-11
-2.000000000e-03	2.678501603e-01	-7.557808468e-04	6.570356510e-12
-2.100000000e-03	2.678501705e-01	-7.530675807e-04	3.276513333e-11
-2.200000000e-03	2.678501805e-01	-7.503543141e-04	2.351658139e-11
-2.300000000e-03	2.678501905e-01	-7.476410472e-04	3.078158467e-11
-2.400000000e-03	2.678502004e-01	-7.449277799e-04	1.247779462e-11
-2.500000000e-03	2.678502102e-01	-7.422145122e-04	1.278637914e-11
-2.600000000e-03	2.678502200e-01	-7.395012440e-04	2.189587601e-11
-2.700000000e-03	2.678502296e-01	-7.367879755e-04	1.486378566e-11
-2.800000000e-03	2.678502392e-01	-7.340747066e-04	1.499117536e-11
-2.900000000e-03	2.678502487e-01	-7.313614373e-04	1.129325033e-11
-3.000000000e-03	2.678502581e-01	-7.286481677e-04	1.273876184e-11
-3.100000000e-03	2.678502674e-01	-7.259348977e-04	9.690746996e-12
-3.200000000e-03	2.678502767e-01	-7.232216273e-04	6.119373302e-12
-3.300000000e-03	2.678502858e-01	-7.205083565e-04	3.751664260e-11
-3.400000000e-03	2.678502949e-01	-7.177950854e-04	3.051948072e-11
-3.500000000e-03	2.678503039e-01	-7.150818139e-04	2.638510852e-12
-3.600000000e-03	2.678503128e-01	-7.123685421e-04	1.647511522e-11
-3.700000000e-03	2.678503216e-01	-7.096552700e-04	6.788917162e-13
-3.800000000e-03	2.678503304e-01	-7.069419975e-04	6.651024819e-12
-3.900000000e-03	2.678503390e-01	-7.042287246e-04	9.950841583e-12
-4.000000000e-03	2.678503476e-01	-7.015154514e-04	1.798217840e-12
-4.100000000e-03	2.678503561e-01	-6.988021779e-04	2.255498025e-11
-4.200000000e-03	2.678503645e-01	-6.960889041e-04	2.535201228e-11
-4.300000000e-03	2.678503729e-01	-6.933756299e-04	1.262812549e-11
-4.400000000e-03	2.678503811e-01	-6.906623554e-04	9.822106785e-12
-4.500000000e-03	2.678503893e-01	-6.879490806e-04	1.237773153e-11
-4.600000000e-03	2.678503974e-01	-6.852358055e-04	3.293275016e-11
-4.700000000e-03	2.678504054e-01	-6.825225301e-04	1.303672110e-11
-4.800000000e-03	2.678504133e-01	-6.798092544e-04	9.260556661e-12
-4.900000000e-03	2.678504211e-01	-6.770959784e-04	2.412299152e-11
-5.000000000e-03	2.678504289e-01	-6.743827021e-04	1.927255996e-11
-5.100000000e-03	2.678504366e-01	-6.716694256e-04	8.722612843e-12
-5.200000000e-03	2.678504441e-01	-6.689561487e-04	3.134444387e-12
-5.300000000e-03	2.678504517e-01	-6.662428715e-04	8.726118952e-12
-5.400000000e-03	2.678504591e-01	-6.635295941e-04	8.173161840e-12
-5.500000000e-03	2.678504664e-01	-6.608163164e-04	1.748656063e-11
-5.600000000e-03	2.678504737e-01	-6.581030385e-04	1.248199825e-11
-5.700000000e-03	2.678504809e-01	-6.553897602e-04	1.401089163e-11
-5.800000000e-03	2.678504880e-01	-6.526764817e-04	1.292116119e-11
-5.900000000e-03	2.678504950e-01	-6.499632030e-04	1.115410035e-11
-6.000000000e-03	2.678505019e-01	-6.472499240e-04	1.371298559e-11
-6.100000000e-03	2.678505088e-01	-6.445366448e-04	7.815644524e-12
-6.200000000e-03	2.678505155e-01	-6.418233653e-04	1.777199487e-11
-6.300000000e-03	2.678505222e-01	-6.391100856e-04	9.595860567e-12
-6.400000000e-03	2.678505288e-01	-6.363968056e-04	4.711630467e-11
-6.500000000e-03	2.678505353e-01	-6.336835254e-04	4.923118225e-11
-6.600000000e-03	2.678505418e-01	-6.309702450e-04	2.115810838e-11
-6.700000000e-03	2.678505481e-01	-6.282569644e-04	1.330888812e-11
-6.800000000e-03	2.678505544e-01	-6.255436836e-04	1.713299737e-11
-6.900000000e-03	2.678505606e-01	-6.228304025e-04	4.304398530e-11
-7.000000000e-03	2.678505667e-01	-6.201171212e-04	8.187753165e-12
-7.100000000e-03	2.678505727e-01	-6.174038398e-04	1.579711609e-11
-7.200000000e-03	2.678505787e-01	-6.146905581e-04	1.194767342e-11
-7.300000000e-03	2.678505845e-01	-6.119772762e-04	1.656884203e-11
-7.400000000e-03	2.678505903e-01	-6.092639941e-04	1.007781905e-11
-7.500000000e-03	2.678505960e-01	-6.065507119e-04	3.103232591e-11
-7.600000000e-03	2.678506016e-01	-6.038374295e-04	1.071591644e-11
-7.700000000e-03	2.678506071e-01	-6.011241468e-04	3.177655738e-11
-7.800000000e-03	2.678506126e-01	-5.984108640e-04	3.647780592e-11
-7.900000000e-03	2.678506180e-01	-5.956975811e-04	1.242154997e-11
-8.000000000e-03	2.678506232e-01	-5.929842980e-04	3.796894284e-11
-8.100000000e-03	2.678506284e-01	-5.902710147e-04	1.933193003e-11
-8.200000000e-03	2.678506336e-01	-5.875577312e-04	2.409955553e-11
-8.300000000e-03	2.678506386e-01	-5.848444476e-04	1.472417461e-11
-8.400000000e-03	2.678506436e-01	-5.821311638e-04	1.116428347e-11
-8.500000000e-03	2.678506484e-01	-5.794178799e-04	9.805699977e-12
-8.600000000e-03	2.678506532e-01	-5.767045959e-04	1.224360016e-11
-8.700000000e-03	2.678506579e-01	-5.739913117e-04	2.093893442e-11
-8.800000000e-03	2.678506625e-01	-5.712780274e-04	7.505974434e-12
-8.900000000e-03	2.678506671e-01	-5.685647429e-04	9.136634720e-12
-9.000000000e-03	2.678506715e-01	-5.658514583e-04	2.717031159e-11
-9.100000000e-03	2.678506759e-01	-5.631381736e-04	3.254329613e-11
-9.200000000e-03	2.678506802e-01	-5.604248888e-04	2.023695440e-11
-9.300000000e-03	2.678506844e-01	-5.577116039e-04	5.682484782e-12
-9.400000000e-03	2.678506886e-01	-5.549983189e-04	2.828187134e-11
-9.500000000e-03	2.678506926e-01	-5.522850337e-04	6.067258950e-12
-9.600000000e-03	2.678506966e-01	-5.495717485e-04	4.200156593e-11
-9.700000000e-03	2.678507005e-01	-5.468584631e-04	1.070832298e-11
-9.800000000e-03	2.678507043e-01	-5.441451777e-04	1.191419853e-11
-9.900000000e-03	2.678507080e-01	-5.414318922e-04	5.136552100e-11
-1.000000000e-02	2.678507116e-01	-5.387186066e-04	4.016436761e-11
-1.010000000e-02	2.678507152e-01	-5.360053209e-04	1.078703883e-11
-1.020000000e-02	2.678507186e-01	-5.332920352e-04	2.643031446e-11
-1.030000000e-02	2.678507220e-01	-5.305787493e-04	5.782563004e-12
-1.040000000e-02	2.678507253e-01	-5.278654634e-04	1.376491557e-11
-1.050000000e-02	2.678507286e-01	-5.251521775e-04	7.144943646e-12
-1.060000000e-02	2.678507317e-01	-5.224388914e-04	9.730198166e-12
-1.070000000e-02	2.678507347e-01	-5.197256054e-04	1.218080931e-11
-1.080000000e-02	2.678507377e-01	-5.170123192e-04	8.479360586e-12
-1.090000000e-02	2.678507406e-01	-5.142990331e-04	2.279430741e-11
-1.100000000e-02	2.678507434e-01	-5.115857469e-04	3.960915844e-11
-1.110000000e-02	2.678507462e-01	-5.088724606e-04	3.294729871e-11
-1.120000000e-02	2.678507488e-01	-5.061591743e-04	3.009750011e-11
-1.130000000e-02	2.678507514e-01	-5.034458880e-04	2.532951727e-11
-1.140000000e-02	2.678507538e-01	-5.007326017e-04	4.199657230e-12
-1.150000000e-02	2.678507562e-01	-4.980193153e-04	1.192214394e-11
-1.160000000e-02	2.678507586e-01	-4.953060289e-04	1.915319649e-11
-1.170000000e-02	2.678507608e-01	-4.925927425e-04	7.046371087e-12
-1.180000000e-02	2.678507630e-01	-4.898794561e-04	2.146544159e-11
-1.190000000e-02	2.678507650e-01	-4.871661697e-04	1.552007651e-11
-1.200000000e-02	2.678507670e-01	-4.844528833e-04	1.410051615e-11
-1.210000000e-02	2.678507689e-01	-4.817395969e-04	1.099072440e-11
-1.220000000e-02	2.678507707e-01	-4.790263105e-04	2.528579067e-11
-1.230000000e-02	2.678507725e-01	-4.763130241e-04	9.240751881e-12
-1.240000000e-02	2.678507741e-01	-4.735997378e-04	1.263528504e-11
-1.250000000e-02	2.678507757e-01	-4.708864514e-04	1.313961107e-11
-1.260000000e-02	2.678507772e-01	-4.681731651e-04	1.664639266e-11
-1.270000000e-02	2.678507786e-01	-4.654598788e-04	1.320895737e-11
-1.280000000e-02	2.678507799e-01	-4.627465925e-04	1.545844892e-11
-1.290000000e-02	2.678507812e-01	-4.600333063e-04	1.017930095e-11
-1.300000000e-02	2.678507823e-01	-4.573200201e-04	1.319909920e-11
-1.310000000e-02	2.678507834e-01	-4.546067340e-04	1.048565650e-11
-1.320000000e-02	2.678507844e-01	-4.518934479e-04	3.992293878e-11
-1.330000000e-02	2.678507853e-01	-4.491801619e-04	2.389154388e-11
-1.340000000e-02	2.678507862e-01	-4.464668759e-04	1.242027736e-11
-1.350000000e-02	2.678507869e-01	-4.437535900e-04	2.249227131e-11
-1.360000000e-02	2.678507876e-01	-4.410403041e-04	1.947376079e-11
-1.370000000e-02	2.678507882e-01	-4.383270184e-04	1.212019400e-11
-1.380000000e-02	2.678507887e-01	-4.356137327e-04	7.314182613e-12
-1.390000000e-02	2.678507891e-01	-4.329004470e-04	8.650555946e-12
-1.400000000e-02	2.678507894e-01	-4.301871615e-04	3.462602793e-11
-1.410000000e-02	2.678507897e-01	-4.274738760e-04	1.297530944e-11
-1.420000000e-02	2.678507899e-01	-4.247605907e-04	9.273993473e-12
-1.430000000e-02	2.678507900e-01	-4.220473054e-04	6.272841466e-12
-1.440000000e-02	2.678507900e-01	-4.193340202e-04	1.121157200e-11
-1.450000000e-02	2.678507899e-01	-4.166207352e-04	1.240298081e-11
-1.460000000e-02	2.678507897e-01	-4.139074502e-04	6.971032980e-11
-1.470000000e-02	2.678507895e-01	-4.111941654e-04	1.066678574e-11
-1.480000000e-02	2.678507892e-01	-4.084808806e-04	3.267139617e-11
-1.490000000e-02	2.678507888e-01	-4.057675960e-04	1.218347267e-11
-1.500000000e-02	2.678507883e-01	-4.030543116e-04	4.611338237e-12
-1.510000000e-02	2.678507877e-01	-4.003410272e-04	1.776868213e-11
-1.520000000e-02	2.678507871e-01	-3.976277430e-04	7.249807129e-12
-1.530000000e-02	2.678507863e-01	-3.949144589e-04	8.117194017e-12
-1.540000000e-02	2.678507855e-01	-3.922011749e-04	4.484989669e-11
-1.550000000e-02	2.678507846e-01	-3.894878912e-04	6.113041802e-12
-1.560000000e-02	2.678507836e-01	-3.867746075e-04	6.423623578e-12
-1.570000000e-02	2.678507826e-01	-3.840613240e-04	7.284506596e-12
-1.580000000e-02	2.678507814e-01	-3.813480407e-04	1.927619626e-11
-1.590000000e-02	2.678507802e-01	-3.786347575e-04	6.084618851e-12
-1.600000000e-02	2.678507789e-01	-3.759214745e-04	1.235045257e-11
-1.610000000e-02	2.678507775e-01	-3.732081917e-04	5.762805875e-12
-1.620000000e-02	2.678507760e-01	-3.704949090e-04	6.999180096e-12
-1.630000000e-02	2.678507745e-01	-3.677816265e-04	1.387746978e-11
-1.640000000e-02	2.678507728e-01	-3.650683442e-04	1.305354260e-11
-1.650000000e-02	2.678507711e-01	-3.623550621e-04	8.396919883e-12
-1.660000000e-02	2.678507693e-01	-3.596417802e-04	7.230470413e-12
-1.670000000e-02	2.678507674e-01	-3.569284984e-04	1.270085742e-11
-1.680000000e-02	2.678507654e-01	-3.542152169e-04	1.730137752e-11
-1.690000000e-02	2.678507634e-01	-3.515019356e-04	7.893880841e-12
-1.700000000e-02	2.678507613e-01	-3.487886545e-04	1.038938529e-11
-1.710000000e-02	2.678507590e-01	-3.460753736e-04	5.899297975e-12
-1.720000000e-02	2.678507567e-01	-3.433620929e-04	1.247394522e-11
-1.730000000e-02	2.678507544e-01	-3.406488124e-04	2.219821193e-11
-1.740000000e-02	2.678507519e-01	-3.379355322e-04	1.905580210e-11
-1.750000000e-02	2.678507493e-01	-3.352222522e-04	9.827636010e-12
-1.760000000e-02	2.678507467e-01	-3.325089724e-04	9.291847787e-12
-1.770000000e-02	2.678507440e-01	-3.297956929e-04	1.304376664e-11
-1.780000000e-02	2.678507412e-01	-3.270824136e-04	1.462403733e-11
-1.790000000e-02	2.678507383e-01	-3.243691345e-04	3.131824148e-11
-1.800000000e-02	2.678507354e-01	-3.216558557e-04	6.128080235e-12
-1.810000000e-02	2.678507323e-01	-3.189425771e-04	8.319733279e-12
-1.820000000e-02	2.678507292e-01	-3.162292988e-04	3.218707491e-11
-1.830000000e-02	2.678507260e-01	-3.135160208e-04	6.078360091e-12
-1.840000000e-02	2.678507227e-01	-3.108027431e-04	2.444652464e-11
-1.850000000e-02	2.678507193e-01	-3.080894656e-04	1.432040613e-11
-1.860000000e-02	2.678507159e-01	-3.053761883e-04	8.320486921e-12
-1.870000000e-02	2.678507124e-01	-3.026629114e-04	1.530233063e-11
-1.880000000e-02	2.678507087e-01	-2.999496347e-04	1.883976010e-11
-1.890000000e-02	2.678507050e-01	-2.972363584e-04	3.067976887e-11
-1.900000000e-02	2.678507013e-01	-2.945230823e-04	3.923158611e-12
-1.910000000e-02	2.678506974e-01	-2.918098065e-04	1.199234489e-11
-1.920000000e-02	2.678506934e-01	-2.890965310e-04	7.677358859e-12
-1.930000000e-02	2.678506894e-01	-2.863832559e-04	1.100293379e-11
-1.940000000e-02	2.678506853e-01	-2.836699810e-04	1.463591664e-11
-1.950000000e-02	2.678506811e-01	-2.809567064e-04	7.999553309e-12
-1.960000000e-02	2.678506768e-01	-2.782434322e-04	1.583896671e-11
-1.970000000e-02	2.678506725e-01	-2.755301583e-04	1.591463974e-11
-1.980000000e-02	2.678506680e-01	-2.728168847e-04	1.075416183e-11
-1.990000000e-02	2.678506635e-01	-2.701036114e-04	8.945077488e-12
-2.000000000e-02	2.678506589e-01	-2.673903385e-04	3.952749686e-12
-2.010000000e-02	2.678506542e-01	-2.646770659e-04	7.577124092e-12
-2.020000000e-02	2.678506494e-01	-2.619637936e-04	1.171183322e-11
-2.030000000e-02	2.678506446e-01	-2.592505217e-04	2.388509970e-11
-2.040000000e-02	2.678506396e-01	-2.565372501e-04	4.973212941e-12
-2.050000000e-02	2.678506346e-01	-2.538239789e-04	6.785243479e-12
-2.060000000e-02	2.678506295e-01	-2.511107081e-04	5.197185768e-12
-2.070000000e-02	2.678506243e-01	-2.483974376e-04	7.652338036e-12
-2.080000000e-02	2.678506191e-01	-2.456841675e-04	5.564482258e-11
-2.090000000e-02	2.678506137e-01	-2.429708977e-04	9.610633479e-12
-2.100000000e-02	2.678506083e-01	-2.402576284e-04	8.629960730e-12
-2.110000000e-02	2.678506028e-01	-2.375443594e-04	7.327906350e-12
-2.120000000e-02	2.678505972e-01	-2.348310908e-04	8.288898294e-12
-2.130000000e-02	2.678505915e-01	-2.321178225e-04	5.276596826e-11
-2.140000000e-02	2.678505857e-01	-2.294045547e-04	1.281675467e-11
-2.150000000e-02	2.678505799e-01	-2.266912873e-04	4.913242505e-11
-2.160000000e-02	2.678505740e-01	-2.239780202e-04	2.371397957e-11
-2.170000000e-02	2.678505680e-01	-2.212647536e-04	1.197991063e-11
-2.180000000e-02	2.678505619e-01	-2.185514874e-04	4.491460511e-12
-2.190000000e-02	2.678505557e-01	-2.158382216e-04	1.010800044e-11
-2.200000000e-02	2.678505494e-01	-2.131249562e-04	1.247141994e-11
-2.210000000e-02	2.678505431e-01	-2.104116912e-04	1.375169508e-11
-2.220000000e-02	2.678505367e-01	-2.076984267e-04	2.466093762e-11
-2.230000000e-02	2.678505302e-01	-2.049851625e-04	2.636185874e-11
-2.240000000e-02	2.678505236e-01	-2.022718988e-04	7.112361621e-12
-2.250000000e-02	2.678505169e-01	-1.995586356e-04	5.206575626e-11
-2.260000000e-02	2.678505102e-01	-1.968453728e-04	2.256831712e-11
-2.270000000e-02	2.678505033e-01	-1.941321104e-04	7.549115149e-12
-2.280000000e-02	2.678504964e-01	-1.914188485e-04	1.169947883e-11
-2.290000000e-02	2.678504894e-01	-1.887055871e-04	3.406355171e-11
-2.300000000e-02	2.678504824e-01	-1.859923261e-04	8.219810398e-12
-2.310000000e-02	2.678504752e-01	-1.832790655e-04	1.690973080e-11
-2.320000000e-02	2.678504679e-01	-1.805658055e-04	1.507272111e-11
-2.330000000e-02	2.678504606e-01	-1.778525459e-04	1.277183788e-11
-2.340000000e-02	2.678504532e-01	-1.751392867e-04	6.460135406e-12
-2.350000000e-02	2.678504457e-01	-1.724260281e-04	1.490066891e-11
-2.360000000e-02	2.678504381e-01	-1.697127699e-04	1.384309489e-11
-2.370000000e-02	2.678504305e-01	-1.669995123e-04	3.366170546e-11
-2.380000000e-02	2.678504227e-01	-1.642862551e-04	9.601724096e-12
-2.390000000e-02	2.678504149e-01	-1.615729984e-04	1.409344309e-11
-2.400000000e-02	2.678504070e-01	-1.588597422e-04	9.897338360e-12
-2.410000000e-02	2.678503990e-01	-1.561464865e-04	4.332126998e-11
-2.420000000e-02	2.678503910e-01	-1.534332313e-04	6.273918680e-12
-2.430000000e-02	2.678503828e-01	-1.507199767e-04	1.267048769e-11
-2.440000000e-02	2.678503746e-01	-1.480067225e-04	4.015845625e-11
-2.450000000e-02	2.678503663e-01	-1.452934689e-04	3.991206297e-11
-2.460000000e-02	2.678503579e-01	-1.425802158e-04	1.426442924e-11
-2.470000000e-02	2.678503494e-01	-1.398669632e-04	1.818504687e-11
-2.480000000e-02	2.678503408e-01	-1.371537112e-04	2.647548096e-11
-2.490000000e-02	2.678503322e-01	-1.344404597e-04	8.469574211e-12
-2.500000000e-02	2.678503235e-01	-1.317272088e-04	1.489347890e-11
-2.510000000e-02	2.678503146e-01	-1.290139583e-04	1.299868168e-11
-2.520000000e-02	2.678503057e-01	-1.263007085e-04	8.770866494e-11
-2.530000000e-02	2.678502968e-01	-1.235874592e-04	1.592191468e-11
-2.540000000e-02	2.678502877e-01	-1.208742104e-04	2.792896638e-11
-2.550000000e-02	2.678502786e-01	-1.181609622e-04	1.314782395e-11
-2.560000000e-02	2.678502694e-01	-1.154477146e-04	2.021229065e-11
-2.570000000e-02	2.678502600e-01	-1.127344676e-04	1.809209924e-11
-2.580000000e-02	2.678502507e-01	-1.100212211e-04	5.459262850e-11
-2.590000000e-02	2.678502412e-01	-1.073079752e-04	1.771871871e-11
-2.600000000e-02	2.678502316e-01	-1.045947299e-04	6.768002383e-12
-2.610000000e-02	2.678502220e-01	-1.018814852e-04	1.520895079e-11
-2.620000000e-02	2.678502123e-01	-9.916824105e-05	1.245193279e-11
-2.630000000e-02	2.678502025e-01	-9.645499752e-05	9.106102793e-12
-2.640000000e-02	2.678501926e-01	-9.374175458e-05	7.829411400e-12
-2.650000000e-02	2.678501826e-01	-9.102851225e-05	1.027395893e-11
-2.660000000e-02	2.678501726e-01	-8.831527053e-05	1.401228336e-10
-2.670000000e-02	2.678501625e-01	-8.560202942e-05	8.616318498e-12
-2.680000000e-02	2.678501522e-01	-8.288878893e-05	1.693099669e-11
-2.690000000e-02	2.678501420e-01	-8.017554906e-05	1.289319413e-11
-2.700000000e-02	2.678501316e-01	-7.746230981e-05	1.028026656e-11
-2.710000000e-02	2.678501211e-01	-7.474907120e-05	7.344756611e-12
-2.720000000e-02	2.678501106e-01	-7.203583322e-05	1.069068200e-11
-2.730000000e-02	2.678501000e-01	-6.932259587e-05	8.685115972e-12
-2.740000000e-02	2.678500892e-01	-6.660935917e-05	1.011327916e-11
-2.750000000e-02	2.678500785e-01	-6.389612311e-05	2.029640663e-11
-2.760000000e-02	2.678500676e-01	-6.118288770e-05	8.924210570e-12
-2.770000000e-02	2.678500566e-01	-5.846965295e-05	1.321620877e-11
-2.780000000e-02	2.678500456e-01	-5.575641886e-05	1.787298992e-11
-2.790000000e-02	2.678500345e-01	-5.304318543e-05	1.207179175e-11
-2.800000000e-02	2.678500233e-01	-5.032995266e-05	1.189387729e-11
-2.810000000e-02	2.678500120e-01	-4.761672057e-05	2.895430312e-11
-2.820000000e-02	2.678500006e-01	-4.490348915e-05	1.608726793e-11
-2.830000000e-02	2.678499892e-01	-4.219025841e-05	1.038662840e-11
-2.840000000e-02	2.678499777e-01	-3.947702836e-05	1.318410400e-11
-2.850000000e-02	2.678499660e-01	-3.676379899e-05	9.784621355e-12
-2.860000000e-02	2.678499543e-01	-3.405057031e-05	1.052920564e-11
-2.870000000e-02	2.678499426e-01	-3.133734233e-05	2.535651558e-11
-2.880000000e-02	2.678499307e-01	-2.862411505e-05	8.251144031e-12
-2.890000000e-02	2.678499188e-01	-2.591088848e-05	5.405546693e-12
-2.900000000e-02	2.678499067e-01	-2.319766261e-05	2.031370624e-11
-2.910000000e-02	2.678498946e-01	-2.048443746e-05	1.710404566e-11
-2.920000000e-02	2.678498824e-01	-1.777121302e-05	7.395648583e-12
-2.930000000e-02	2.678498702e-01	-1.505798931e-05	7.842365845e-12
-2.940000000e-02	2.678498578e-01	-1.234476632e-05	1.026502996e-11
-2.950000000e-02	2.678498454e-01	-9.631544057e-06	8.931087199e-12
-2.960000000e-02	2.678498329e-01	-6.918322530e-06	8.446717030e-12
-2.970000000e-02	2.678498203e-01	-4.205101741e-06	1.160300149e-11
-2.980000000e-02	2.678498076e-01	-1.491881694e-06	5.166377981e-11
-2.990000000e-02	2.678497948e-01	1.221337608e-06	1.177860135e-11
-3.000000000e-02	2.678497820e-01	3.934556159e-06	1.387808410e-11
