# Im(epsi1)     Re(omega/c)      Im(omega/c)      Eq(det).Opt det CON kz, R=0.5 \mum, mu_c=0.3, Re(epsi1)=3.90solve_det_conkz_vs_kz.py
0.000000000e+00	2.678552374e-01	-8.100692017e-04	7.136933139e-11
-1.000000000e-04	2.678552492e-01	-8.073559026e-04	1.034216020e-11
-2.000000000e-04	2.678552609e-01	-8.046426030e-04	6.184675672e-12
-3.000000000e-04	2.678552725e-01	-8.019293028e-04	5.941518923e-12
-4.000000000e-04	2.678552840e-01	-7.992160022e-04	1.061669637e-11
-5.000000000e-04	2.678552955e-01	-7.965027012e-04	1.961787410e-11
-6.000000000e-04	2.678553069e-01	-7.937893996e-04	2.434401681e-11
-7.000000000e-04	2.678553182e-01	-7.910760976e-04	3.491597619e-12
-8.000000000e-04	2.678553294e-01	-7.883627951e-04	8.995305551e-12
-9.000000000e-04	2.678553406e-01	-7.856494921e-04	9.810923482e-12
-1.000000000e-03	2.678553516e-01	-7.829361887e-04	4.513649374e-12
-1.100000000e-03	2.678553626e-01	-7.802228848e-04	3.087316644e-11
-1.200000000e-03	2.678553735e-01	-7.775095805e-04	1.083452400e-11
-1.300000000e-03	2.678553843e-01	-7.747962757e-04	1.707983270e-11
-1.400000000e-03	2.678553950e-01	-7.720829705e-04	3.742721760e-11
-1.500000000e-03	2.678554056e-01	-7.693696648e-04	3.234216498e-12
-1.600000000e-03	2.678554162e-01	-7.666563587e-04	1.572979137e-11
-1.700000000e-03	2.678554267e-01	-7.639430522e-04	6.846027703e-12
-1.800000000e-03	2.678554371e-01	-7.612297453e-04	1.176749085e-11
-1.900000000e-03	2.678554474e-01	-7.585164379e-04	4.011232089e-11
-2.000000000e-03	2.678554576e-01	-7.558031301e-04	3.310906678e-11
-2.100000000e-03	2.678554678e-01	-7.530898219e-04	5.655807805e-12
-2.200000000e-03	2.678554778e-01	-7.503765133e-04	2.055722211e-11
-2.300000000e-03	2.678554878e-01	-7.476632043e-04	3.879476445e-12
-2.400000000e-03	2.678554977e-01	-7.449498949e-04	4.542087028e-12
-2.500000000e-03	2.678555075e-01	-7.422365851e-04	2.523107977e-11
-2.600000000e-03	2.678555173e-01	-7.395232748e-04	1.454868945e-11
-2.700000000e-03	2.678555269e-01	-7.368099643e-04	8.280994320e-12
-2.800000000e-03	2.678555365e-01	-7.340966533e-04	1.249446237e-11
-2.900000000e-03	2.678555460e-01	-7.313833419e-04	1.038353394e-11
-3.000000000e-03	2.678555554e-01	-7.286700302e-04	9.432325167e-12
-3.100000000e-03	2.678555647e-01	-7.259567181e-04	1.233300067e-11
-3.200000000e-03	2.678555739e-01	-7.232434056e-04	2.014438754e-11
-3.300000000e-03	2.678555831e-01	-7.205300928e-04	6.201644585e-11
-3.400000000e-03	2.678555922e-01	-7.178167796e-04	9.829895272e-12
-3.500000000e-03	2.678556012e-01	-7.151034660e-04	1.602691309e-11
-3.600000000e-03	2.678556101e-01	-7.123901521e-04	4.897056711e-11
-3.700000000e-03	2.678556189e-01	-7.096768379e-04	1.403616690e-11
-3.800000000e-03	2.678556276e-01	-7.069635233e-04	9.352924543e-12
-3.900000000e-03	2.678556363e-01	-7.042502083e-04	4.343618813e-12
-4.000000000e-03	2.678556449e-01	-7.015368931e-04	6.660558196e-12
-4.100000000e-03	2.678556534e-01	-6.988235775e-04	3.567473611e-12
-4.200000000e-03	2.678556618e-01	-6.961102615e-04	1.007693909e-11
-4.300000000e-03	2.678556701e-01	-6.933969453e-04	1.251290656e-11
-4.400000000e-03	2.678556784e-01	-6.906836287e-04	1.311476598e-11
-4.500000000e-03	2.678556866e-01	-6.879703119e-04	7.396208546e-12
-4.600000000e-03	2.678556946e-01	-6.852569947e-04	7.920113293e-12
-4.700000000e-03	2.678557027e-01	-6.825436772e-04	7.998944388e-12
-4.800000000e-03	2.678557106e-01	-6.798303594e-04	8.661554037e-11
-4.900000000e-03	2.678557184e-01	-6.771170413e-04	1.478001700e-11
-5.000000000e-03	2.678557262e-01	-6.744037229e-04	9.799486353e-12
-5.100000000e-03	2.678557338e-01	-6.716904043e-04	5.029196293e-12
-5.200000000e-03	2.678557414e-01	-6.689770853e-04	9.349430512e-12
-5.300000000e-03	2.678557489e-01	-6.662637661e-04	1.606110790e-11
-5.400000000e-03	2.678557564e-01	-6.635504466e-04	1.919309898e-11
-5.500000000e-03	2.678557637e-01	-6.608371268e-04	1.420453228e-11
-5.600000000e-03	2.678557710e-01	-6.581238068e-04	1.271831380e-11
-5.700000000e-03	2.678557782e-01	-6.554104865e-04	6.960998840e-12
-5.800000000e-03	2.678557853e-01	-6.526971659e-04	1.718144415e-11
-5.900000000e-03	2.678557923e-01	-6.499838451e-04	7.409392587e-11
-6.000000000e-03	2.678557992e-01	-6.472705240e-04	1.705967158e-11
-6.100000000e-03	2.678558061e-01	-6.445572027e-04	9.754620137e-11
-6.200000000e-03	2.678558128e-01	-6.418438811e-04	3.533093623e-12
-6.300000000e-03	2.678558195e-01	-6.391305593e-04	1.216624269e-11
-6.400000000e-03	2.678558261e-01	-6.364172373e-04	4.874006536e-11
-6.500000000e-03	2.678558326e-01	-6.337039150e-04	2.723907514e-11
-6.600000000e-03	2.678558391e-01	-6.309905925e-04	2.646531592e-11
-6.700000000e-03	2.678558454e-01	-6.282772698e-04	5.607312886e-11
-6.800000000e-03	2.678558517e-01	-6.255639469e-04	7.154504080e-12
-6.900000000e-03	2.678558579e-01	-6.228506237e-04	1.421605111e-11
-7.000000000e-03	2.678558640e-01	-6.201373004e-04	2.087615388e-11
-7.100000000e-03	2.678558700e-01	-6.174239768e-04	1.325589987e-11
-7.200000000e-03	2.678558760e-01	-6.147106530e-04	4.834245772e-12
-7.300000000e-03	2.678558818e-01	-6.119973291e-04	6.582095117e-12
-7.400000000e-03	2.678558876e-01	-6.092840049e-04	1.541089051e-11
-7.500000000e-03	2.678558933e-01	-6.065706806e-04	8.248442525e-12
-7.600000000e-03	2.678558989e-01	-6.038573561e-04	1.563553764e-11
-7.700000000e-03	2.678559044e-01	-6.011440314e-04	4.839467035e-12
-7.800000000e-03	2.678559099e-01	-5.984307065e-04	1.848823201e-12
-7.900000000e-03	2.678559153e-01	-5.957173814e-04	7.545517047e-12
-8.000000000e-03	2.678559205e-01	-5.930040562e-04	1.169045634e-11
-8.100000000e-03	2.678559257e-01	-5.902907309e-04	3.868583938e-11
-8.200000000e-03	2.678559309e-01	-5.875774053e-04	2.538480471e-11
-8.300000000e-03	2.678559359e-01	-5.848640796e-04	4.383200088e-11
-8.400000000e-03	2.678559409e-01	-5.821507538e-04	1.344173763e-11
-8.500000000e-03	2.678559457e-01	-5.794374278e-04	1.423935493e-11
-8.600000000e-03	2.678559505e-01	-5.767241017e-04	1.486180215e-11
-8.700000000e-03	2.678559552e-01	-5.740107754e-04	2.441092604e-11
-8.800000000e-03	2.678559599e-01	-5.712974490e-04	1.274315329e-11
-8.900000000e-03	2.678559644e-01	-5.685841224e-04	1.316181342e-10
-9.000000000e-03	2.678559689e-01	-5.658707958e-04	1.406265188e-11
-9.100000000e-03	2.678559732e-01	-5.631574690e-04	3.004310447e-11
-9.200000000e-03	2.678559775e-01	-5.604441421e-04	1.173281455e-10
-9.300000000e-03	2.678559817e-01	-5.577308151e-04	7.726150032e-12
-9.400000000e-03	2.678559859e-01	-5.550174880e-04	9.242950361e-12
-9.500000000e-03	2.678559899e-01	-5.523041607e-04	1.051930323e-11
-9.600000000e-03	2.678559939e-01	-5.495908334e-04	5.678517037e-12
-9.700000000e-03	2.678559978e-01	-5.468775060e-04	1.065867173e-11
-9.800000000e-03	2.678560016e-01	-5.441641785e-04	9.588825521e-12
-9.900000000e-03	2.678560053e-01	-5.414508509e-04	2.170639247e-11
-1.000000000e-02	2.678560089e-01	-5.387375232e-04	9.418462818e-12
-1.010000000e-02	2.678560125e-01	-5.360241954e-04	1.810394473e-11
-1.020000000e-02	2.678560159e-01	-5.333108676e-04	2.481762988e-11
-1.030000000e-02	2.678560193e-01	-5.305975397e-04	1.008339225e-11
-1.040000000e-02	2.678560226e-01	-5.278842117e-04	1.712411725e-11
-1.050000000e-02	2.678560259e-01	-5.251708836e-04	2.696798264e-11
-1.060000000e-02	2.678560290e-01	-5.224575555e-04	7.210347906e-11
-1.070000000e-02	2.678560321e-01	-5.197442274e-04	1.687167224e-11
-1.080000000e-02	2.678560350e-01	-5.170308992e-04	4.284881481e-11
-1.090000000e-02	2.678560379e-01	-5.143175709e-04	1.241246152e-11
-1.100000000e-02	2.678560407e-01	-5.116042426e-04	5.633452254e-11
-1.110000000e-02	2.678560435e-01	-5.088909143e-04	4.073628412e-11
-1.120000000e-02	2.678560461e-01	-5.061775859e-04	3.255510476e-11
-1.130000000e-02	2.678560487e-01	-5.034642575e-04	1.428611122e-11
-1.140000000e-02	2.678560512e-01	-5.007509291e-04	1.875770036e-11
-1.150000000e-02	2.678560536e-01	-4.980376006e-04	1.589181312e-11
-1.160000000e-02	2.678560559e-01	-4.953242722e-04	1.037715744e-11
-1.170000000e-02	2.678560581e-01	-4.926109437e-04	1.596192610e-11
-1.180000000e-02	2.678560603e-01	-4.898976152e-04	1.623307238e-11
-1.190000000e-02	2.678560623e-01	-4.871842867e-04	1.083751318e-11
-1.200000000e-02	2.678560643e-01	-4.844709582e-04	2.776936548e-11
-1.210000000e-02	2.678560662e-01	-4.817576297e-04	8.472341108e-12
-1.220000000e-02	2.678560680e-01	-4.790443012e-04	6.773605474e-12
-1.230000000e-02	2.678560698e-01	-4.763309728e-04	9.955369060e-12
-1.240000000e-02	2.678560714e-01	-4.736176443e-04	6.806083233e-12
-1.250000000e-02	2.678560730e-01	-4.709043159e-04	7.521962706e-12
-1.260000000e-02	2.678560745e-01	-4.681909875e-04	1.626287381e-11
-1.270000000e-02	2.678560759e-01	-4.654776591e-04	1.931227540e-11
-1.280000000e-02	2.678560773e-01	-4.627643308e-04	1.520235165e-11
-1.290000000e-02	2.678560785e-01	-4.600510024e-04	1.197609206e-11
-1.300000000e-02	2.678560797e-01	-4.573376742e-04	1.303968998e-11
-1.310000000e-02	2.678560807e-01	-4.546243460e-04	8.389396852e-12
-1.320000000e-02	2.678560817e-01	-4.519110178e-04	1.040108100e-11
-1.330000000e-02	2.678560827e-01	-4.491976897e-04	5.415660171e-12
-1.340000000e-02	2.678560835e-01	-4.464843616e-04	2.591835831e-11
-1.350000000e-02	2.678560842e-01	-4.437710336e-04	9.727801344e-12
-1.360000000e-02	2.678560849e-01	-4.410577057e-04	1.547398745e-11
-1.370000000e-02	2.678560855e-01	-4.383443778e-04	2.476597063e-11
-1.380000000e-02	2.678560860e-01	-4.356310500e-04	9.518986508e-12
-1.390000000e-02	2.678560864e-01	-4.329177223e-04	8.744532488e-12
-1.400000000e-02	2.678560868e-01	-4.302043947e-04	1.538398782e-11
-1.410000000e-02	2.678560870e-01	-4.274910671e-04	5.580456513e-12
-1.420000000e-02	2.678560872e-01	-4.247777397e-04	8.567130000e-12
-1.430000000e-02	2.678560873e-01	-4.220644123e-04	1.042977435e-11
-1.440000000e-02	2.678560873e-01	-4.193510851e-04	1.708365673e-11
-1.450000000e-02	2.678560872e-01	-4.166377579e-04	1.847676085e-11
-1.460000000e-02	2.678560871e-01	-4.139244309e-04	1.299591019e-11
-1.470000000e-02	2.678560868e-01	-4.112111040e-04	1.481574869e-11
-1.480000000e-02	2.678560865e-01	-4.084977772e-04	1.136178069e-11
-1.490000000e-02	2.678560861e-01	-4.057844505e-04	1.707694360e-11
-1.500000000e-02	2.678560856e-01	-4.030711239e-04	1.135965367e-11
-1.510000000e-02	2.678560850e-01	-4.003577975e-04	5.043338962e-12
-1.520000000e-02	2.678560844e-01	-3.976444711e-04	3.233522771e-11
-1.530000000e-02	2.678560837e-01	-3.949311450e-04	3.551905319e-11
-1.540000000e-02	2.678560828e-01	-3.922178190e-04	1.362051568e-11
-1.550000000e-02	2.678560819e-01	-3.895044931e-04	4.003567883e-12
-1.560000000e-02	2.678560810e-01	-3.867911673e-04	1.323240014e-11
-1.570000000e-02	2.678560799e-01	-3.840778418e-04	1.555129812e-11
-1.580000000e-02	2.678560788e-01	-3.813645163e-04	7.794948852e-12
-1.590000000e-02	2.678560775e-01	-3.786511911e-04	5.184622134e-11
-1.600000000e-02	2.678560762e-01	-3.759378660e-04	4.988533939e-11
-1.610000000e-02	2.678560748e-01	-3.732245411e-04	1.523364615e-11
-1.620000000e-02	2.678560734e-01	-3.705112163e-04	8.188458056e-12
-1.630000000e-02	2.678560718e-01	-3.677978917e-04	2.678105840e-10
-1.640000000e-02	2.678560702e-01	-3.650845674e-04	7.056493570e-12
-1.650000000e-02	2.678560684e-01	-3.623712432e-04	1.630204051e-11
-1.660000000e-02	2.678560666e-01	-3.596579192e-04	2.062383247e-11
-1.670000000e-02	2.678560647e-01	-3.569445953e-04	2.633274343e-12
-1.680000000e-02	2.678560628e-01	-3.542312717e-04	2.178332814e-11
-1.690000000e-02	2.678560607e-01	-3.515179483e-04	7.241314498e-12
-1.700000000e-02	2.678560586e-01	-3.488046251e-04	1.337066667e-11
-1.710000000e-02	2.678560564e-01	-3.460913021e-04	1.379830032e-11
-1.720000000e-02	2.678560541e-01	-3.433779794e-04	7.469480283e-12
-1.730000000e-02	2.678560517e-01	-3.406646568e-04	1.102019087e-11
-1.740000000e-02	2.678560492e-01	-3.379513345e-04	9.853660406e-12
-1.750000000e-02	2.678560467e-01	-3.352380124e-04	1.364484722e-11
-1.760000000e-02	2.678560440e-01	-3.325246905e-04	3.248601303e-12
-1.770000000e-02	2.678560413e-01	-3.298113689e-04	9.993059269e-12
-1.780000000e-02	2.678560385e-01	-3.270980475e-04	9.475696737e-11
-1.790000000e-02	2.678560357e-01	-3.243847264e-04	1.692845954e-11
-1.800000000e-02	2.678560327e-01	-3.216714055e-04	9.537316299e-12
-1.810000000e-02	2.678560297e-01	-3.189580848e-04	1.194355055e-11
-1.820000000e-02	2.678560265e-01	-3.162447645e-04	6.447399883e-12
-1.830000000e-02	2.678560233e-01	-3.135314443e-04	1.128519594e-11
-1.840000000e-02	2.678560201e-01	-3.108181245e-04	1.843839041e-11
-1.850000000e-02	2.678560167e-01	-3.081048049e-04	1.266719349e-11
-1.860000000e-02	2.678560132e-01	-3.053914856e-04	9.474973084e-12
-1.870000000e-02	2.678560097e-01	-3.026781666e-04	1.047471881e-11
-1.880000000e-02	2.678560061e-01	-2.999648478e-04	3.032781646e-11
-1.890000000e-02	2.678560024e-01	-2.972515294e-04	8.440847186e-11
-1.900000000e-02	2.678559986e-01	-2.945382112e-04	2.747141723e-11
-1.910000000e-02	2.678559947e-01	-2.918248933e-04	1.441196859e-11
-1.920000000e-02	2.678559908e-01	-2.891115758e-04	1.116374353e-11
-1.930000000e-02	2.678559868e-01	-2.863982585e-04	1.043240760e-11
-1.940000000e-02	2.678559826e-01	-2.836849416e-04	1.316599533e-11
-1.950000000e-02	2.678559784e-01	-2.809716249e-04	1.062190023e-11
-1.960000000e-02	2.678559742e-01	-2.782583086e-04	4.512730922e-11
-1.970000000e-02	2.678559698e-01	-2.755449926e-04	1.620408608e-11
-1.980000000e-02	2.678559654e-01	-2.728316769e-04	8.342526547e-12
-1.990000000e-02	2.678559608e-01	-2.701183615e-04	1.337793788e-11
-2.000000000e-02	2.678559562e-01	-2.674050465e-04	9.335117396e-12
-2.010000000e-02	2.678559515e-01	-2.646917318e-04	1.422686238e-11
-2.020000000e-02	2.678559468e-01	-2.619784175e-04	2.790267974e-11
-2.030000000e-02	2.678559419e-01	-2.592651035e-04	2.938818257e-11
-2.040000000e-02	2.678559370e-01	-2.565517899e-04	2.268175443e-11
-2.050000000e-02	2.678559320e-01	-2.538384766e-04	1.064362036e-11
-2.060000000e-02	2.678559269e-01	-2.511251636e-04	2.133194447e-11
-2.070000000e-02	2.678559217e-01	-2.484118511e-04	8.745359050e-12
-2.080000000e-02	2.678559164e-01	-2.456985389e-04	6.220740323e-12
-2.090000000e-02	2.678559111e-01	-2.429852270e-04	1.723679119e-11
-2.100000000e-02	2.678559056e-01	-2.402719156e-04	1.220422011e-11
-2.110000000e-02	2.678559001e-01	-2.375586045e-04	1.386645480e-11
-2.120000000e-02	2.678558945e-01	-2.348452938e-04	2.862032562e-11
-2.130000000e-02	2.678558888e-01	-2.321319835e-04	3.414563675e-11
-2.140000000e-02	2.678558831e-01	-2.294186736e-04	1.792118266e-11
-2.150000000e-02	2.678558772e-01	-2.267053640e-04	1.705360560e-11
-2.160000000e-02	2.678558713e-01	-2.239920549e-04	4.874028751e-11
-2.170000000e-02	2.678558653e-01	-2.212787462e-04	1.541870806e-11
-2.180000000e-02	2.678558592e-01	-2.185654379e-04	9.437093803e-12
-2.190000000e-02	2.678558530e-01	-2.158521300e-04	1.454028743e-11
-2.200000000e-02	2.678558468e-01	-2.131388225e-04	8.689405594e-12
-2.210000000e-02	2.678558405e-01	-2.104255155e-04	1.442032319e-11
-2.220000000e-02	2.678558340e-01	-2.077122088e-04	1.043071377e-11
-2.230000000e-02	2.678558275e-01	-2.049989026e-04	4.844220006e-11
-2.240000000e-02	2.678558209e-01	-2.022855968e-04	3.448012950e-11
-2.250000000e-02	2.678558143e-01	-1.995722915e-04	2.227377375e-11
-2.260000000e-02	2.678558075e-01	-1.968589866e-04	2.630398420e-11
-2.270000000e-02	2.678558007e-01	-1.941456822e-04	9.819855255e-12
-2.280000000e-02	2.678557938e-01	-1.914323782e-04	1.194230438e-11
-2.290000000e-02	2.678557868e-01	-1.887190746e-04	9.836998003e-12
-2.300000000e-02	2.678557797e-01	-1.860057715e-04	2.886284787e-11
-2.310000000e-02	2.678557725e-01	-1.832924689e-04	1.130283265e-10
-2.320000000e-02	2.678557653e-01	-1.805791668e-04	8.879904253e-12
-2.330000000e-02	2.678557580e-01	-1.778658651e-04	9.698990556e-12
-2.340000000e-02	2.678557506e-01	-1.751525639e-04	8.263811774e-12
-2.350000000e-02	2.678557431e-01	-1.724392631e-04	2.521624099e-12
-2.360000000e-02	2.678557355e-01	-1.697259629e-04	1.847061791e-11
-2.370000000e-02	2.678557278e-01	-1.670126631e-04	1.246463236e-11
-2.380000000e-02	2.678557201e-01	-1.642993639e-04	2.836581559e-11
-2.390000000e-02	2.678557123e-01	-1.615860651e-04	6.276318518e-12
-2.400000000e-02	2.678557044e-01	-1.588727668e-04	1.092745655e-11
-2.410000000e-02	2.678556964e-01	-1.561594690e-04	1.131721906e-11
-2.420000000e-02	2.678556883e-01	-1.534461718e-04	1.557166731e-11
-2.430000000e-02	2.678556802e-01	-1.507328750e-04	9.088129008e-12
-2.440000000e-02	2.678556719e-01	-1.480195788e-04	1.148124274e-11
-2.450000000e-02	2.678556636e-01	-1.453062831e-04	7.750356035e-12
-2.460000000e-02	2.678556552e-01	-1.425929879e-04	1.841625596e-11
-2.470000000e-02	2.678556467e-01	-1.398796933e-04	1.339240673e-11
-2.480000000e-02	2.678556382e-01	-1.371663991e-04	1.217943249e-11
-2.490000000e-02	2.678556295e-01	-1.344531055e-04	6.068557546e-12
-2.500000000e-02	2.678556208e-01	-1.317398125e-04	8.883271060e-12
-2.510000000e-02	2.678556120e-01	-1.290265200e-04	7.444898867e-12
-2.520000000e-02	2.678556031e-01	-1.263132281e-04	6.798599046e-12
-2.530000000e-02	2.678555941e-01	-1.235999367e-04	2.676834535e-11
-2.540000000e-02	2.678555851e-01	-1.208866458e-04	1.161171404e-11
-2.550000000e-02	2.678555759e-01	-1.181733556e-04	1.669974274e-11
-2.560000000e-02	2.678555667e-01	-1.154600659e-04	4.689025132e-11
-2.570000000e-02	2.678555574e-01	-1.127467767e-04	1.122905515e-11
-2.580000000e-02	2.678555480e-01	-1.100334882e-04	3.331370965e-11
-2.590000000e-02	2.678555385e-01	-1.073202002e-04	8.574390200e-12
-2.600000000e-02	2.678555290e-01	-1.046069128e-04	5.058311176e-12
-2.610000000e-02	2.678555194e-01	-1.018936260e-04	6.973260131e-12
-2.620000000e-02	2.678555096e-01	-9.918033977e-05	1.026512997e-11
-2.630000000e-02	2.678554998e-01	-9.646705414e-05	1.615569149e-11
-2.640000000e-02	2.678554900e-01	-9.375376912e-05	1.370326723e-11
-2.650000000e-02	2.678554800e-01	-9.104048471e-05	8.637803523e-12
-2.660000000e-02	2.678554699e-01	-8.832720090e-05	6.041522774e-11
-2.670000000e-02	2.678554598e-01	-8.561391770e-05	3.075667384e-11
-2.680000000e-02	2.678554496e-01	-8.290063513e-05	4.770699429e-12
-2.690000000e-02	2.678554393e-01	-8.018735317e-05	8.793293043e-11
-2.700000000e-02	2.678554289e-01	-7.747407184e-05	1.691432752e-11
-2.710000000e-02	2.678554185e-01	-7.476079113e-05	1.253745028e-11
-2.720000000e-02	2.678554079e-01	-7.204751106e-05	2.621649869e-11
-2.730000000e-02	2.678553973e-01	-6.933423163e-05	1.496603776e-11
-2.740000000e-02	2.678553866e-01	-6.662095284e-05	1.406199927e-11
-2.750000000e-02	2.678553758e-01	-6.390767470e-05	8.979584908e-12
-2.760000000e-02	2.678553649e-01	-6.119439720e-05	1.867401606e-11
-2.770000000e-02	2.678553540e-01	-5.848112037e-05	1.093347777e-11
-2.780000000e-02	2.678553430e-01	-5.576784418e-05	1.873798434e-11
-2.790000000e-02	2.678553318e-01	-5.305456867e-05	2.361807121e-11
-2.800000000e-02	2.678553206e-01	-5.034129382e-05	1.627967397e-11
-2.810000000e-02	2.678553094e-01	-4.762801964e-05	1.375144066e-11
-2.820000000e-02	2.678552980e-01	-4.491474613e-05	1.895055484e-11
-2.830000000e-02	2.678552865e-01	-4.220147331e-05	1.712913271e-12
-2.840000000e-02	2.678552750e-01	-3.948820116e-05	9.737727697e-12
-2.850000000e-02	2.678552634e-01	-3.677492971e-05	1.337212436e-11
-2.860000000e-02	2.678552517e-01	-3.406165895e-05	4.078256988e-11
-2.870000000e-02	2.678552399e-01	-3.134838888e-05	1.168718997e-11
-2.880000000e-02	2.678552281e-01	-2.863511951e-05	1.448147647e-11
-2.890000000e-02	2.678552161e-01	-2.592185085e-05	1.036857101e-10
-2.900000000e-02	2.678552041e-01	-2.320858290e-05	8.282493045e-12
-2.910000000e-02	2.678551920e-01	-2.049531566e-05	1.421395337e-11
-2.920000000e-02	2.678551798e-01	-1.778204914e-05	1.201301099e-11
-2.930000000e-02	2.678551675e-01	-1.506878333e-05	1.057201170e-11
-2.940000000e-02	2.678551552e-01	-1.235551825e-05	1.440163059e-10
-2.950000000e-02	2.678551427e-01	-9.642253910e-06	1.420813489e-11
-2.960000000e-02	2.678551302e-01	-6.928990295e-06	2.444954879e-11
-2.970000000e-02	2.678551176e-01	-4.215727420e-06	1.476655653e-11
-2.980000000e-02	2.678551049e-01	-1.502465286e-06	3.216916426e-11
-2.990000000e-02	2.678550922e-01	1.210796103e-06	1.016616518e-11
-3.000000000e-02	2.678550793e-01	3.924056741e-06	1.041142415e-11
