# Im(epsi1)     Re(omega/c)      Im(omega/c)      Eq(det).Opt det CON kz, R=0.5 \mum, mu_c=0.3, Re(epsi1)=3.90solve_det_conkz_vs_kz.py
0.000000000e+00	2.678467562e-01	-8.100321777e-04	3.955877238e-11
-1.000000000e-04	2.678467680e-01	-8.073189459e-04	7.121671612e-12
-2.000000000e-04	2.678467797e-01	-8.046057137e-04	1.876010782e-11
-3.000000000e-04	2.678467913e-01	-8.018924809e-04	1.428370774e-11
-4.000000000e-04	2.678468028e-01	-7.991792477e-04	2.909789862e-11
-5.000000000e-04	2.678468143e-01	-7.964660140e-04	2.048123434e-11
-6.000000000e-04	2.678468257e-01	-7.937527798e-04	8.938419261e-12
-7.000000000e-04	2.678468370e-01	-7.910395452e-04	2.775924106e-11
-8.000000000e-04	2.678468482e-01	-7.883263100e-04	2.044220567e-11
-9.000000000e-04	2.678468593e-01	-7.856130745e-04	2.355777681e-11
-1.000000000e-03	2.678468704e-01	-7.828998384e-04	1.600365940e-11
-1.100000000e-03	2.678468814e-01	-7.801866019e-04	1.190703264e-11
-1.200000000e-03	2.678468923e-01	-7.774733650e-04	1.068447111e-11
-1.300000000e-03	2.678469031e-01	-7.747601276e-04	8.708180155e-12
-1.400000000e-03	2.678469138e-01	-7.720468897e-04	2.954542757e-11
-1.500000000e-03	2.678469244e-01	-7.693336514e-04	9.011844717e-12
-1.600000000e-03	2.678469350e-01	-7.666204127e-04	1.380476628e-11
-1.700000000e-03	2.678469455e-01	-7.639071736e-04	3.079515893e-11
-1.800000000e-03	2.678469559e-01	-7.611939340e-04	1.261828840e-11
-1.900000000e-03	2.678469662e-01	-7.584806940e-04	1.155550644e-11
-2.000000000e-03	2.678469764e-01	-7.557674536e-04	1.367256150e-11
-2.100000000e-03	2.678469865e-01	-7.530542128e-04	7.915024861e-12
-2.200000000e-03	2.678469966e-01	-7.503409715e-04	3.837903568e-11
-2.300000000e-03	2.678470066e-01	-7.476277299e-04	5.686662610e-11
-2.400000000e-03	2.678470165e-01	-7.449144879e-04	8.891863473e-12
-2.500000000e-03	2.678470263e-01	-7.422012454e-04	1.339348920e-11
-2.600000000e-03	2.678470360e-01	-7.394880026e-04	8.197742123e-12
-2.700000000e-03	2.678470457e-01	-7.367747594e-04	1.585162215e-11
-2.800000000e-03	2.678470553e-01	-7.340615158e-04	3.553991114e-11
-2.900000000e-03	2.678470647e-01	-7.313482718e-04	1.808781873e-11
-3.000000000e-03	2.678470742e-01	-7.286350274e-04	4.129949539e-11
-3.100000000e-03	2.678470835e-01	-7.259217827e-04	1.425100672e-11
-3.200000000e-03	2.678470927e-01	-7.232085376e-04	1.114529467e-11
-3.300000000e-03	2.678471019e-01	-7.204952921e-04	1.494419622e-11
-3.400000000e-03	2.678471109e-01	-7.177820463e-04	1.983466418e-11
-3.500000000e-03	2.678471199e-01	-7.150688002e-04	7.989552887e-12
-3.600000000e-03	2.678471288e-01	-7.123555536e-04	9.083761728e-12
-3.700000000e-03	2.678471377e-01	-7.096423068e-04	2.936787561e-11
-3.800000000e-03	2.678471464e-01	-7.069290595e-04	5.793919968e-11
-3.900000000e-03	2.678471551e-01	-7.042158120e-04	1.055429340e-11
-4.000000000e-03	2.678471637e-01	-7.015025641e-04	5.570387115e-11
-4.100000000e-03	2.678471722e-01	-6.987893159e-04	3.055486932e-11
-4.200000000e-03	2.678471806e-01	-6.960760673e-04	1.251767188e-11
-4.300000000e-03	2.678471889e-01	-6.933628185e-04	1.377909504e-11
-4.400000000e-03	2.678471972e-01	-6.906495693e-04	2.166680524e-11
-4.500000000e-03	2.678472053e-01	-6.879363198e-04	5.986985522e-12
-4.600000000e-03	2.678472134e-01	-6.852230700e-04	2.880308195e-11
-4.700000000e-03	2.678472214e-01	-6.825098199e-04	1.223303029e-11
-4.800000000e-03	2.678472293e-01	-6.797965695e-04	3.379348580e-11
-4.900000000e-03	2.678472372e-01	-6.770833188e-04	1.034510107e-11
-5.000000000e-03	2.678472449e-01	-6.743700677e-04	2.026348653e-11
-5.100000000e-03	2.678472526e-01	-6.716568165e-04	1.218500001e-11
-5.200000000e-03	2.678472602e-01	-6.689435649e-04	1.588574653e-11
-5.300000000e-03	2.678472677e-01	-6.662303130e-04	1.219569225e-11
-5.400000000e-03	2.678472751e-01	-6.635170609e-04	2.268058705e-11
-5.500000000e-03	2.678472825e-01	-6.608038085e-04	2.692408491e-11
-5.600000000e-03	2.678472897e-01	-6.580905558e-04	5.539333569e-12
-5.700000000e-03	2.678472969e-01	-6.553773029e-04	9.431326893e-12
-5.800000000e-03	2.678473040e-01	-6.526640497e-04	1.445728788e-11
-5.900000000e-03	2.678473110e-01	-6.499507963e-04	2.154729240e-11
-6.000000000e-03	2.678473180e-01	-6.472375426e-04	7.264265164e-12
-6.100000000e-03	2.678473248e-01	-6.445242886e-04	6.868984551e-11
-6.200000000e-03	2.678473316e-01	-6.418110344e-04	9.873920242e-12
-6.300000000e-03	2.678473383e-01	-6.390977800e-04	6.826667785e-12
-6.400000000e-03	2.678473449e-01	-6.363845254e-04	8.108565568e-12
-6.500000000e-03	2.678473514e-01	-6.336712705e-04	2.175396440e-11
-6.600000000e-03	2.678473578e-01	-6.309580153e-04	2.573892998e-11
-6.700000000e-03	2.678473642e-01	-6.282447600e-04	1.418195091e-11
-6.800000000e-03	2.678473705e-01	-6.255315045e-04	1.828069068e-11
-6.900000000e-03	2.678473766e-01	-6.228182487e-04	2.706788027e-11
-7.000000000e-03	2.678473827e-01	-6.201049927e-04	1.007777294e-11
-7.100000000e-03	2.678473888e-01	-6.173917365e-04	1.260313085e-11
-7.200000000e-03	2.678473947e-01	-6.146784802e-04	4.783159709e-11
-7.300000000e-03	2.678474006e-01	-6.119652236e-04	9.347083294e-12
-7.400000000e-03	2.678474064e-01	-6.092519668e-04	1.281320699e-11
-7.500000000e-03	2.678474121e-01	-6.065387098e-04	1.448534730e-11
-7.600000000e-03	2.678474177e-01	-6.038254527e-04	5.907662965e-11
-7.700000000e-03	2.678474232e-01	-6.011121954e-04	1.006374298e-11
-7.800000000e-03	2.678474286e-01	-5.983989379e-04	1.975525362e-11
-7.900000000e-03	2.678474340e-01	-5.956856802e-04	9.872030146e-12
-8.000000000e-03	2.678474393e-01	-5.929724224e-04	7.052003118e-12
-8.100000000e-03	2.678474445e-01	-5.902591644e-04	1.139571362e-11
-8.200000000e-03	2.678474496e-01	-5.875459062e-04	1.663256112e-11
-8.300000000e-03	2.678474546e-01	-5.848326479e-04	1.547551810e-11
-8.400000000e-03	2.678474596e-01	-5.821193894e-04	7.178156189e-12
-8.500000000e-03	2.678474645e-01	-5.794061308e-04	3.613790862e-11
-8.600000000e-03	2.678474693e-01	-5.766928721e-04	1.606565903e-11
-8.700000000e-03	2.678474740e-01	-5.739796132e-04	1.647215588e-11
-8.800000000e-03	2.678474786e-01	-5.712663541e-04	1.336799823e-11
-8.900000000e-03	2.678474831e-01	-5.685530950e-04	6.681044456e-12
-9.000000000e-03	2.678474876e-01	-5.658398357e-04	6.981008755e-12
-9.100000000e-03	2.678474920e-01	-5.631265763e-04	1.267071300e-11
-9.200000000e-03	2.678474963e-01	-5.604133168e-04	8.183861623e-12
-9.300000000e-03	2.678475005e-01	-5.577000571e-04	2.015466446e-11
-9.400000000e-03	2.678475046e-01	-5.549867974e-04	1.264636386e-11
-9.500000000e-03	2.678475087e-01	-5.522735376e-04	1.058704526e-11
-9.600000000e-03	2.678475126e-01	-5.495602776e-04	5.277248424e-12
-9.700000000e-03	2.678475165e-01	-5.468470176e-04	9.338920588e-12
-9.800000000e-03	2.678475203e-01	-5.441337574e-04	6.804133016e-12
-9.900000000e-03	2.678475240e-01	-5.414204972e-04	1.091577992e-11
-1.000000000e-02	2.678475277e-01	-5.387072369e-04	9.151250508e-12
-1.010000000e-02	2.678475312e-01	-5.359939765e-04	6.577920583e-12
-1.020000000e-02	2.678475347e-01	-5.332807160e-04	9.355996442e-12
-1.030000000e-02	2.678475381e-01	-5.305674555e-04	1.078036980e-11
-1.040000000e-02	2.678475414e-01	-5.278541949e-04	2.184977039e-11
-1.050000000e-02	2.678475446e-01	-5.251409342e-04	1.244436295e-11
-1.060000000e-02	2.678475477e-01	-5.224276735e-04	1.257084547e-11
-1.070000000e-02	2.678475508e-01	-5.197144127e-04	1.168419658e-11
-1.080000000e-02	2.678475538e-01	-5.170011519e-04	1.437733622e-11
-1.090000000e-02	2.678475567e-01	-5.142878910e-04	1.111668897e-11
-1.100000000e-02	2.678475595e-01	-5.115746301e-04	2.178258043e-11
-1.110000000e-02	2.678475622e-01	-5.088613691e-04	1.255788053e-11
-1.120000000e-02	2.678475648e-01	-5.061481082e-04	1.179492502e-11
-1.130000000e-02	2.678475674e-01	-5.034348471e-04	9.452281197e-12
-1.140000000e-02	2.678475699e-01	-5.007215861e-04	2.307900948e-11
-1.150000000e-02	2.678475723e-01	-4.980083250e-04	1.585999261e-11
-1.160000000e-02	2.678475746e-01	-4.952950639e-04	8.307730067e-12
-1.170000000e-02	2.678475768e-01	-4.925818028e-04	1.309545275e-11
-1.180000000e-02	2.678475790e-01	-4.898685417e-04	1.402545619e-11
-1.190000000e-02	2.678475811e-01	-4.871552806e-04	1.753941397e-11
-1.200000000e-02	2.678475830e-01	-4.844420195e-04	7.579637581e-12
-1.210000000e-02	2.678475849e-01	-4.817287584e-04	3.339856049e-11
-1.220000000e-02	2.678475868e-01	-4.790154973e-04	1.820951280e-11
-1.230000000e-02	2.678475885e-01	-4.763022362e-04	8.486262447e-12
-1.240000000e-02	2.678475902e-01	-4.735889751e-04	9.179003736e-12
-1.250000000e-02	2.678475917e-01	-4.708757141e-04	6.629453831e-12
-1.260000000e-02	2.678475932e-01	-4.681624530e-04	1.484037096e-11
-1.270000000e-02	2.678475946e-01	-4.654491920e-04	1.542464965e-11
-1.280000000e-02	2.678475960e-01	-4.627359311e-04	1.371611455e-11
-1.290000000e-02	2.678475972e-01	-4.600226702e-04	1.608060538e-11
-1.300000000e-02	2.678475984e-01	-4.573094093e-04	3.093846681e-11
-1.310000000e-02	2.678475995e-01	-4.545961484e-04	1.499894961e-11
-1.320000000e-02	2.678476005e-01	-4.518828876e-04	1.744427145e-11
-1.330000000e-02	2.678476014e-01	-4.491696269e-04	1.232073101e-11
-1.340000000e-02	2.678476022e-01	-4.464563662e-04	3.261273599e-12
-1.350000000e-02	2.678476030e-01	-4.437431056e-04	3.254535952e-11
-1.360000000e-02	2.678476036e-01	-4.410298450e-04	1.476952133e-11
-1.370000000e-02	2.678476042e-01	-4.383165845e-04	1.015457873e-11
-1.380000000e-02	2.678476047e-01	-4.356033241e-04	1.533892393e-11
-1.390000000e-02	2.678476051e-01	-4.328900638e-04	2.643678100e-10
-1.400000000e-02	2.678476055e-01	-4.301768036e-04	1.399745038e-11
-1.410000000e-02	2.678476057e-01	-4.274635434e-04	1.986488361e-11
-1.420000000e-02	2.678476059e-01	-4.247502833e-04	1.282281167e-11
-1.430000000e-02	2.678476060e-01	-4.220370234e-04	3.170991173e-11
-1.440000000e-02	2.678476060e-01	-4.193237635e-04	7.337303537e-12
-1.450000000e-02	2.678476059e-01	-4.166105037e-04	1.072629272e-11
-1.460000000e-02	2.678476058e-01	-4.138972441e-04	1.026376937e-11
-1.470000000e-02	2.678476055e-01	-4.111839845e-04	6.393896550e-12
-1.480000000e-02	2.678476052e-01	-4.084707251e-04	9.372466528e-12
-1.490000000e-02	2.678476048e-01	-4.057574658e-04	1.346796953e-11
-1.500000000e-02	2.678476043e-01	-4.030442066e-04	6.527454092e-11
-1.510000000e-02	2.678476037e-01	-4.003309475e-04	9.175074258e-12
-1.520000000e-02	2.678476031e-01	-3.976176886e-04	7.313817856e-12
-1.530000000e-02	2.678476024e-01	-3.949044298e-04	1.866865344e-11
-1.540000000e-02	2.678476015e-01	-3.921911711e-04	6.103350795e-12
-1.550000000e-02	2.678476006e-01	-3.894779126e-04	1.647872385e-11
-1.560000000e-02	2.678475997e-01	-3.867646543e-04	1.466277717e-11
-1.570000000e-02	2.678475986e-01	-3.840513961e-04	7.330730113e-12
-1.580000000e-02	2.678475975e-01	-3.813381380e-04	1.369649021e-11
-1.590000000e-02	2.678475962e-01	-3.786248802e-04	1.119684094e-11
-1.600000000e-02	2.678475949e-01	-3.759116225e-04	1.733320239e-11
-1.610000000e-02	2.678475935e-01	-3.731983649e-04	1.141393654e-11
-1.620000000e-02	2.678475921e-01	-3.704851075e-04	1.019267790e-11
-1.630000000e-02	2.678475905e-01	-3.677718504e-04	1.344668122e-11
-1.640000000e-02	2.678475889e-01	-3.650585933e-04	7.693412279e-12
-1.650000000e-02	2.678475871e-01	-3.623453365e-04	3.786622439e-11
-1.660000000e-02	2.678475853e-01	-3.596320799e-04	1.282672145e-11
-1.670000000e-02	2.678475834e-01	-3.569188235e-04	6.554763559e-12
-1.680000000e-02	2.678475815e-01	-3.542055672e-04	1.881392615e-11
-1.690000000e-02	2.678475794e-01	-3.514923112e-04	8.874595372e-12
-1.700000000e-02	2.678475773e-01	-3.487790554e-04	5.241155197e-11
-1.710000000e-02	2.678475751e-01	-3.460657998e-04	1.548440577e-11
-1.720000000e-02	2.678475728e-01	-3.433525444e-04	1.515952303e-11
-1.730000000e-02	2.678475704e-01	-3.406392892e-04	2.107906796e-11
-1.740000000e-02	2.678475679e-01	-3.379260343e-04	6.151057434e-12
-1.750000000e-02	2.678475654e-01	-3.352127796e-04	8.212015329e-12
-1.760000000e-02	2.678475627e-01	-3.324995251e-04	1.274525395e-11
-1.770000000e-02	2.678475600e-01	-3.297862708e-04	8.703978605e-12
-1.780000000e-02	2.678475572e-01	-3.270730168e-04	2.572284615e-11
-1.790000000e-02	2.678475544e-01	-3.243597631e-04	1.084131163e-11
-1.800000000e-02	2.678475514e-01	-3.216465095e-04	4.117266073e-11
-1.810000000e-02	2.678475484e-01	-3.189332563e-04	5.091969734e-12
-1.820000000e-02	2.678475452e-01	-3.162200033e-04	1.382318741e-11
-1.830000000e-02	2.678475420e-01	-3.135067506e-04	3.858904753e-11
-1.840000000e-02	2.678475387e-01	-3.107934981e-04	3.582991963e-11
-1.850000000e-02	2.678475354e-01	-3.080802459e-04	2.441922041e-11
-1.860000000e-02	2.678475319e-01	-3.053669940e-04	6.753385167e-12
-1.870000000e-02	2.678475284e-01	-3.026537423e-04	2.698853215e-11
-1.880000000e-02	2.678475248e-01	-2.999404910e-04	1.258226409e-11
-1.890000000e-02	2.678475211e-01	-2.972272399e-04	1.898835315e-11
-1.900000000e-02	2.678475173e-01	-2.945139891e-04	1.134078700e-11
-1.910000000e-02	2.678475134e-01	-2.918007386e-04	2.357215307e-11
-1.920000000e-02	2.678475095e-01	-2.890874884e-04	9.420082803e-12
-1.930000000e-02	2.678475054e-01	-2.863742385e-04	1.881508740e-11
-1.940000000e-02	2.678475013e-01	-2.836609890e-04	4.317545931e-12
-1.950000000e-02	2.678474971e-01	-2.809477397e-04	1.274329575e-11
-1.960000000e-02	2.678474929e-01	-2.782344908e-04	1.067996371e-11
-1.970000000e-02	2.678474885e-01	-2.755212421e-04	2.034349672e-11
-1.980000000e-02	2.678474841e-01	-2.728079938e-04	1.509604193e-11
-1.990000000e-02	2.678474795e-01	-2.700947459e-04	1.875924251e-11
-2.000000000e-02	2.678474749e-01	-2.673814982e-04	7.369958116e-12
-2.010000000e-02	2.678474702e-01	-2.646682509e-04	1.108900996e-11
-2.020000000e-02	2.678474655e-01	-2.619550040e-04	1.368673812e-11
-2.030000000e-02	2.678474606e-01	-2.592417573e-04	7.905965310e-12
-2.040000000e-02	2.678474557e-01	-2.565285111e-04	3.470095677e-11
-2.050000000e-02	2.678474506e-01	-2.538152652e-04	7.708040951e-12
-2.060000000e-02	2.678474455e-01	-2.511020196e-04	1.633452247e-11
-2.070000000e-02	2.678474404e-01	-2.483887744e-04	1.001611309e-11
-2.080000000e-02	2.678474351e-01	-2.456755296e-04	1.373947689e-11
-2.090000000e-02	2.678474297e-01	-2.429622851e-04	1.370078218e-11
-2.100000000e-02	2.678474243e-01	-2.402490411e-04	3.394757719e-11
-2.110000000e-02	2.678474188e-01	-2.375357974e-04	1.839155918e-11
-2.120000000e-02	2.678474132e-01	-2.348225541e-04	6.467388971e-12
-2.130000000e-02	2.678474075e-01	-2.321093111e-04	1.777885755e-11
-2.140000000e-02	2.678474018e-01	-2.293960686e-04	9.444581647e-12
-2.150000000e-02	2.678473959e-01	-2.266828264e-04	5.518744753e-12
-2.160000000e-02	2.678473900e-01	-2.239695847e-04	1.568838229e-11
-2.170000000e-02	2.678473840e-01	-2.212563434e-04	2.026400548e-11
-2.180000000e-02	2.678473779e-01	-2.185431024e-04	1.381548083e-11
-2.190000000e-02	2.678473717e-01	-2.158298619e-04	2.988090755e-11
-2.200000000e-02	2.678473655e-01	-2.131166218e-04	1.349906084e-11
-2.210000000e-02	2.678473591e-01	-2.104033821e-04	8.779190878e-12
-2.220000000e-02	2.678473527e-01	-2.076901429e-04	6.064492419e-12
-2.230000000e-02	2.678473462e-01	-2.049769041e-04	2.471708779e-11
-2.240000000e-02	2.678473396e-01	-2.022636657e-04	5.942869877e-12
-2.250000000e-02	2.678473329e-01	-1.995504277e-04	7.094690657e-12
-2.260000000e-02	2.678473262e-01	-1.968371902e-04	6.260363965e-12
-2.270000000e-02	2.678473194e-01	-1.941239531e-04	2.292721020e-11
-2.280000000e-02	2.678473125e-01	-1.914107165e-04	1.597404832e-11
-2.290000000e-02	2.678473055e-01	-1.886974804e-04	5.604518754e-12
-2.300000000e-02	2.678472984e-01	-1.859842447e-04	1.304290779e-11
-2.310000000e-02	2.678472912e-01	-1.832710094e-04	2.020558719e-11
-2.320000000e-02	2.678472840e-01	-1.805577746e-04	1.433460244e-11
-2.330000000e-02	2.678472766e-01	-1.778445403e-04	6.401507882e-12
-2.340000000e-02	2.678472692e-01	-1.751313065e-04	6.949564309e-12
-2.350000000e-02	2.678472617e-01	-1.724180732e-04	1.325908650e-11
-2.360000000e-02	2.678472542e-01	-1.697048403e-04	2.476809666e-11
-2.370000000e-02	2.678472465e-01	-1.669916079e-04	1.685648822e-11
-2.380000000e-02	2.678472388e-01	-1.642783760e-04	1.112531129e-11
-2.390000000e-02	2.678472309e-01	-1.615651446e-04	1.126315316e-11
-2.400000000e-02	2.678472230e-01	-1.588519137e-04	2.226381588e-11
-2.410000000e-02	2.678472151e-01	-1.561386834e-04	8.148704625e-12
-2.420000000e-02	2.678472070e-01	-1.534254535e-04	1.106480540e-11
-2.430000000e-02	2.678471988e-01	-1.507122241e-04	1.159918111e-11
-2.440000000e-02	2.678471906e-01	-1.479989953e-04	1.535375249e-11
-2.450000000e-02	2.678471823e-01	-1.452857669e-04	2.007183408e-10
-2.460000000e-02	2.678471739e-01	-1.425725391e-04	7.997480511e-12
-2.470000000e-02	2.678471654e-01	-1.398593119e-04	1.987441273e-11
-2.480000000e-02	2.678471568e-01	-1.371460851e-04	3.671452759e-11
-2.490000000e-02	2.678471482e-01	-1.344328589e-04	1.340283082e-11
-2.500000000e-02	2.678471395e-01	-1.317196333e-04	1.024522232e-11
-2.510000000e-02	2.678471307e-01	-1.290064081e-04	7.850249292e-12
-2.520000000e-02	2.678471218e-01	-1.262931836e-04	8.608979924e-12
-2.530000000e-02	2.678471128e-01	-1.235799596e-04	1.199413008e-11
-2.540000000e-02	2.678471037e-01	-1.208667361e-04	9.019163431e-12
-2.550000000e-02	2.678470946e-01	-1.181535132e-04	2.141885531e-11
-2.560000000e-02	2.678470854e-01	-1.154402909e-04	8.755114694e-12
-2.570000000e-02	2.678470761e-01	-1.127270691e-04	1.479427365e-11
-2.580000000e-02	2.678470667e-01	-1.100138480e-04	5.099204204e-11
-2.590000000e-02	2.678470572e-01	-1.073006274e-04	4.514045084e-11
-2.600000000e-02	2.678470477e-01	-1.045874074e-04	1.174042839e-10
-2.610000000e-02	2.678470380e-01	-1.018741879e-04	1.584640980e-11
-2.620000000e-02	2.678470283e-01	-9.916096910e-05	1.458131083e-11
-2.630000000e-02	2.678470185e-01	-9.644775086e-05	3.177927926e-11
-2.640000000e-02	2.678470086e-01	-9.373453322e-05	4.777306698e-12
-2.650000000e-02	2.678469987e-01	-9.102131618e-05	2.053867953e-11
-2.660000000e-02	2.678469886e-01	-8.830809976e-05	1.833589675e-11
-2.670000000e-02	2.678469785e-01	-8.559488394e-05	1.455261714e-11
-2.680000000e-02	2.678469683e-01	-8.288166875e-05	1.876397892e-11
-2.690000000e-02	2.678469580e-01	-8.016845417e-05	1.108328920e-11
-2.700000000e-02	2.678469476e-01	-7.745524022e-05	1.395156697e-11
-2.710000000e-02	2.678469371e-01	-7.474202690e-05	1.438865691e-11
-2.720000000e-02	2.678469266e-01	-7.202881421e-05	4.944118876e-11
-2.730000000e-02	2.678469160e-01	-6.931560217e-05	2.165632350e-11
-2.740000000e-02	2.678469053e-01	-6.660239076e-05	1.662413558e-11
-2.750000000e-02	2.678468945e-01	-6.388917999e-05	1.100152317e-10
-2.760000000e-02	2.678468836e-01	-6.117596988e-05	1.181276607e-11
-2.770000000e-02	2.678468726e-01	-5.846276043e-05	1.263877035e-11
-2.780000000e-02	2.678468616e-01	-5.574955163e-05	9.019704511e-12
-2.790000000e-02	2.678468505e-01	-5.303634349e-05	1.727851862e-11
-2.800000000e-02	2.678468393e-01	-5.032313602e-05	8.200282573e-12
-2.810000000e-02	2.678468280e-01	-4.760992922e-05	2.197079523e-11
-2.820000000e-02	2.678468166e-01	-4.489672310e-05	2.487947393e-11
-2.830000000e-02	2.678468052e-01	-4.218351766e-05	1.534750818e-11
-2.840000000e-02	2.678467937e-01	-3.947031290e-05	7.761319020e-11
-2.850000000e-02	2.678467821e-01	-3.675710883e-05	1.870274175e-11
-2.860000000e-02	2.678467704e-01	-3.404390545e-05	1.493179377e-11
-2.870000000e-02	2.678467586e-01	-3.133070276e-05	1.218641229e-11
-2.880000000e-02	2.678467467e-01	-2.861750078e-05	1.140549381e-11
-2.890000000e-02	2.678467348e-01	-2.590429950e-05	1.803321882e-11
-2.900000000e-02	2.678467228e-01	-2.319109893e-05	1.836522651e-11
-2.910000000e-02	2.678467106e-01	-2.047789907e-05	8.697293324e-12
-2.920000000e-02	2.678466985e-01	-1.776469993e-05	1.329738289e-11
-2.930000000e-02	2.678466862e-01	-1.505150151e-05	1.754997303e-11
-2.940000000e-02	2.678466738e-01	-1.233830381e-05	2.336626121e-11
-2.950000000e-02	2.678466614e-01	-9.625106850e-06	3.191624262e-11
-2.960000000e-02	2.678466489e-01	-6.911910616e-06	1.919636433e-11
-2.970000000e-02	2.678466363e-01	-4.198715124e-06	2.646743546e-11
-2.980000000e-02	2.678466236e-01	-1.485520371e-06	2.161792246e-11
-2.990000000e-02	2.678466108e-01	1.227673635e-06	2.722768771e-11
-3.000000000e-02	2.678465980e-01	3.940866889e-06	4.728856662e-12
