# Im(epsi1)     Re(omega/c)      Im(omega/c)      Eq(det).Opt det CON kz, R=0.5 \mum, mu_c=0.3, Re(epsi1)=3.90solve_det_conkz_vs_kz.py
0.000000000e+00	2.678594811e-01	-8.100877280e-04	1.059228236e-11
-1.000000000e-04	2.678594929e-01	-8.073743951e-04	2.068453182e-11
-2.000000000e-04	2.678595046e-01	-8.046610618e-04	1.513807657e-11
-3.000000000e-04	2.678595162e-01	-8.019477279e-04	1.704707487e-11
-4.000000000e-04	2.678595278e-01	-7.992343936e-04	1.018726175e-11
-5.000000000e-04	2.678595393e-01	-7.965210588e-04	1.372258720e-11
-6.000000000e-04	2.678595506e-01	-7.938077235e-04	1.319915458e-11
-7.000000000e-04	2.678595619e-01	-7.910943878e-04	2.136203729e-11
-8.000000000e-04	2.678595732e-01	-7.883810516e-04	1.464133037e-11
-9.000000000e-04	2.678595843e-01	-7.856677149e-04	9.170264704e-12
-1.000000000e-03	2.678595954e-01	-7.829543778e-04	4.373307591e-12
-1.100000000e-03	2.678596063e-01	-7.802410402e-04	1.068602404e-11
-1.200000000e-03	2.678596172e-01	-7.775277021e-04	2.487956495e-10
-1.300000000e-03	2.678596280e-01	-7.748143636e-04	3.443265284e-11
-1.400000000e-03	2.678596387e-01	-7.721010247e-04	1.224855804e-11
-1.500000000e-03	2.678596494e-01	-7.693876853e-04	6.128634243e-12
-1.600000000e-03	2.678596599e-01	-7.666743455e-04	1.752767535e-11
-1.700000000e-03	2.678596704e-01	-7.639610053e-04	1.403832256e-11
-1.800000000e-03	2.678596808e-01	-7.612476646e-04	1.997677238e-11
-1.900000000e-03	2.678596911e-01	-7.585343235e-04	1.741773349e-11
-2.000000000e-03	2.678597014e-01	-7.558209820e-04	9.694074372e-12
-2.100000000e-03	2.678597115e-01	-7.531076401e-04	2.526228242e-11
-2.200000000e-03	2.678597216e-01	-7.503942978e-04	3.921628722e-12
-2.300000000e-03	2.678597316e-01	-7.476809551e-04	9.768718530e-12
-2.400000000e-03	2.678597415e-01	-7.449676119e-04	1.533768034e-11
-2.500000000e-03	2.678597513e-01	-7.422542684e-04	2.961834514e-12
-2.600000000e-03	2.678597610e-01	-7.395409245e-04	1.110784469e-11
-2.700000000e-03	2.678597707e-01	-7.368275802e-04	6.112279710e-12
-2.800000000e-03	2.678597802e-01	-7.341142355e-04	1.363778231e-11
-2.900000000e-03	2.678597897e-01	-7.314008904e-04	1.579727629e-11
-3.000000000e-03	2.678597991e-01	-7.286875450e-04	2.406805748e-11
-3.100000000e-03	2.678598084e-01	-7.259741991e-04	1.206925254e-11
-3.200000000e-03	2.678598177e-01	-7.232608530e-04	9.621712614e-12
-3.300000000e-03	2.678598268e-01	-7.205475064e-04	5.788942538e-12
-3.400000000e-03	2.678598359e-01	-7.178341595e-04	1.473922925e-11
-3.500000000e-03	2.678598449e-01	-7.151208122e-04	1.650537959e-11
-3.600000000e-03	2.678598538e-01	-7.124074646e-04	2.046257292e-11
-3.700000000e-03	2.678598627e-01	-7.096941166e-04	5.610830085e-12
-3.800000000e-03	2.678598714e-01	-7.069807683e-04	2.378617937e-11
-3.900000000e-03	2.678598801e-01	-7.042674197e-04	2.642703102e-11
-4.000000000e-03	2.678598886e-01	-7.015540707e-04	1.338215073e-11
-4.100000000e-03	2.678598971e-01	-6.988407214e-04	1.476262514e-11
-4.200000000e-03	2.678599056e-01	-6.961273717e-04	2.939301036e-12
-4.300000000e-03	2.678599139e-01	-6.934140218e-04	1.633477712e-11
-4.400000000e-03	2.678599222e-01	-6.907006715e-04	1.285983492e-11
-4.500000000e-03	2.678599303e-01	-6.879873209e-04	1.231374930e-11
-4.600000000e-03	2.678599384e-01	-6.852739700e-04	4.112174272e-11
-4.700000000e-03	2.678599464e-01	-6.825606188e-04	1.398956744e-11
-4.800000000e-03	2.678599543e-01	-6.798472673e-04	3.517470010e-12
-4.900000000e-03	2.678599622e-01	-6.771339155e-04	1.547385280e-11
-5.000000000e-03	2.678599699e-01	-6.744205634e-04	6.710825578e-12
-5.100000000e-03	2.678599776e-01	-6.717072110e-04	2.054337482e-11
-5.200000000e-03	2.678599852e-01	-6.689938584e-04	1.113174733e-11
-5.300000000e-03	2.678599927e-01	-6.662805054e-04	1.292209431e-11
-5.400000000e-03	2.678600001e-01	-6.635671522e-04	8.480361952e-12
-5.500000000e-03	2.678600075e-01	-6.608537987e-04	1.202116422e-11
-5.600000000e-03	2.678600147e-01	-6.581404449e-04	3.432392672e-11
-5.700000000e-03	2.678600219e-01	-6.554270909e-04	3.771875554e-12
-5.800000000e-03	2.678600290e-01	-6.527137366e-04	1.498142386e-11
-5.900000000e-03	2.678600360e-01	-6.500003821e-04	3.112040041e-11
-6.000000000e-03	2.678600430e-01	-6.472870273e-04	9.903414075e-12
-6.100000000e-03	2.678600498e-01	-6.445736723e-04	2.223232530e-11
-6.200000000e-03	2.678600566e-01	-6.418603170e-04	1.642104203e-11
-6.300000000e-03	2.678600633e-01	-6.391469615e-04	6.206209723e-12
-6.400000000e-03	2.678600699e-01	-6.364336057e-04	7.829783906e-12
-6.500000000e-03	2.678600764e-01	-6.337202497e-04	8.073264591e-11
-6.600000000e-03	2.678600828e-01	-6.310068935e-04	6.065835432e-12
-6.700000000e-03	2.678600892e-01	-6.282935371e-04	1.579888023e-11
-6.800000000e-03	2.678600955e-01	-6.255801804e-04	1.416706774e-11
-6.900000000e-03	2.678601017e-01	-6.228668236e-04	3.038734830e-11
-7.000000000e-03	2.678601078e-01	-6.201534665e-04	5.591314596e-11
-7.100000000e-03	2.678601138e-01	-6.174401092e-04	1.478335844e-11
-7.200000000e-03	2.678601197e-01	-6.147267518e-04	4.361026860e-12
-7.300000000e-03	2.678601256e-01	-6.120133941e-04	6.985220488e-12
-7.400000000e-03	2.678601314e-01	-6.093000362e-04	1.586769954e-11
-7.500000000e-03	2.678601371e-01	-6.065866782e-04	1.026137940e-11
-7.600000000e-03	2.678601427e-01	-6.038733199e-04	9.519332770e-11
-7.700000000e-03	2.678601482e-01	-6.011599615e-04	1.438159949e-11
-7.800000000e-03	2.678601537e-01	-5.984466029e-04	1.645215297e-11
-7.900000000e-03	2.678601590e-01	-5.957332442e-04	8.148083783e-12
-8.000000000e-03	2.678601643e-01	-5.930198852e-04	1.358207914e-11
-8.100000000e-03	2.678601695e-01	-5.903065261e-04	1.403037563e-11
-8.200000000e-03	2.678601746e-01	-5.875931669e-04	1.200222706e-11
-8.300000000e-03	2.678601797e-01	-5.848798075e-04	4.573580714e-11
-8.400000000e-03	2.678601846e-01	-5.821664479e-04	1.160732762e-11
-8.500000000e-03	2.678601895e-01	-5.794530882e-04	8.399652613e-12
-8.600000000e-03	2.678601943e-01	-5.767397284e-04	2.019166960e-11
-8.700000000e-03	2.678601990e-01	-5.740263684e-04	4.034119504e-11
-8.800000000e-03	2.678602036e-01	-5.713130083e-04	1.150067586e-11
-8.900000000e-03	2.678602082e-01	-5.685996480e-04	4.215252461e-12
-9.000000000e-03	2.678602126e-01	-5.658862876e-04	6.643916168e-12
-9.100000000e-03	2.678602170e-01	-5.631729271e-04	1.213314308e-11
-9.200000000e-03	2.678602213e-01	-5.604595665e-04	1.236221441e-11
-9.300000000e-03	2.678602255e-01	-5.577462058e-04	1.196706701e-11
-9.400000000e-03	2.678602296e-01	-5.550328449e-04	9.987964626e-12
-9.500000000e-03	2.678602337e-01	-5.523194840e-04	1.990903336e-11
-9.600000000e-03	2.678602377e-01	-5.496061230e-04	2.016819852e-11
-9.700000000e-03	2.678602415e-01	-5.468927618e-04	1.581466714e-11
-9.800000000e-03	2.678602453e-01	-5.441794006e-04	2.113752287e-11
-9.900000000e-03	2.678602491e-01	-5.414660393e-04	8.989162685e-12
-1.000000000e-02	2.678602527e-01	-5.387526779e-04	1.755124530e-11
-1.010000000e-02	2.678602562e-01	-5.360393164e-04	2.310336030e-11
-1.020000000e-02	2.678602597e-01	-5.333259548e-04	2.704183190e-12
-1.030000000e-02	2.678602631e-01	-5.306125932e-04	9.529077509e-12
-1.040000000e-02	2.678602664e-01	-5.278992315e-04	2.870728428e-11
-1.050000000e-02	2.678602696e-01	-5.251858697e-04	1.194702887e-11
-1.060000000e-02	2.678602728e-01	-5.224725079e-04	2.107663780e-11
-1.070000000e-02	2.678602758e-01	-5.197591460e-04	2.419464811e-11
-1.080000000e-02	2.678602788e-01	-5.170457841e-04	2.348752136e-12
-1.090000000e-02	2.678602817e-01	-5.143324221e-04	9.166955766e-12
-1.100000000e-02	2.678602845e-01	-5.116190601e-04	1.437751901e-11
-1.110000000e-02	2.678602872e-01	-5.089056981e-04	1.045816872e-11
-1.120000000e-02	2.678602899e-01	-5.061923360e-04	7.738563989e-12
-1.130000000e-02	2.678602925e-01	-5.034789739e-04	3.278148329e-11
-1.140000000e-02	2.678602949e-01	-5.007656117e-04	2.178789853e-11
-1.150000000e-02	2.678602973e-01	-4.980522496e-04	1.127344339e-11
-1.160000000e-02	2.678602997e-01	-4.953388874e-04	1.261528727e-11
-1.170000000e-02	2.678603019e-01	-4.926255252e-04	1.154016514e-11
-1.180000000e-02	2.678603040e-01	-4.899121630e-04	7.108883129e-12
-1.190000000e-02	2.678603061e-01	-4.871988008e-04	2.750017187e-11
-1.200000000e-02	2.678603081e-01	-4.844854386e-04	1.552353701e-11
-1.210000000e-02	2.678603100e-01	-4.817720764e-04	5.490274542e-11
-1.220000000e-02	2.678603118e-01	-4.790587142e-04	7.805143866e-12
-1.230000000e-02	2.678603136e-01	-4.763453520e-04	8.637088672e-12
-1.240000000e-02	2.678603152e-01	-4.736319898e-04	2.450061782e-11
-1.250000000e-02	2.678603168e-01	-4.709186277e-04	4.337940714e-11
-1.260000000e-02	2.678603183e-01	-4.682052655e-04	1.196874877e-11
-1.270000000e-02	2.678603197e-01	-4.654919034e-04	6.452350825e-12
-1.280000000e-02	2.678603210e-01	-4.627785414e-04	1.149336586e-11
-1.290000000e-02	2.678603223e-01	-4.600651794e-04	1.122526163e-11
-1.300000000e-02	2.678603234e-01	-4.573518174e-04	6.788199725e-12
-1.310000000e-02	2.678603245e-01	-4.546384554e-04	2.737459408e-11
-1.320000000e-02	2.678603255e-01	-4.519250935e-04	1.349727235e-11
-1.330000000e-02	2.678603264e-01	-4.492117317e-04	6.654970452e-12
-1.340000000e-02	2.678603273e-01	-4.464983699e-04	1.241308746e-11
-1.350000000e-02	2.678603280e-01	-4.437850082e-04	7.373129078e-12
-1.360000000e-02	2.678603287e-01	-4.410716466e-04	9.166791316e-12
-1.370000000e-02	2.678603293e-01	-4.383582850e-04	1.602775561e-11
-1.380000000e-02	2.678603298e-01	-4.356449235e-04	4.146363154e-12
-1.390000000e-02	2.678603302e-01	-4.329315620e-04	3.046707758e-11
-1.400000000e-02	2.678603305e-01	-4.302182007e-04	2.400695429e-12
-1.410000000e-02	2.678603308e-01	-4.275048394e-04	2.263168055e-12
-1.420000000e-02	2.678603310e-01	-4.247914783e-04	5.847767847e-12
-1.430000000e-02	2.678603311e-01	-4.220781172e-04	3.150057609e-12
-1.440000000e-02	2.678603311e-01	-4.193647562e-04	3.173885914e-11
-1.450000000e-02	2.678603310e-01	-4.166513954e-04	1.223708945e-11
-1.460000000e-02	2.678603308e-01	-4.139380346e-04	1.411189672e-11
-1.470000000e-02	2.678603306e-01	-4.112246740e-04	4.085268262e-11
-1.480000000e-02	2.678603303e-01	-4.085113134e-04	6.868598828e-12
-1.490000000e-02	2.678603299e-01	-4.057979530e-04	3.110818488e-11
-1.500000000e-02	2.678603294e-01	-4.030845927e-04	1.766843583e-11
-1.510000000e-02	2.678603288e-01	-4.003712326e-04	1.325426642e-11
-1.520000000e-02	2.678603282e-01	-3.976578726e-04	2.532582657e-11
-1.530000000e-02	2.678603274e-01	-3.949445127e-04	1.093331082e-11
-1.540000000e-02	2.678603266e-01	-3.922311529e-04	2.060498652e-11
-1.550000000e-02	2.678603257e-01	-3.895177933e-04	1.501245564e-11
-1.560000000e-02	2.678603248e-01	-3.868044339e-04	6.817339836e-11
-1.570000000e-02	2.678603237e-01	-3.840910746e-04	3.659648820e-11
-1.580000000e-02	2.678603225e-01	-3.813777155e-04	3.521993260e-11
-1.590000000e-02	2.678603213e-01	-3.786643565e-04	8.968339288e-12
-1.600000000e-02	2.678603200e-01	-3.759509977e-04	8.301406380e-12
-1.610000000e-02	2.678603186e-01	-3.732376390e-04	2.137208244e-11
-1.620000000e-02	2.678603171e-01	-3.705242806e-04	1.930087285e-11
-1.630000000e-02	2.678603156e-01	-3.678109223e-04	9.278591746e-12
-1.640000000e-02	2.678603139e-01	-3.650975642e-04	7.069025675e-12
-1.650000000e-02	2.678603122e-01	-3.623842063e-04	1.200726856e-12
-1.660000000e-02	2.678603104e-01	-3.596708485e-04	1.581908928e-11
-1.670000000e-02	2.678603085e-01	-3.569574910e-04	3.318285422e-12
-1.680000000e-02	2.678603066e-01	-3.542441337e-04	2.135006176e-11
-1.690000000e-02	2.678603045e-01	-3.515307765e-04	2.945824503e-11
-1.700000000e-02	2.678603024e-01	-3.488174196e-04	9.584537724e-12
-1.710000000e-02	2.678603002e-01	-3.461040629e-04	1.898536062e-11
-1.720000000e-02	2.678602979e-01	-3.433907064e-04	1.265221470e-11
-1.730000000e-02	2.678602955e-01	-3.406773502e-04	1.607348752e-11
-1.740000000e-02	2.678602930e-01	-3.379639941e-04	1.093868075e-11
-1.750000000e-02	2.678602905e-01	-3.352506383e-04	9.576444251e-12
-1.760000000e-02	2.678602878e-01	-3.325372827e-04	2.148924938e-11
-1.770000000e-02	2.678602851e-01	-3.298239274e-04	5.514792495e-11
-1.780000000e-02	2.678602823e-01	-3.271105723e-04	3.807159325e-11
-1.790000000e-02	2.678602795e-01	-3.243972174e-04	1.867893148e-11
-1.800000000e-02	2.678602765e-01	-3.216838628e-04	7.157015088e-12
-1.810000000e-02	2.678602735e-01	-3.189705085e-04	5.236877591e-11
-1.820000000e-02	2.678602703e-01	-3.162571544e-04	1.802321648e-11
-1.830000000e-02	2.678602671e-01	-3.135438005e-04	1.120460200e-11
-1.840000000e-02	2.678602638e-01	-3.108304470e-04	1.252916131e-11
-1.850000000e-02	2.678602605e-01	-3.081170937e-04	2.793696334e-11
-1.860000000e-02	2.678602570e-01	-3.054037406e-04	4.825184502e-11
-1.870000000e-02	2.678602535e-01	-3.026903879e-04	2.608552660e-11
-1.880000000e-02	2.678602499e-01	-2.999770354e-04	2.549906272e-11
-1.890000000e-02	2.678602462e-01	-2.972636833e-04	1.979258134e-11
-1.900000000e-02	2.678602424e-01	-2.945503314e-04	1.352154322e-11
-1.910000000e-02	2.678602385e-01	-2.918369798e-04	1.152490446e-11
-1.920000000e-02	2.678602346e-01	-2.891236285e-04	1.766960928e-11
-1.930000000e-02	2.678602305e-01	-2.864102775e-04	8.144879329e-12
-1.940000000e-02	2.678602264e-01	-2.836969269e-04	4.592905396e-11
-1.950000000e-02	2.678602222e-01	-2.809835765e-04	9.257533101e-12
-1.960000000e-02	2.678602180e-01	-2.782702265e-04	3.697859622e-11
-1.970000000e-02	2.678602136e-01	-2.755568767e-04	2.452738251e-11
-1.980000000e-02	2.678602092e-01	-2.728435273e-04	1.129664031e-11
-1.990000000e-02	2.678602046e-01	-2.701301783e-04	5.391077633e-12
-2.000000000e-02	2.678602000e-01	-2.674168295e-04	9.511144455e-12
-2.010000000e-02	2.678601953e-01	-2.647034811e-04	9.471515735e-12
-2.020000000e-02	2.678601906e-01	-2.619901331e-04	1.741946533e-11
-2.030000000e-02	2.678601857e-01	-2.592767854e-04	1.017946544e-11
-2.040000000e-02	2.678601808e-01	-2.565634380e-04	6.282460432e-12
-2.050000000e-02	2.678601758e-01	-2.538500910e-04	1.974631723e-10
-2.060000000e-02	2.678601707e-01	-2.511367443e-04	6.397532517e-12
-2.070000000e-02	2.678601655e-01	-2.484233980e-04	3.684818906e-11
-2.080000000e-02	2.678601602e-01	-2.457100521e-04	8.887962246e-12
-2.090000000e-02	2.678601549e-01	-2.429967066e-04	7.438937722e-12
-2.100000000e-02	2.678601494e-01	-2.402833614e-04	1.378356811e-11
-2.110000000e-02	2.678601439e-01	-2.375700166e-04	1.955028321e-11
-2.120000000e-02	2.678601383e-01	-2.348566722e-04	1.348401421e-11
-2.130000000e-02	2.678601326e-01	-2.321433282e-04	2.644915041e-11
-2.140000000e-02	2.678601269e-01	-2.294299845e-04	1.466374589e-12
-2.150000000e-02	2.678601210e-01	-2.267166413e-04	6.197734649e-12
-2.160000000e-02	2.678601151e-01	-2.240032984e-04	9.972136885e-12
-2.170000000e-02	2.678601091e-01	-2.212899560e-04	1.090379763e-11
-2.180000000e-02	2.678601030e-01	-2.185766140e-04	4.252419607e-11
-2.190000000e-02	2.678600968e-01	-2.158632724e-04	1.569312452e-11
-2.200000000e-02	2.678600906e-01	-2.131499312e-04	4.419277886e-12
-2.210000000e-02	2.678600843e-01	-2.104365904e-04	1.847128825e-11
-2.220000000e-02	2.678600778e-01	-2.077232500e-04	9.755585905e-12
-2.230000000e-02	2.678600713e-01	-2.050099101e-04	8.541524369e-12
-2.240000000e-02	2.678600647e-01	-2.022965706e-04	1.974587851e-11
-2.250000000e-02	2.678600581e-01	-1.995832316e-04	2.174548671e-11
-2.260000000e-02	2.678600513e-01	-1.968698930e-04	2.099190360e-11
-2.270000000e-02	2.678600445e-01	-1.941565548e-04	2.861347091e-11
-2.280000000e-02	2.678600376e-01	-1.914432171e-04	1.369189951e-11
-2.290000000e-02	2.678600306e-01	-1.887298798e-04	5.665223976e-12
-2.300000000e-02	2.678600235e-01	-1.860165430e-04	9.348693182e-12
-2.310000000e-02	2.678600163e-01	-1.833032067e-04	4.072422094e-11
-2.320000000e-02	2.678600091e-01	-1.805898708e-04	1.890956618e-12
-2.330000000e-02	2.678600018e-01	-1.778765354e-04	1.486168808e-11
-2.340000000e-02	2.678599944e-01	-1.751632005e-04	1.267067978e-11
-2.350000000e-02	2.678599869e-01	-1.724498660e-04	2.995351235e-12
-2.360000000e-02	2.678599793e-01	-1.697365321e-04	2.366722590e-11
-2.370000000e-02	2.678599716e-01	-1.670231986e-04	3.745148246e-11
-2.380000000e-02	2.678599639e-01	-1.643098656e-04	1.216021834e-11
-2.390000000e-02	2.678599561e-01	-1.615965331e-04	1.046508748e-11
-2.400000000e-02	2.678599482e-01	-1.588832011e-04	3.705284458e-11
-2.410000000e-02	2.678599402e-01	-1.561698696e-04	7.120768288e-12
-2.420000000e-02	2.678599321e-01	-1.534565387e-04	1.385963140e-11
-2.430000000e-02	2.678599240e-01	-1.507432082e-04	9.305200259e-12
-2.440000000e-02	2.678599157e-01	-1.480298782e-04	1.619445948e-11
-2.450000000e-02	2.678599074e-01	-1.453165488e-04	1.252482015e-11
-2.460000000e-02	2.678598990e-01	-1.426032199e-04	2.603204142e-11
-2.470000000e-02	2.678598905e-01	-1.398898915e-04	1.394016899e-11
-2.480000000e-02	2.678598820e-01	-1.371765637e-04	1.703092151e-11
-2.490000000e-02	2.678598733e-01	-1.344632364e-04	1.910082288e-11
-2.500000000e-02	2.678598646e-01	-1.317499096e-04	1.110574048e-11
-2.510000000e-02	2.678598558e-01	-1.290365834e-04	4.650171653e-12
-2.520000000e-02	2.678598469e-01	-1.263232578e-04	2.210724754e-11
-2.530000000e-02	2.678598379e-01	-1.236099326e-04	1.134047013e-11
-2.540000000e-02	2.678598289e-01	-1.208966081e-04	1.118872681e-11
-2.550000000e-02	2.678598197e-01	-1.181832841e-04	2.050854792e-11
-2.560000000e-02	2.678598105e-01	-1.154699607e-04	8.084443209e-12
-2.570000000e-02	2.678598012e-01	-1.127566378e-04	9.427105431e-12
-2.580000000e-02	2.678597918e-01	-1.100433156e-04	9.263142169e-12
-2.590000000e-02	2.678597824e-01	-1.073299939e-04	1.052373256e-11
-2.600000000e-02	2.678597728e-01	-1.046166727e-04	1.456098830e-11
-2.610000000e-02	2.678597632e-01	-1.019033522e-04	4.712046193e-11
-2.620000000e-02	2.678597534e-01	-9.919003228e-05	1.346654991e-11
-2.630000000e-02	2.678597437e-01	-9.647671294e-05	1.147117906e-11
-2.640000000e-02	2.678597338e-01	-9.376339420e-05	9.131888048e-12
-2.650000000e-02	2.678597238e-01	-9.105007607e-05	4.060081521e-11
-2.660000000e-02	2.678597138e-01	-8.833675854e-05	2.030178331e-11
-2.670000000e-02	2.678597036e-01	-8.562344163e-05	1.228662471e-11
-2.680000000e-02	2.678596934e-01	-8.291012533e-05	6.581311475e-12
-2.690000000e-02	2.678596831e-01	-8.019680966e-05	5.266621187e-11
-2.700000000e-02	2.678596727e-01	-7.748349461e-05	7.036380851e-12
-2.710000000e-02	2.678596623e-01	-7.477018019e-05	5.949556518e-11
-2.720000000e-02	2.678596517e-01	-7.205686640e-05	1.787642095e-11
-2.730000000e-02	2.678596411e-01	-6.934355325e-05	5.214641026e-12
-2.740000000e-02	2.678596304e-01	-6.663024074e-05	1.172316801e-11
-2.750000000e-02	2.678596196e-01	-6.391692888e-05	5.544644576e-12
-2.760000000e-02	2.678596088e-01	-6.120361767e-05	1.883703906e-11
-2.770000000e-02	2.678595978e-01	-5.849030711e-05	7.116725561e-12
-2.780000000e-02	2.678595868e-01	-5.577699721e-05	7.117356628e-12
-2.790000000e-02	2.678595757e-01	-5.306368798e-05	2.843807294e-11
-2.800000000e-02	2.678595645e-01	-5.035037941e-05	4.229290900e-11
-2.810000000e-02	2.678595532e-01	-4.763707151e-05	2.539335315e-11
-2.820000000e-02	2.678595418e-01	-4.492376429e-05	9.015683321e-12
-2.830000000e-02	2.678595304e-01	-4.221045774e-05	1.846809694e-12
-2.840000000e-02	2.678595188e-01	-3.949715188e-05	9.595973622e-12
-2.850000000e-02	2.678595072e-01	-3.678384671e-05	1.691260632e-11
-2.860000000e-02	2.678594955e-01	-3.407054223e-05	2.783995050e-11
-2.870000000e-02	2.678594837e-01	-3.135723845e-05	6.923062533e-12
-2.880000000e-02	2.678594719e-01	-2.864393536e-05	1.086827962e-11
-2.890000000e-02	2.678594599e-01	-2.593063298e-05	1.020757372e-11
-2.900000000e-02	2.678594479e-01	-2.321733131e-05	4.544096074e-12
-2.910000000e-02	2.678594358e-01	-2.050403035e-05	1.399325961e-11
-2.920000000e-02	2.678594236e-01	-1.779073011e-05	7.647262376e-12
-2.930000000e-02	2.678594113e-01	-1.507743059e-05	1.418270884e-11
-2.940000000e-02	2.678593990e-01	-1.236413180e-05	1.880769628e-11
-2.950000000e-02	2.678593866e-01	-9.650833732e-06	1.505789217e-11
-2.960000000e-02	2.678593740e-01	-6.937536400e-06	3.794554825e-11
-2.970000000e-02	2.678593614e-01	-4.224239805e-06	6.325381845e-12
-2.980000000e-02	2.678593488e-01	-1.510943953e-06	3.815291601e-11
-2.990000000e-02	2.678593360e-01	1.202351153e-06	1.305294332e-11
-3.000000000e-02	2.678593231e-01	3.915645509e-06	1.850263550e-11
