# Im(epsi1)     Re(omega/c)      Im(omega/c)      Eq(det).Opt det CON kz, R=0.5 \mum, mu_c=0.3, Re(epsi1)=3.90solve_det_conkz_vs_kz.py
0.000000000e+00	2.678462743e-01	-8.100300740e-04	6.538347080e-12
-1.000000000e-04	2.678462860e-01	-8.073168461e-04	2.616196495e-11
-2.000000000e-04	2.678462978e-01	-8.046036176e-04	6.740092960e-12
-3.000000000e-04	2.678463094e-01	-8.018903887e-04	1.423168022e-11
-4.000000000e-04	2.678463209e-01	-7.991771593e-04	9.386658708e-12
-5.000000000e-04	2.678463324e-01	-7.964639295e-04	3.285844700e-11
-6.000000000e-04	2.678463438e-01	-7.937506991e-04	1.926454400e-11
-7.000000000e-04	2.678463551e-01	-7.910374683e-04	1.062362506e-11
-8.000000000e-04	2.678463663e-01	-7.883242370e-04	3.082063311e-11
-9.000000000e-04	2.678463774e-01	-7.856110052e-04	2.927652766e-11
-1.000000000e-03	2.678463885e-01	-7.828977730e-04	2.423614055e-10
-1.100000000e-03	2.678463995e-01	-7.801845403e-04	1.833910491e-11
-1.200000000e-03	2.678464104e-01	-7.774713072e-04	4.232018357e-11
-1.300000000e-03	2.678464212e-01	-7.747580736e-04	1.299532036e-11
-1.400000000e-03	2.678464319e-01	-7.720448396e-04	1.987743598e-11
-1.500000000e-03	2.678464425e-01	-7.693316052e-04	3.824874309e-11
-1.600000000e-03	2.678464531e-01	-7.666183703e-04	9.868700354e-12
-1.700000000e-03	2.678464636e-01	-7.639051350e-04	5.445603763e-11
-1.800000000e-03	2.678464739e-01	-7.611918992e-04	8.876246450e-12
-1.900000000e-03	2.678464843e-01	-7.584786631e-04	1.148629667e-11
-2.000000000e-03	2.678464945e-01	-7.557654265e-04	7.406578880e-12
-2.100000000e-03	2.678465046e-01	-7.530521895e-04	1.421853565e-11
-2.200000000e-03	2.678465147e-01	-7.503389521e-04	7.067756960e-12
-2.300000000e-03	2.678465247e-01	-7.476257143e-04	1.230279588e-11
-2.400000000e-03	2.678465346e-01	-7.449124761e-04	4.573478654e-10
-2.500000000e-03	2.678465444e-01	-7.421992374e-04	2.571800194e-11
-2.600000000e-03	2.678465541e-01	-7.394859984e-04	1.431654069e-11
-2.700000000e-03	2.678465638e-01	-7.367727591e-04	1.714287862e-11
-2.800000000e-03	2.678465734e-01	-7.340595193e-04	1.223913657e-11
-2.900000000e-03	2.678465828e-01	-7.313462791e-04	1.956950918e-11
-3.000000000e-03	2.678465922e-01	-7.286330386e-04	1.020246703e-11
-3.100000000e-03	2.678466016e-01	-7.259197977e-04	1.895434850e-11
-3.200000000e-03	2.678466108e-01	-7.232065564e-04	1.162159268e-11
-3.300000000e-03	2.678466200e-01	-7.204933148e-04	1.049441133e-11
-3.400000000e-03	2.678466290e-01	-7.177800728e-04	1.256080753e-11
-3.500000000e-03	2.678466380e-01	-7.150668305e-04	8.802898638e-12
-3.600000000e-03	2.678466469e-01	-7.123535878e-04	8.527928285e-12
-3.700000000e-03	2.678466558e-01	-7.096403447e-04	3.053445798e-11
-3.800000000e-03	2.678466645e-01	-7.069271013e-04	1.255749979e-11
-3.900000000e-03	2.678466732e-01	-7.042138576e-04	1.188375752e-11
-4.000000000e-03	2.678466818e-01	-7.015006135e-04	1.666134975e-11
-4.100000000e-03	2.678466903e-01	-6.987873691e-04	1.920934699e-11
-4.200000000e-03	2.678466987e-01	-6.960741244e-04	1.328978513e-11
-4.300000000e-03	2.678467070e-01	-6.933608794e-04	6.615094393e-12
-4.400000000e-03	2.678467153e-01	-6.906476340e-04	5.201868534e-11
-4.500000000e-03	2.678467234e-01	-6.879343884e-04	3.664412521e-11
-4.600000000e-03	2.678467315e-01	-6.852211424e-04	8.297380493e-12
-4.700000000e-03	2.678467395e-01	-6.825078961e-04	1.759207727e-11
-4.800000000e-03	2.678467474e-01	-6.797946495e-04	1.815408729e-11
-4.900000000e-03	2.678467553e-01	-6.770814026e-04	1.101163773e-11
-5.000000000e-03	2.678467630e-01	-6.743681555e-04	1.130897560e-11
-5.100000000e-03	2.678467707e-01	-6.716549080e-04	7.677769904e-12
-5.200000000e-03	2.678467783e-01	-6.689416603e-04	1.616859605e-11
-5.300000000e-03	2.678467858e-01	-6.662284122e-04	1.375452668e-11
-5.400000000e-03	2.678467932e-01	-6.635151639e-04	1.946462556e-11
-5.500000000e-03	2.678468006e-01	-6.608019154e-04	1.000819308e-11
-5.600000000e-03	2.678468078e-01	-6.580886665e-04	1.216679940e-11
-5.700000000e-03	2.678468150e-01	-6.553754174e-04	1.052159170e-11
-5.800000000e-03	2.678468221e-01	-6.526621681e-04	9.930540867e-12
-5.900000000e-03	2.678468291e-01	-6.499489184e-04	2.854641418e-11
-6.000000000e-03	2.678468361e-01	-6.472356686e-04	1.152869002e-11
-6.100000000e-03	2.678468429e-01	-6.445224185e-04	8.749687890e-12
-6.200000000e-03	2.678468497e-01	-6.418091681e-04	1.364873734e-11
-6.300000000e-03	2.678468564e-01	-6.390959175e-04	3.262596072e-11
-6.400000000e-03	2.678468630e-01	-6.363826667e-04	2.903057151e-11
-6.500000000e-03	2.678468695e-01	-6.336694156e-04	8.876307428e-12
-6.600000000e-03	2.678468759e-01	-6.309561643e-04	2.238663053e-11
-6.700000000e-03	2.678468823e-01	-6.282429128e-04	1.136506898e-11
-6.800000000e-03	2.678468885e-01	-6.255296611e-04	1.860359954e-11
-6.900000000e-03	2.678468947e-01	-6.228164092e-04	2.136357903e-11
-7.000000000e-03	2.678469008e-01	-6.201031570e-04	1.538171564e-11
-7.100000000e-03	2.678469069e-01	-6.173899047e-04	7.924848912e-12
-7.200000000e-03	2.678469128e-01	-6.146766521e-04	1.001856338e-11
-7.300000000e-03	2.678469187e-01	-6.119633993e-04	1.024526303e-11
-7.400000000e-03	2.678469244e-01	-6.092501464e-04	6.283667972e-12
-7.500000000e-03	2.678469301e-01	-6.065368933e-04	1.195496954e-11
-7.600000000e-03	2.678469358e-01	-6.038236400e-04	1.153493302e-11
-7.700000000e-03	2.678469413e-01	-6.011103865e-04	5.762690482e-11
-7.800000000e-03	2.678469467e-01	-5.983971328e-04	6.794814937e-11
-7.900000000e-03	2.678469521e-01	-5.956838790e-04	1.450200321e-11
-8.000000000e-03	2.678469574e-01	-5.929706249e-04	1.784393845e-11
-8.100000000e-03	2.678469626e-01	-5.902573708e-04	8.995616363e-12
-8.200000000e-03	2.678469677e-01	-5.875441164e-04	8.787303032e-12
-8.300000000e-03	2.678469727e-01	-5.848308620e-04	1.387962472e-11
-8.400000000e-03	2.678469777e-01	-5.821176073e-04	1.947754101e-11
-8.500000000e-03	2.678469826e-01	-5.794043525e-04	3.032852476e-11
-8.600000000e-03	2.678469874e-01	-5.766910976e-04	6.495996754e-12
-8.700000000e-03	2.678469921e-01	-5.739778425e-04	8.140028825e-12
-8.800000000e-03	2.678469967e-01	-5.712645873e-04	1.076624899e-11
-8.900000000e-03	2.678470012e-01	-5.685513320e-04	2.429288721e-11
-9.000000000e-03	2.678470057e-01	-5.658380766e-04	2.043331268e-11
-9.100000000e-03	2.678470101e-01	-5.631248210e-04	8.320747859e-12
-9.200000000e-03	2.678470144e-01	-5.604115653e-04	6.032330545e-11
-9.300000000e-03	2.678470186e-01	-5.576983095e-04	1.566765904e-11
-9.400000000e-03	2.678470227e-01	-5.549850536e-04	1.023896759e-11
-9.500000000e-03	2.678470267e-01	-5.522717976e-04	1.247440561e-11
-9.600000000e-03	2.678470307e-01	-5.495585414e-04	1.185806456e-11
-9.700000000e-03	2.678470346e-01	-5.468452852e-04	1.570324921e-11
-9.800000000e-03	2.678470384e-01	-5.441320289e-04	1.489559636e-11
-9.900000000e-03	2.678470421e-01	-5.414187725e-04	1.649433792e-11
-1.000000000e-02	2.678470457e-01	-5.387055160e-04	2.074398443e-11
-1.010000000e-02	2.678470493e-01	-5.359922595e-04	1.216442521e-11
-1.020000000e-02	2.678470528e-01	-5.332790028e-04	8.194411528e-12
-1.030000000e-02	2.678470562e-01	-5.305657461e-04	1.724099203e-11
-1.040000000e-02	2.678470595e-01	-5.278524894e-04	1.122297536e-11
-1.050000000e-02	2.678470627e-01	-5.251392325e-04	1.260153866e-11
-1.060000000e-02	2.678470658e-01	-5.224259756e-04	2.519098287e-11
-1.070000000e-02	2.678470689e-01	-5.197127187e-04	3.525447878e-11
-1.080000000e-02	2.678470719e-01	-5.169994617e-04	6.647380577e-11
-1.090000000e-02	2.678470747e-01	-5.142862046e-04	1.614616030e-11
-1.100000000e-02	2.678470776e-01	-5.115729475e-04	1.613602166e-11
-1.110000000e-02	2.678470803e-01	-5.088596904e-04	6.707106679e-12
-1.120000000e-02	2.678470829e-01	-5.061464332e-04	1.551461835e-11
-1.130000000e-02	2.678470855e-01	-5.034331760e-04	9.382829078e-12
-1.140000000e-02	2.678470880e-01	-5.007199188e-04	7.934279324e-12
-1.150000000e-02	2.678470904e-01	-4.980066616e-04	2.923139336e-11
-1.160000000e-02	2.678470927e-01	-4.952934043e-04	4.781436802e-11
-1.170000000e-02	2.678470949e-01	-4.925801471e-04	1.109476616e-11
-1.180000000e-02	2.678470971e-01	-4.898668898e-04	4.458153130e-12
-1.190000000e-02	2.678470991e-01	-4.871536325e-04	1.085843267e-11
-1.200000000e-02	2.678471011e-01	-4.844403752e-04	6.054954641e-12
-1.210000000e-02	2.678471030e-01	-4.817271179e-04	9.338971278e-12
-1.220000000e-02	2.678471049e-01	-4.790138607e-04	3.282914018e-11
-1.230000000e-02	2.678471066e-01	-4.763006034e-04	6.661587521e-12
-1.240000000e-02	2.678471083e-01	-4.735873461e-04	2.871941135e-11
-1.250000000e-02	2.678471098e-01	-4.708740889e-04	1.232927646e-11
-1.260000000e-02	2.678471113e-01	-4.681608317e-04	1.083905769e-11
-1.270000000e-02	2.678471127e-01	-4.654475746e-04	1.915646003e-11
-1.280000000e-02	2.678471141e-01	-4.627343174e-04	9.302207147e-12
-1.290000000e-02	2.678471153e-01	-4.600210603e-04	1.032046917e-11
-1.300000000e-02	2.678471165e-01	-4.573078033e-04	7.093053069e-12
-1.310000000e-02	2.678471175e-01	-4.545945462e-04	5.771865843e-12
-1.320000000e-02	2.678471185e-01	-4.518812893e-04	1.488642976e-11
-1.330000000e-02	2.678471195e-01	-4.491680324e-04	2.745143567e-11
-1.340000000e-02	2.678471203e-01	-4.464547755e-04	1.077867621e-11
-1.350000000e-02	2.678471210e-01	-4.437415187e-04	8.158908969e-12
-1.360000000e-02	2.678471217e-01	-4.410282620e-04	2.841628473e-11
-1.370000000e-02	2.678471223e-01	-4.383150053e-04	1.080193560e-11
-1.380000000e-02	2.678471228e-01	-4.356017488e-04	1.540934630e-11
-1.390000000e-02	2.678471232e-01	-4.328884923e-04	5.635629563e-11
-1.400000000e-02	2.678471236e-01	-4.301752358e-04	1.114003775e-11
-1.410000000e-02	2.678471238e-01	-4.274619795e-04	9.939880201e-12
-1.420000000e-02	2.678471240e-01	-4.247487233e-04	1.835649207e-11
-1.430000000e-02	2.678471241e-01	-4.220354671e-04	1.018335733e-11
-1.440000000e-02	2.678471241e-01	-4.193222111e-04	7.892223871e-12
-1.450000000e-02	2.678471240e-01	-4.166089551e-04	1.591134572e-11
-1.460000000e-02	2.678471239e-01	-4.138956993e-04	1.231016336e-11
-1.470000000e-02	2.678471236e-01	-4.111824436e-04	8.825109255e-12
-1.480000000e-02	2.678471233e-01	-4.084691880e-04	5.542734014e-12
-1.490000000e-02	2.678471229e-01	-4.057559325e-04	1.141609434e-11
-1.500000000e-02	2.678471224e-01	-4.030426771e-04	1.246063850e-11
-1.510000000e-02	2.678471218e-01	-4.003294219e-04	8.702669751e-12
-1.520000000e-02	2.678471212e-01	-3.976161668e-04	7.261488350e-12
-1.530000000e-02	2.678471204e-01	-3.949029118e-04	1.337947711e-11
-1.540000000e-02	2.678471196e-01	-3.921896570e-04	1.117022390e-11
-1.550000000e-02	2.678471187e-01	-3.894764023e-04	1.639507931e-11
-1.560000000e-02	2.678471178e-01	-3.867631478e-04	2.026704918e-11
-1.570000000e-02	2.678471167e-01	-3.840498934e-04	5.659898182e-12
-1.580000000e-02	2.678471155e-01	-3.813366392e-04	1.369459617e-11
-1.590000000e-02	2.678471143e-01	-3.786233852e-04	9.013445927e-12
-1.600000000e-02	2.678471130e-01	-3.759101313e-04	2.046786196e-11
-1.610000000e-02	2.678471116e-01	-3.731968776e-04	4.766278117e-12
-1.620000000e-02	2.678471101e-01	-3.704836240e-04	1.233395264e-11
-1.630000000e-02	2.678471086e-01	-3.677703707e-04	1.261769248e-11
-1.640000000e-02	2.678471069e-01	-3.650571175e-04	2.874486177e-11
-1.650000000e-02	2.678471052e-01	-3.623438645e-04	1.839241804e-11
-1.660000000e-02	2.678471034e-01	-3.596306117e-04	1.463105217e-11
-1.670000000e-02	2.678471015e-01	-3.569173591e-04	1.844460715e-11
-1.680000000e-02	2.678470996e-01	-3.542041067e-04	1.547549298e-11
-1.690000000e-02	2.678470975e-01	-3.514908545e-04	5.503697347e-12
-1.700000000e-02	2.678470954e-01	-3.487776025e-04	1.061450841e-11
-1.710000000e-02	2.678470932e-01	-3.460643507e-04	3.766723761e-11
-1.720000000e-02	2.678470909e-01	-3.433510992e-04	2.766550172e-11
-1.730000000e-02	2.678470885e-01	-3.406378478e-04	1.261433043e-11
-1.740000000e-02	2.678470860e-01	-3.379245967e-04	1.190214901e-11
-1.750000000e-02	2.678470835e-01	-3.352113458e-04	7.177292854e-12
-1.760000000e-02	2.678470808e-01	-3.324980952e-04	1.185174639e-11
-1.770000000e-02	2.678470781e-01	-3.297848447e-04	8.257077969e-12
-1.780000000e-02	2.678470753e-01	-3.270715946e-04	1.681583663e-11
-1.790000000e-02	2.678470724e-01	-3.243583446e-04	3.994197207e-12
-1.800000000e-02	2.678470695e-01	-3.216450950e-04	1.097172649e-11
-1.810000000e-02	2.678470664e-01	-3.189318455e-04	1.879476458e-11
-1.820000000e-02	2.678470633e-01	-3.162185964e-04	5.445746911e-12
-1.830000000e-02	2.678470601e-01	-3.135053475e-04	1.607711180e-10
-1.840000000e-02	2.678470568e-01	-3.107920988e-04	8.348289978e-12
-1.850000000e-02	2.678470535e-01	-3.080788504e-04	2.928467203e-11
-1.860000000e-02	2.678470500e-01	-3.053656023e-04	2.015492584e-10
-1.870000000e-02	2.678470465e-01	-3.026523545e-04	2.086633269e-11
-1.880000000e-02	2.678470429e-01	-2.999391070e-04	6.875026289e-12
-1.890000000e-02	2.678470392e-01	-2.972258597e-04	1.626893692e-11
-1.900000000e-02	2.678470354e-01	-2.945126128e-04	1.189786539e-11
-1.910000000e-02	2.678470315e-01	-2.917993661e-04	6.887180170e-12
-1.920000000e-02	2.678470276e-01	-2.890861198e-04	8.133189734e-12
-1.930000000e-02	2.678470235e-01	-2.863728737e-04	7.693680236e-12
-1.940000000e-02	2.678470194e-01	-2.836596280e-04	1.272025463e-11
-1.950000000e-02	2.678470152e-01	-2.809463825e-04	1.331377666e-11
-1.960000000e-02	2.678470109e-01	-2.782331374e-04	1.043752784e-11
-1.970000000e-02	2.678470066e-01	-2.755198926e-04	2.092373300e-11
-1.980000000e-02	2.678470021e-01	-2.728066481e-04	3.412100638e-11
-1.990000000e-02	2.678469976e-01	-2.700934040e-04	1.560906525e-11
-2.000000000e-02	2.678469930e-01	-2.673801602e-04	7.670529461e-12
-2.010000000e-02	2.678469883e-01	-2.646669167e-04	8.238422579e-12
-2.020000000e-02	2.678469835e-01	-2.619536736e-04	1.748244429e-11
-2.030000000e-02	2.678469787e-01	-2.592404308e-04	7.754572087e-12
-2.040000000e-02	2.678469738e-01	-2.565271884e-04	1.709079756e-11
-2.050000000e-02	2.678469687e-01	-2.538139463e-04	6.644173285e-12
-2.060000000e-02	2.678469636e-01	-2.511007046e-04	1.451015896e-11
-2.070000000e-02	2.678469584e-01	-2.483874632e-04	2.716964824e-11
-2.080000000e-02	2.678469532e-01	-2.456742222e-04	6.031637345e-11
-2.090000000e-02	2.678469478e-01	-2.429609816e-04	1.012915190e-11
-2.100000000e-02	2.678469424e-01	-2.402477413e-04	1.611475910e-11
-2.110000000e-02	2.678469369e-01	-2.375345015e-04	1.898294598e-11
-2.120000000e-02	2.678469313e-01	-2.348212620e-04	1.019755631e-11
-2.130000000e-02	2.678469256e-01	-2.321080229e-04	3.039214360e-11
-2.140000000e-02	2.678469198e-01	-2.293947842e-04	9.708475785e-12
-2.150000000e-02	2.678469140e-01	-2.266815459e-04	1.898257935e-11
-2.160000000e-02	2.678469081e-01	-2.239683079e-04	1.508717406e-11
-2.170000000e-02	2.678469021e-01	-2.212550704e-04	2.024674198e-11
-2.180000000e-02	2.678468960e-01	-2.185418333e-04	7.800164833e-12
-2.190000000e-02	2.678468898e-01	-2.158285966e-04	4.095305844e-11
-2.200000000e-02	2.678468835e-01	-2.131153604e-04	1.379480843e-11
-2.210000000e-02	2.678468772e-01	-2.104021245e-04	1.620948668e-11
-2.220000000e-02	2.678468708e-01	-2.076888891e-04	7.868378448e-12
-2.230000000e-02	2.678468643e-01	-2.049756541e-04	7.404695752e-12
-2.240000000e-02	2.678468577e-01	-2.022624195e-04	1.036876029e-11
-2.250000000e-02	2.678468510e-01	-1.995491854e-04	7.289156330e-12
-2.260000000e-02	2.678468443e-01	-1.968359517e-04	1.119463376e-11
-2.270000000e-02	2.678468375e-01	-1.941227185e-04	1.006350821e-11
-2.280000000e-02	2.678468305e-01	-1.914094857e-04	9.053134819e-12
-2.290000000e-02	2.678468235e-01	-1.886962534e-04	6.969025590e-12
-2.300000000e-02	2.678468165e-01	-1.859830215e-04	2.011015514e-11
-2.310000000e-02	2.678468093e-01	-1.832697901e-04	7.867013483e-12
-2.320000000e-02	2.678468021e-01	-1.805565591e-04	2.295840965e-11
-2.330000000e-02	2.678467947e-01	-1.778433287e-04	9.003670183e-12
-2.340000000e-02	2.678467873e-01	-1.751300987e-04	1.436605610e-11
-2.350000000e-02	2.678467798e-01	-1.724168691e-04	8.717805109e-12
-2.360000000e-02	2.678467722e-01	-1.697036401e-04	9.223780806e-12
-2.370000000e-02	2.678467646e-01	-1.669904116e-04	1.543137041e-11
-2.380000000e-02	2.678467569e-01	-1.642771835e-04	1.102043063e-11
-2.390000000e-02	2.678467490e-01	-1.615639559e-04	1.452294158e-11
-2.400000000e-02	2.678467411e-01	-1.588507289e-04	3.276614646e-12
-2.410000000e-02	2.678467331e-01	-1.561375023e-04	2.222736869e-11
-2.420000000e-02	2.678467251e-01	-1.534242763e-04	1.235459448e-11
-2.430000000e-02	2.678467169e-01	-1.507110507e-04	1.849884232e-11
-2.440000000e-02	2.678467087e-01	-1.479978257e-04	1.943942567e-11
-2.450000000e-02	2.678467004e-01	-1.452846012e-04	8.249722277e-12
-2.460000000e-02	2.678466920e-01	-1.425713772e-04	9.173317301e-12
-2.470000000e-02	2.678466835e-01	-1.398581538e-04	7.149856168e-12
-2.480000000e-02	2.678466749e-01	-1.371449309e-04	8.341606322e-12
-2.490000000e-02	2.678466663e-01	-1.344317085e-04	2.167552475e-11
-2.500000000e-02	2.678466576e-01	-1.317184867e-04	1.661011966e-11
-2.510000000e-02	2.678466487e-01	-1.290052654e-04	3.052207040e-11
-2.520000000e-02	2.678466398e-01	-1.262920446e-04	7.072792262e-12
-2.530000000e-02	2.678466309e-01	-1.235788245e-04	7.460242460e-12
-2.540000000e-02	2.678466218e-01	-1.208656048e-04	1.278966718e-11
-2.550000000e-02	2.678466127e-01	-1.181523858e-04	1.476365440e-11
-2.560000000e-02	2.678466035e-01	-1.154391673e-04	2.317385471e-11
-2.570000000e-02	2.678465941e-01	-1.127259493e-04	4.579717594e-11
-2.580000000e-02	2.678465848e-01	-1.100127320e-04	1.896891683e-11
-2.590000000e-02	2.678465753e-01	-1.072995152e-04	1.791003937e-11
-2.600000000e-02	2.678465657e-01	-1.045862990e-04	6.788822828e-12
-2.610000000e-02	2.678465561e-01	-1.018730834e-04	2.000247265e-11
-2.620000000e-02	2.678465464e-01	-9.915986844e-05	1.535114818e-11
-2.630000000e-02	2.678465366e-01	-9.644665403e-05	1.305639985e-11
-2.640000000e-02	2.678465267e-01	-9.373344022e-05	1.619796694e-11
-2.650000000e-02	2.678465167e-01	-9.102022702e-05	1.686171099e-11
-2.660000000e-02	2.678465067e-01	-8.830701442e-05	1.447685285e-11
-2.670000000e-02	2.678464966e-01	-8.559380243e-05	2.198192435e-11
-2.680000000e-02	2.678464863e-01	-8.288059107e-05	1.772091456e-11
-2.690000000e-02	2.678464761e-01	-8.016738032e-05	6.805975287e-12
-2.700000000e-02	2.678464657e-01	-7.745417020e-05	1.625365939e-11
-2.710000000e-02	2.678464552e-01	-7.474096070e-05	1.130465079e-11
-2.720000000e-02	2.678464447e-01	-7.202775185e-05	2.681062933e-11
-2.730000000e-02	2.678464341e-01	-6.931454362e-05	1.184066521e-11
-2.740000000e-02	2.678464233e-01	-6.660133605e-05	1.013936712e-11
-2.750000000e-02	2.678464126e-01	-6.388812911e-05	4.579135875e-11
-2.760000000e-02	2.678464017e-01	-6.117492283e-05	3.268605765e-11
-2.770000000e-02	2.678463907e-01	-5.846171720e-05	9.292851706e-12
-2.780000000e-02	2.678463797e-01	-5.574851223e-05	1.931852817e-11
-2.790000000e-02	2.678463686e-01	-5.303530792e-05	6.169069847e-12
-2.800000000e-02	2.678463574e-01	-5.032210428e-05	8.597050904e-11
-2.810000000e-02	2.678463461e-01	-4.760890131e-05	4.239273450e-11
-2.820000000e-02	2.678463347e-01	-4.489569902e-05	2.721622113e-11
-2.830000000e-02	2.678463233e-01	-4.218249740e-05	2.925685850e-11
-2.840000000e-02	2.678463117e-01	-3.946929647e-05	9.266816322e-12
-2.850000000e-02	2.678463001e-01	-3.675609623e-05	3.407127697e-11
-2.860000000e-02	2.678462884e-01	-3.404289668e-05	8.662035553e-12
-2.870000000e-02	2.678462767e-01	-3.132969782e-05	7.816031030e-12
-2.880000000e-02	2.678462648e-01	-2.861649967e-05	1.842946197e-11
-2.890000000e-02	2.678462529e-01	-2.590330222e-05	4.384043829e-11
-2.900000000e-02	2.678462408e-01	-2.319010547e-05	1.573971678e-11
-2.910000000e-02	2.678462287e-01	-2.047690944e-05	8.551748560e-12
-2.920000000e-02	2.678462165e-01	-1.776371413e-05	1.991904414e-11
-2.930000000e-02	2.678462043e-01	-1.505051954e-05	1.298276347e-11
-2.940000000e-02	2.678461919e-01	-1.233732567e-05	2.588259435e-11
-2.950000000e-02	2.678461795e-01	-9.624132537e-06	8.468855641e-12
-2.960000000e-02	2.678461670e-01	-6.910940135e-06	2.235099832e-11
-2.970000000e-02	2.678461544e-01	-4.197748468e-06	2.121973844e-11
-2.980000000e-02	2.678461417e-01	-1.484557545e-06	1.745083000e-11
-2.990000000e-02	2.678461289e-01	1.228632631e-06	2.589531161e-11
-3.000000000e-02	2.678461161e-01	3.941822058e-06	8.394869276e-12
