# Im(epsi1)     Re(omega/c)      Im(omega/c)      Eq(det).Opt det CON kz, R=0.5 \mum, mu_c=0.3, Re(epsi1)=3.90solve_det_conkz_vs_kz.py
0.000000000e+00	2.678471451e-01	-8.100338755e-04	1.476237386e-11
-1.000000000e-04	2.678471569e-01	-8.073206406e-04	7.088250475e-12
-2.000000000e-04	2.678471686e-01	-8.046074053e-04	1.801934468e-11
-3.000000000e-04	2.678471802e-01	-8.018941695e-04	1.044184072e-11
-4.000000000e-04	2.678471918e-01	-7.991809331e-04	1.106670088e-11
-5.000000000e-04	2.678472032e-01	-7.964676964e-04	1.717571814e-11
-6.000000000e-04	2.678472146e-01	-7.937544591e-04	6.480460895e-11
-7.000000000e-04	2.678472259e-01	-7.910412213e-04	1.113181968e-11
-8.000000000e-04	2.678472371e-01	-7.883279831e-04	4.087917453e-11
-9.000000000e-04	2.678472483e-01	-7.856147444e-04	1.786443993e-11
-1.000000000e-03	2.678472593e-01	-7.829015053e-04	1.963954859e-11
-1.100000000e-03	2.678472703e-01	-7.801882657e-04	8.065836872e-12
-1.200000000e-03	2.678472812e-01	-7.774750257e-04	9.514105098e-12
-1.300000000e-03	2.678472920e-01	-7.747617852e-04	4.538653720e-12
-1.400000000e-03	2.678473027e-01	-7.720485443e-04	1.847878129e-11
-1.500000000e-03	2.678473134e-01	-7.693353029e-04	9.005724294e-12
-1.600000000e-03	2.678473239e-01	-7.666220611e-04	1.278940885e-11
-1.700000000e-03	2.678473344e-01	-7.639088188e-04	1.306365646e-11
-1.800000000e-03	2.678473448e-01	-7.611955762e-04	4.865778932e-12
-1.900000000e-03	2.678473551e-01	-7.584823331e-04	6.391230392e-12
-2.000000000e-03	2.678473653e-01	-7.557690896e-04	2.033779351e-11
-2.100000000e-03	2.678473755e-01	-7.530558457e-04	2.003755351e-11
-2.200000000e-03	2.678473855e-01	-7.503426014e-04	1.529274855e-11
-2.300000000e-03	2.678473955e-01	-7.476293566e-04	1.045632776e-11
-2.400000000e-03	2.678474054e-01	-7.449161115e-04	1.940781236e-11
-2.500000000e-03	2.678474152e-01	-7.422028660e-04	6.377825431e-11
-2.600000000e-03	2.678474250e-01	-7.394896201e-04	2.997869329e-11
-2.700000000e-03	2.678474346e-01	-7.367763738e-04	1.114011069e-11
-2.800000000e-03	2.678474442e-01	-7.340631271e-04	8.210330827e-11
-2.900000000e-03	2.678474537e-01	-7.313498800e-04	2.039811286e-11
-3.000000000e-03	2.678474631e-01	-7.286366325e-04	1.671518677e-11
-3.100000000e-03	2.678474724e-01	-7.259233847e-04	7.673083485e-12
-3.200000000e-03	2.678474816e-01	-7.232101365e-04	1.247720450e-11
-3.300000000e-03	2.678474908e-01	-7.204968880e-04	1.847728880e-11
-3.400000000e-03	2.678474999e-01	-7.177836391e-04	2.670177904e-11
-3.500000000e-03	2.678475089e-01	-7.150703898e-04	7.455094538e-12
-3.600000000e-03	2.678475178e-01	-7.123571402e-04	1.019128958e-11
-3.700000000e-03	2.678475266e-01	-7.096438902e-04	1.743349485e-11
-3.800000000e-03	2.678475353e-01	-7.069306399e-04	2.820636605e-11
-3.900000000e-03	2.678475440e-01	-7.042173893e-04	2.688364293e-11
-4.000000000e-03	2.678475526e-01	-7.015041383e-04	1.961548550e-11
-4.100000000e-03	2.678475611e-01	-6.987908870e-04	1.076007985e-11
-4.200000000e-03	2.678475695e-01	-6.960776354e-04	9.378661069e-12
-4.300000000e-03	2.678475778e-01	-6.933643834e-04	7.448439872e-12
-4.400000000e-03	2.678475861e-01	-6.906511311e-04	1.373889577e-11
-4.500000000e-03	2.678475943e-01	-6.879378786e-04	1.369726117e-11
-4.600000000e-03	2.678476023e-01	-6.852246257e-04	2.100892260e-11
-4.700000000e-03	2.678476103e-01	-6.825113725e-04	6.550487015e-12
-4.800000000e-03	2.678476183e-01	-6.797981190e-04	1.144056098e-11
-4.900000000e-03	2.678476261e-01	-6.770848652e-04	1.206575567e-11
-5.000000000e-03	2.678476339e-01	-6.743716111e-04	6.890097676e-12
-5.100000000e-03	2.678476415e-01	-6.716583567e-04	6.214512052e-12
-5.200000000e-03	2.678476491e-01	-6.689451020e-04	1.340587952e-11
-5.300000000e-03	2.678476566e-01	-6.662318471e-04	9.789866965e-12
-5.400000000e-03	2.678476641e-01	-6.635185919e-04	1.307654950e-11
-5.500000000e-03	2.678476714e-01	-6.608053364e-04	1.723015264e-11
-5.600000000e-03	2.678476787e-01	-6.580920806e-04	8.470592924e-12
-5.700000000e-03	2.678476858e-01	-6.553788246e-04	2.657651439e-11
-5.800000000e-03	2.678476929e-01	-6.526655683e-04	3.350849044e-11
-5.900000000e-03	2.678477000e-01	-6.499523118e-04	5.541152817e-12
-6.000000000e-03	2.678477069e-01	-6.472390550e-04	9.157894271e-12
-6.100000000e-03	2.678477137e-01	-6.445257980e-04	4.936150668e-12
-6.200000000e-03	2.678477205e-01	-6.418125407e-04	8.562847386e-12
-6.300000000e-03	2.678477272e-01	-6.390992832e-04	1.610033777e-11
-6.400000000e-03	2.678477338e-01	-6.363860254e-04	1.736004929e-11
-6.500000000e-03	2.678477403e-01	-6.336727674e-04	2.505682886e-11
-6.600000000e-03	2.678477468e-01	-6.309595092e-04	1.235907033e-11
-6.700000000e-03	2.678477531e-01	-6.282462508e-04	2.708560051e-11
-6.800000000e-03	2.678477594e-01	-6.255329922e-04	1.305179231e-11
-6.900000000e-03	2.678477656e-01	-6.228197333e-04	2.324218588e-11
-7.000000000e-03	2.678477717e-01	-6.201064742e-04	9.154810480e-12
-7.100000000e-03	2.678477777e-01	-6.173932150e-04	9.922730334e-12
-7.200000000e-03	2.678477836e-01	-6.146799555e-04	1.506880078e-11
-7.300000000e-03	2.678477895e-01	-6.119666958e-04	1.752612605e-11
-7.400000000e-03	2.678477953e-01	-6.092534360e-04	2.817708840e-11
-7.500000000e-03	2.678478010e-01	-6.065401759e-04	2.361966122e-11
-7.600000000e-03	2.678478066e-01	-6.038269157e-04	1.177639443e-11
-7.700000000e-03	2.678478121e-01	-6.011136553e-04	7.119167317e-12
-7.800000000e-03	2.678478176e-01	-5.984003947e-04	7.666862698e-12
-7.900000000e-03	2.678478229e-01	-5.956871339e-04	3.197936951e-12
-8.000000000e-03	2.678478282e-01	-5.929738730e-04	1.313496839e-11
-8.100000000e-03	2.678478334e-01	-5.902606119e-04	1.016238923e-11
-8.200000000e-03	2.678478385e-01	-5.875473507e-04	1.111343762e-10
-8.300000000e-03	2.678478436e-01	-5.848340893e-04	1.358683697e-11
-8.400000000e-03	2.678478485e-01	-5.821208277e-04	9.115604846e-12
-8.500000000e-03	2.678478534e-01	-5.794075660e-04	5.522108610e-12
-8.600000000e-03	2.678478582e-01	-5.766943042e-04	9.910457853e-12
-8.700000000e-03	2.678478629e-01	-5.739810422e-04	2.326167874e-11
-8.800000000e-03	2.678478675e-01	-5.712677801e-04	1.941341775e-11
-8.900000000e-03	2.678478721e-01	-5.685545178e-04	8.014636992e-11
-9.000000000e-03	2.678478765e-01	-5.658412554e-04	7.447367411e-12
-9.100000000e-03	2.678478809e-01	-5.631279929e-04	1.543125764e-11
-9.200000000e-03	2.678478852e-01	-5.604147303e-04	1.360117781e-11
-9.300000000e-03	2.678478894e-01	-5.577014676e-04	1.436120739e-11
-9.400000000e-03	2.678478935e-01	-5.549882048e-04	1.855300146e-11
-9.500000000e-03	2.678478976e-01	-5.522749418e-04	1.478699423e-11
-9.600000000e-03	2.678479015e-01	-5.495616788e-04	1.043339000e-11
-9.700000000e-03	2.678479054e-01	-5.468484157e-04	1.322378302e-11
-9.800000000e-03	2.678479092e-01	-5.441351524e-04	2.817746531e-11
-9.900000000e-03	2.678479129e-01	-5.414218891e-04	4.152614818e-12
-1.000000000e-02	2.678479166e-01	-5.387086257e-04	7.002501711e-12
-1.010000000e-02	2.678479201e-01	-5.359953622e-04	1.012043561e-11
-1.020000000e-02	2.678479236e-01	-5.332820987e-04	9.226012564e-12
-1.030000000e-02	2.678479270e-01	-5.305688351e-04	9.775536314e-12
-1.040000000e-02	2.678479303e-01	-5.278555714e-04	1.046384428e-11
-1.050000000e-02	2.678479335e-01	-5.251423076e-04	5.019687400e-11
-1.060000000e-02	2.678479367e-01	-5.224290438e-04	9.000964714e-12
-1.070000000e-02	2.678479397e-01	-5.197157799e-04	1.092095337e-11
-1.080000000e-02	2.678479427e-01	-5.170025160e-04	1.485381015e-11
-1.090000000e-02	2.678479456e-01	-5.142892520e-04	1.535541949e-11
-1.100000000e-02	2.678479484e-01	-5.115759880e-04	1.455659762e-11
-1.110000000e-02	2.678479511e-01	-5.088627240e-04	2.529036813e-11
-1.120000000e-02	2.678479538e-01	-5.061494599e-04	2.856696810e-11
-1.130000000e-02	2.678479563e-01	-5.034361958e-04	1.313100905e-11
-1.140000000e-02	2.678479588e-01	-5.007229317e-04	3.496839201e-11
-1.150000000e-02	2.678479612e-01	-4.980096675e-04	1.464095886e-11
-1.160000000e-02	2.678479635e-01	-4.952964033e-04	1.284738097e-11
-1.170000000e-02	2.678479658e-01	-4.925831391e-04	1.212898702e-11
-1.180000000e-02	2.678479679e-01	-4.898698749e-04	9.099552409e-12
-1.190000000e-02	2.678479700e-01	-4.871566107e-04	5.170116410e-12
-1.200000000e-02	2.678479720e-01	-4.844433465e-04	1.570763601e-11
-1.210000000e-02	2.678479739e-01	-4.817300823e-04	6.677755486e-12
-1.220000000e-02	2.678479757e-01	-4.790168181e-04	3.542474491e-11
-1.230000000e-02	2.678479774e-01	-4.763035540e-04	4.126353854e-11
-1.240000000e-02	2.678479791e-01	-4.735902898e-04	6.621787396e-12
-1.250000000e-02	2.678479807e-01	-4.708770257e-04	1.102309153e-11
-1.260000000e-02	2.678479822e-01	-4.681637615e-04	6.358534486e-12
-1.270000000e-02	2.678479836e-01	-4.654504975e-04	7.167896191e-12
-1.280000000e-02	2.678479849e-01	-4.627372334e-04	1.443938731e-11
-1.290000000e-02	2.678479861e-01	-4.600239694e-04	9.060330639e-12
-1.300000000e-02	2.678479873e-01	-4.573107054e-04	1.862569356e-11
-1.310000000e-02	2.678479884e-01	-4.545974415e-04	3.148348698e-11
-1.320000000e-02	2.678479894e-01	-4.518841776e-04	1.854149326e-11
-1.330000000e-02	2.678479903e-01	-4.491709138e-04	1.542404781e-11
-1.340000000e-02	2.678479911e-01	-4.464576500e-04	2.993598075e-11
-1.350000000e-02	2.678479919e-01	-4.437443863e-04	7.585573192e-12
-1.360000000e-02	2.678479925e-01	-4.410311226e-04	2.626675402e-11
-1.370000000e-02	2.678479931e-01	-4.383178591e-04	1.347805868e-11
-1.380000000e-02	2.678479936e-01	-4.356045956e-04	1.599553500e-11
-1.390000000e-02	2.678479941e-01	-4.328913321e-04	1.599542350e-11
-1.400000000e-02	2.678479944e-01	-4.301780688e-04	1.318492872e-11
-1.410000000e-02	2.678479947e-01	-4.274648056e-04	6.018059857e-12
-1.420000000e-02	2.678479948e-01	-4.247515424e-04	5.591322692e-12
-1.430000000e-02	2.678479949e-01	-4.220382793e-04	2.927707052e-11
-1.440000000e-02	2.678479949e-01	-4.193250164e-04	1.942503212e-11
-1.450000000e-02	2.678479949e-01	-4.166117535e-04	1.969011894e-11
-1.460000000e-02	2.678479947e-01	-4.138984908e-04	3.314781678e-11
-1.470000000e-02	2.678479945e-01	-4.111852281e-04	1.356450558e-11
-1.480000000e-02	2.678479941e-01	-4.084719656e-04	7.537397324e-12
-1.490000000e-02	2.678479937e-01	-4.057587032e-04	2.168342244e-11
-1.500000000e-02	2.678479932e-01	-4.030454409e-04	5.265875440e-11
-1.510000000e-02	2.678479927e-01	-4.003321788e-04	4.200599541e-11
-1.520000000e-02	2.678479920e-01	-3.976189167e-04	1.312127219e-10
-1.530000000e-02	2.678479913e-01	-3.949056549e-04	1.107249454e-11
-1.540000000e-02	2.678479905e-01	-3.921923931e-04	1.368512731e-11
-1.550000000e-02	2.678479896e-01	-3.894791315e-04	1.977427366e-11
-1.560000000e-02	2.678479886e-01	-3.867658701e-04	1.399696993e-11
-1.570000000e-02	2.678479875e-01	-3.840526088e-04	1.991993722e-11
-1.580000000e-02	2.678479864e-01	-3.813393477e-04	6.052622040e-12
-1.590000000e-02	2.678479852e-01	-3.786260867e-04	1.140037979e-11
-1.600000000e-02	2.678479838e-01	-3.759128259e-04	9.531060951e-12
-1.610000000e-02	2.678479825e-01	-3.731995653e-04	8.792526996e-12
-1.620000000e-02	2.678479810e-01	-3.704863048e-04	9.903651980e-12
-1.630000000e-02	2.678479794e-01	-3.677730445e-04	1.205479572e-11
-1.640000000e-02	2.678479778e-01	-3.650597844e-04	2.508499185e-11
-1.650000000e-02	2.678479761e-01	-3.623465245e-04	8.250804591e-12
-1.660000000e-02	2.678479743e-01	-3.596332648e-04	1.379749751e-11
-1.670000000e-02	2.678479724e-01	-3.569200053e-04	1.315790999e-11
-1.680000000e-02	2.678479704e-01	-3.542067460e-04	6.685256649e-12
-1.690000000e-02	2.678479683e-01	-3.514934869e-04	6.797344858e-12
-1.700000000e-02	2.678479662e-01	-3.487802279e-04	1.746962498e-11
-1.710000000e-02	2.678479640e-01	-3.460669692e-04	4.987119675e-12
-1.720000000e-02	2.678479617e-01	-3.433537108e-04	1.208621585e-11
-1.730000000e-02	2.678479593e-01	-3.406404525e-04	9.459372675e-12
-1.740000000e-02	2.678479569e-01	-3.379271945e-04	1.647278349e-11
-1.750000000e-02	2.678479543e-01	-3.352139367e-04	1.664295136e-11
-1.760000000e-02	2.678479517e-01	-3.325006791e-04	7.280696694e-12
-1.770000000e-02	2.678479490e-01	-3.297874217e-04	3.452914112e-11
-1.780000000e-02	2.678479462e-01	-3.270741647e-04	1.090895318e-11
-1.790000000e-02	2.678479433e-01	-3.243609078e-04	1.294533891e-11
-1.800000000e-02	2.678479403e-01	-3.216476512e-04	6.825644962e-12
-1.810000000e-02	2.678479373e-01	-3.189343949e-04	9.476556100e-12
-1.820000000e-02	2.678479342e-01	-3.162211388e-04	2.815980820e-11
-1.830000000e-02	2.678479310e-01	-3.135078829e-04	1.401052634e-11
-1.840000000e-02	2.678479277e-01	-3.107946274e-04	2.159280479e-10
-1.850000000e-02	2.678479243e-01	-3.080813721e-04	9.177955861e-12
-1.860000000e-02	2.678479209e-01	-3.053681171e-04	5.350834258e-11
-1.870000000e-02	2.678479173e-01	-3.026548623e-04	5.152637400e-12
-1.880000000e-02	2.678479137e-01	-2.999416079e-04	1.515511804e-11
-1.890000000e-02	2.678479100e-01	-2.972283537e-04	7.838127049e-12
-1.900000000e-02	2.678479062e-01	-2.945150999e-04	1.194103621e-11
-1.910000000e-02	2.678479023e-01	-2.918018463e-04	1.403201724e-11
-1.920000000e-02	2.678478984e-01	-2.890885930e-04	1.159568866e-11
-1.930000000e-02	2.678478944e-01	-2.863753400e-04	1.082055152e-11
-1.940000000e-02	2.678478903e-01	-2.836620874e-04	1.622051238e-11
-1.950000000e-02	2.678478861e-01	-2.809488350e-04	1.445251198e-11
-1.960000000e-02	2.678478818e-01	-2.782355830e-04	1.158575635e-11
-1.970000000e-02	2.678478774e-01	-2.755223313e-04	6.750533285e-12
-1.980000000e-02	2.678478730e-01	-2.728090799e-04	2.620013175e-11
-1.990000000e-02	2.678478685e-01	-2.700958288e-04	1.771917552e-11
-2.000000000e-02	2.678478638e-01	-2.673825781e-04	1.040310308e-11
-2.010000000e-02	2.678478592e-01	-2.646693277e-04	1.212370250e-11
-2.020000000e-02	2.678478544e-01	-2.619560776e-04	6.979581419e-12
-2.030000000e-02	2.678478495e-01	-2.592428279e-04	1.263156515e-11
-2.040000000e-02	2.678478446e-01	-2.565295786e-04	1.419669133e-11
-2.050000000e-02	2.678478396e-01	-2.538163296e-04	1.285701158e-11
-2.060000000e-02	2.678478345e-01	-2.511030809e-04	1.565658460e-11
-2.070000000e-02	2.678478293e-01	-2.483898326e-04	1.961129002e-11
-2.080000000e-02	2.678478240e-01	-2.456765847e-04	9.290945600e-12
-2.090000000e-02	2.678478187e-01	-2.429633372e-04	2.083613219e-11
-2.100000000e-02	2.678478132e-01	-2.402500900e-04	1.081042619e-11
-2.110000000e-02	2.678478077e-01	-2.375368432e-04	1.116856187e-11
-2.120000000e-02	2.678478021e-01	-2.348235968e-04	2.381067678e-11
-2.130000000e-02	2.678477965e-01	-2.321103508e-04	1.185487055e-11
-2.140000000e-02	2.678477907e-01	-2.293971052e-04	8.989157435e-12
-2.150000000e-02	2.678477848e-01	-2.266838600e-04	5.177057699e-12
-2.160000000e-02	2.678477789e-01	-2.239706151e-04	1.516085986e-11
-2.170000000e-02	2.678477729e-01	-2.212573707e-04	1.988725436e-11
-2.180000000e-02	2.678477668e-01	-2.185441267e-04	1.862931756e-11
-2.190000000e-02	2.678477607e-01	-2.158308831e-04	2.116759225e-11
-2.200000000e-02	2.678477544e-01	-2.131176399e-04	2.085116276e-11
-2.210000000e-02	2.678477481e-01	-2.104043971e-04	1.182587292e-11
-2.220000000e-02	2.678477416e-01	-2.076911548e-04	4.554596164e-11
-2.230000000e-02	2.678477351e-01	-2.049779129e-04	9.470794990e-12
-2.240000000e-02	2.678477285e-01	-2.022646714e-04	1.335328493e-11
-2.250000000e-02	2.678477219e-01	-1.995514303e-04	1.486213393e-11
-2.260000000e-02	2.678477151e-01	-1.968381897e-04	1.630908663e-11
-2.270000000e-02	2.678477083e-01	-1.941249496e-04	1.105310013e-11
-2.280000000e-02	2.678477014e-01	-1.914117099e-04	1.105375986e-11
-2.290000000e-02	2.678476944e-01	-1.886984706e-04	5.898341445e-11
-2.300000000e-02	2.678476873e-01	-1.859852318e-04	1.861012667e-11
-2.310000000e-02	2.678476801e-01	-1.832719935e-04	9.764835386e-12
-2.320000000e-02	2.678476729e-01	-1.805587556e-04	1.288232093e-11
-2.330000000e-02	2.678476656e-01	-1.778455182e-04	1.329167532e-11
-2.340000000e-02	2.678476582e-01	-1.751322813e-04	9.669484573e-12
-2.350000000e-02	2.678476507e-01	-1.724190449e-04	2.080288153e-11
-2.360000000e-02	2.678476431e-01	-1.697058089e-04	2.180410079e-11
-2.370000000e-02	2.678476354e-01	-1.669925735e-04	8.158096236e-12
-2.380000000e-02	2.678476277e-01	-1.642793385e-04	8.039063183e-12
-2.390000000e-02	2.678476199e-01	-1.615661040e-04	1.440419190e-11
-2.400000000e-02	2.678476120e-01	-1.588528700e-04	1.392503139e-11
-2.410000000e-02	2.678476040e-01	-1.561396365e-04	9.392866716e-12
-2.420000000e-02	2.678475959e-01	-1.534264036e-04	8.320907737e-12
-2.430000000e-02	2.678475878e-01	-1.507131711e-04	6.261817406e-11
-2.440000000e-02	2.678475795e-01	-1.479999392e-04	1.043465421e-10
-2.450000000e-02	2.678475712e-01	-1.452867078e-04	9.459871724e-12
-2.460000000e-02	2.678475628e-01	-1.425734769e-04	8.315851806e-12
-2.470000000e-02	2.678475543e-01	-1.398602465e-04	8.109307058e-12
-2.480000000e-02	2.678475458e-01	-1.371470167e-04	6.833860855e-12
-2.490000000e-02	2.678475371e-01	-1.344337874e-04	3.977430360e-11
-2.500000000e-02	2.678475284e-01	-1.317205586e-04	1.300818683e-11
-2.510000000e-02	2.678475196e-01	-1.290073304e-04	1.268324714e-11
-2.520000000e-02	2.678475107e-01	-1.262941028e-04	7.449825873e-11
-2.530000000e-02	2.678475017e-01	-1.235808757e-04	1.079900201e-11
-2.540000000e-02	2.678474927e-01	-1.208676491e-04	1.348723005e-11
-2.550000000e-02	2.678474835e-01	-1.181544231e-04	2.694986064e-11
-2.560000000e-02	2.678474743e-01	-1.154411977e-04	2.115987737e-11
-2.570000000e-02	2.678474650e-01	-1.127279729e-04	1.210015501e-11
-2.580000000e-02	2.678474556e-01	-1.100147486e-04	5.508122357e-12
-2.590000000e-02	2.678474461e-01	-1.073015249e-04	3.236577741e-11
-2.600000000e-02	2.678474366e-01	-1.045883018e-04	1.066362722e-11
-2.610000000e-02	2.678474269e-01	-1.018750793e-04	1.007869221e-11
-2.620000000e-02	2.678474172e-01	-9.916185738e-05	3.039463161e-12
-2.630000000e-02	2.678474074e-01	-9.644863606e-05	1.087041559e-11
-2.640000000e-02	2.678473975e-01	-9.373541533e-05	8.427541984e-12
-2.650000000e-02	2.678473876e-01	-9.102219520e-05	5.928972390e-12
-2.660000000e-02	2.678473775e-01	-8.830897569e-05	1.380629353e-11
-2.670000000e-02	2.678473674e-01	-8.559575678e-05	5.715013295e-12
-2.680000000e-02	2.678473572e-01	-8.288253850e-05	5.868944632e-11
-2.690000000e-02	2.678473469e-01	-8.016932083e-05	9.653455272e-12
-2.700000000e-02	2.678473365e-01	-7.745610379e-05	7.718995951e-12
-2.710000000e-02	2.678473261e-01	-7.474288738e-05	3.497960475e-11
-2.720000000e-02	2.678473155e-01	-7.202967160e-05	1.063743331e-11
-2.730000000e-02	2.678473049e-01	-6.931645646e-05	6.465475580e-12
-2.740000000e-02	2.678472942e-01	-6.660324197e-05	1.061089790e-11
-2.750000000e-02	2.678472834e-01	-6.389002812e-05	2.146435493e-11
-2.760000000e-02	2.678472725e-01	-6.117681491e-05	1.501720817e-11
-2.770000000e-02	2.678472616e-01	-5.846360237e-05	6.335133323e-12
-2.780000000e-02	2.678472505e-01	-5.575039048e-05	1.342211557e-11
-2.790000000e-02	2.678472394e-01	-5.303717925e-05	1.335737933e-11
-2.800000000e-02	2.678472282e-01	-5.032396869e-05	8.688801059e-12
-2.810000000e-02	2.678472169e-01	-4.761075880e-05	8.877850282e-12
-2.820000000e-02	2.678472056e-01	-4.489754959e-05	2.239728299e-11
-2.830000000e-02	2.678471941e-01	-4.218434106e-05	9.589083117e-12
-2.840000000e-02	2.678471826e-01	-3.947113321e-05	1.163312734e-11
-2.850000000e-02	2.678471710e-01	-3.675792605e-05	1.112292685e-11
-2.860000000e-02	2.678471593e-01	-3.404471958e-05	1.720064015e-11
-2.870000000e-02	2.678471475e-01	-3.133151380e-05	2.550274268e-11
-2.880000000e-02	2.678471357e-01	-2.861830873e-05	3.163362954e-11
-2.890000000e-02	2.678471237e-01	-2.590510436e-05	2.648098206e-11
-2.900000000e-02	2.678471117e-01	-2.319190070e-05	1.449309710e-11
-2.910000000e-02	2.678470996e-01	-2.047869775e-05	6.545695245e-12
-2.920000000e-02	2.678470874e-01	-1.776549552e-05	3.503796798e-11
-2.930000000e-02	2.678470751e-01	-1.505229401e-05	1.089996141e-11
-2.940000000e-02	2.678470628e-01	-1.233909323e-05	6.372855131e-12
-2.950000000e-02	2.678470503e-01	-9.625893172e-06	9.255175612e-12
-2.960000000e-02	2.678470378e-01	-6.912693850e-06	6.899429994e-12
-2.970000000e-02	2.678470252e-01	-4.199495266e-06	3.252127236e-11
-2.980000000e-02	2.678470125e-01	-1.486297425e-06	1.195474615e-11
-2.990000000e-02	2.678469997e-01	1.226899672e-06	4.392000771e-11
-3.000000000e-02	2.678469869e-01	3.940096015e-06	1.106712173e-11
