# Im(epsi1)     Re(omega/c)      Im(omega/c)      Eq(det).Opt det CON kz, R=0.5 \mum, mu_c=0.3, Re(epsi1)=3.90solve_det_conkz_vs_kz.py
0.000000000e+00	2.678488686e-01	-8.100413992e-04	2.255234500e-11
-1.000000000e-04	2.678488804e-01	-8.073281507e-04	1.292678298e-11
-2.000000000e-04	2.678488921e-01	-8.046149016e-04	9.181061228e-12
-3.000000000e-04	2.678489037e-01	-8.019016521e-04	3.676356671e-12
-4.000000000e-04	2.678489153e-01	-7.991884021e-04	3.327135248e-11
-5.000000000e-04	2.678489267e-01	-7.964751516e-04	1.031139813e-11
-6.000000000e-04	2.678489381e-01	-7.937619007e-04	1.267391676e-11
-7.000000000e-04	2.678489494e-01	-7.910486492e-04	1.773033475e-11
-8.000000000e-04	2.678489606e-01	-7.883353973e-04	1.719504715e-11
-9.000000000e-04	2.678489718e-01	-7.856221449e-04	8.877348875e-12
-1.000000000e-03	2.678489828e-01	-7.829088921e-04	9.497512283e-12
-1.100000000e-03	2.678489938e-01	-7.801956388e-04	6.102455335e-12
-1.200000000e-03	2.678490047e-01	-7.774823851e-04	1.063902189e-11
-1.300000000e-03	2.678490155e-01	-7.747691309e-04	9.432661445e-11
-1.400000000e-03	2.678490262e-01	-7.720558763e-04	8.281348635e-12
-1.500000000e-03	2.678490369e-01	-7.693426212e-04	1.700038964e-11
-1.600000000e-03	2.678490474e-01	-7.666293657e-04	1.351754068e-11
-1.700000000e-03	2.678490579e-01	-7.639161098e-04	2.052605725e-11
-1.800000000e-03	2.678490683e-01	-7.612028535e-04	1.510131355e-11
-1.900000000e-03	2.678490786e-01	-7.584895967e-04	2.001287467e-11
-2.000000000e-03	2.678490888e-01	-7.557763395e-04	1.174482273e-11
-2.100000000e-03	2.678490990e-01	-7.530630819e-04	9.351885731e-11
-2.200000000e-03	2.678491090e-01	-7.503498239e-04	1.716528943e-11
-2.300000000e-03	2.678491190e-01	-7.476365655e-04	1.708359709e-11
-2.400000000e-03	2.678491289e-01	-7.449233066e-04	9.443954447e-12
-2.500000000e-03	2.678491387e-01	-7.422100474e-04	2.870355717e-11
-2.600000000e-03	2.678491485e-01	-7.394967878e-04	1.950970142e-11
-2.700000000e-03	2.678491581e-01	-7.367835278e-04	1.380816447e-11
-2.800000000e-03	2.678491677e-01	-7.340702674e-04	1.812133320e-10
-2.900000000e-03	2.678491772e-01	-7.313570067e-04	1.377078602e-11
-3.000000000e-03	2.678491866e-01	-7.286437455e-04	4.707383832e-12
-3.100000000e-03	2.678491959e-01	-7.259304840e-04	1.894480580e-11
-3.200000000e-03	2.678492051e-01	-7.232172221e-04	1.393613407e-11
-3.300000000e-03	2.678492143e-01	-7.205039599e-04	2.261382074e-11
-3.400000000e-03	2.678492234e-01	-7.177906973e-04	1.883688247e-11
-3.500000000e-03	2.678492324e-01	-7.150774343e-04	7.973829820e-12
-3.600000000e-03	2.678492413e-01	-7.123641710e-04	2.581401788e-11
-3.700000000e-03	2.678492501e-01	-7.096509074e-04	2.815919396e-11
-3.800000000e-03	2.678492589e-01	-7.069376434e-04	1.000652194e-11
-3.900000000e-03	2.678492675e-01	-7.042243790e-04	2.179624366e-11
-4.000000000e-03	2.678492761e-01	-7.015111144e-04	1.517404126e-11
-4.100000000e-03	2.678492846e-01	-6.987978494e-04	1.008790069e-11
-4.200000000e-03	2.678492930e-01	-6.960845840e-04	1.962360108e-11
-4.300000000e-03	2.678493013e-01	-6.933713184e-04	1.530766063e-11
-4.400000000e-03	2.678493096e-01	-6.906580524e-04	2.682774183e-11
-4.500000000e-03	2.678493178e-01	-6.879447862e-04	1.075162343e-11
-4.600000000e-03	2.678493259e-01	-6.852315196e-04	1.677500711e-11
-4.700000000e-03	2.678493339e-01	-6.825182527e-04	1.322694439e-11
-4.800000000e-03	2.678493418e-01	-6.798049855e-04	1.137476964e-11
-4.900000000e-03	2.678493496e-01	-6.770917180e-04	1.189163633e-11
-5.000000000e-03	2.678493574e-01	-6.743784502e-04	2.114076133e-11
-5.100000000e-03	2.678493650e-01	-6.716651821e-04	1.128516845e-11
-5.200000000e-03	2.678493726e-01	-6.689519138e-04	1.675225920e-11
-5.300000000e-03	2.678493801e-01	-6.662386451e-04	1.719338254e-11
-5.400000000e-03	2.678493876e-01	-6.635253762e-04	1.758730115e-11
-5.500000000e-03	2.678493949e-01	-6.608121071e-04	1.353813747e-11
-5.600000000e-03	2.678494022e-01	-6.580988376e-04	2.295828545e-11
-5.700000000e-03	2.678494094e-01	-6.553855679e-04	3.093694761e-11
-5.800000000e-03	2.678494165e-01	-6.526722979e-04	4.273979886e-11
-5.900000000e-03	2.678494235e-01	-6.499590277e-04	1.878464830e-11
-6.000000000e-03	2.678494304e-01	-6.472457572e-04	1.248610854e-11
-6.100000000e-03	2.678494373e-01	-6.445324865e-04	1.720903503e-11
-6.200000000e-03	2.678494440e-01	-6.418192155e-04	5.951493116e-11
-6.300000000e-03	2.678494507e-01	-6.391059443e-04	2.626601271e-11
-6.400000000e-03	2.678494573e-01	-6.363926729e-04	2.034688760e-11
-6.500000000e-03	2.678494638e-01	-6.336794012e-04	3.052659438e-11
-6.600000000e-03	2.678494703e-01	-6.309661293e-04	1.487061104e-11
-6.700000000e-03	2.678494766e-01	-6.282528572e-04	1.880079076e-11
-6.800000000e-03	2.678494829e-01	-6.255395849e-04	1.622192775e-11
-6.900000000e-03	2.678494891e-01	-6.228263123e-04	3.411806492e-10
-7.000000000e-03	2.678494952e-01	-6.201130395e-04	7.634529430e-12
-7.100000000e-03	2.678495012e-01	-6.173997666e-04	1.904310922e-11
-7.200000000e-03	2.678495072e-01	-6.146864934e-04	1.692133164e-11
-7.300000000e-03	2.678495130e-01	-6.119732201e-04	2.480935170e-11
-7.400000000e-03	2.678495188e-01	-6.092599465e-04	1.058099957e-11
-7.500000000e-03	2.678495245e-01	-6.065466728e-04	2.092580855e-11
-7.600000000e-03	2.678495301e-01	-6.038333988e-04	1.810191807e-11
-7.700000000e-03	2.678495356e-01	-6.011201247e-04	1.560980150e-11
-7.800000000e-03	2.678495411e-01	-5.984068505e-04	1.423948644e-11
-7.900000000e-03	2.678495465e-01	-5.956935760e-04	1.115979375e-11
-8.000000000e-03	2.678495517e-01	-5.929803014e-04	9.998201342e-12
-8.100000000e-03	2.678495569e-01	-5.902670266e-04	1.031693315e-11
-8.200000000e-03	2.678495621e-01	-5.875537517e-04	1.931371267e-11
-8.300000000e-03	2.678495671e-01	-5.848404766e-04	1.005163483e-11
-8.400000000e-03	2.678495720e-01	-5.821272013e-04	7.917769024e-12
-8.500000000e-03	2.678495769e-01	-5.794139259e-04	2.032867571e-11
-8.600000000e-03	2.678495817e-01	-5.767006504e-04	1.887669891e-11
-8.700000000e-03	2.678495864e-01	-5.739873747e-04	1.594532922e-11
-8.800000000e-03	2.678495910e-01	-5.712740989e-04	1.810516700e-11
-8.900000000e-03	2.678495956e-01	-5.685608230e-04	9.412913612e-11
-9.000000000e-03	2.678496000e-01	-5.658475469e-04	9.167429329e-12
-9.100000000e-03	2.678496044e-01	-5.631342707e-04	9.751696031e-12
-9.200000000e-03	2.678496087e-01	-5.604209944e-04	1.974532923e-11
-9.300000000e-03	2.678496129e-01	-5.577077180e-04	1.391535844e-11
-9.400000000e-03	2.678496171e-01	-5.549944415e-04	2.023898655e-11
-9.500000000e-03	2.678496211e-01	-5.522811648e-04	2.867060740e-11
-9.600000000e-03	2.678496251e-01	-5.495678881e-04	1.358705420e-11
-9.700000000e-03	2.678496289e-01	-5.468546113e-04	8.254590378e-12
-9.800000000e-03	2.678496327e-01	-5.441413344e-04	7.693819657e-11
-9.900000000e-03	2.678496365e-01	-5.414280574e-04	8.795978569e-12
-1.000000000e-02	2.678496401e-01	-5.387147803e-04	1.007978009e-11
-1.010000000e-02	2.678496437e-01	-5.360015031e-04	1.211524301e-11
-1.020000000e-02	2.678496471e-01	-5.332882259e-04	1.507229343e-11
-1.030000000e-02	2.678496505e-01	-5.305749485e-04	6.961245987e-12
-1.040000000e-02	2.678496538e-01	-5.278616712e-04	2.297494212e-11
-1.050000000e-02	2.678496570e-01	-5.251483937e-04	2.720043489e-11
-1.060000000e-02	2.678496602e-01	-5.224351162e-04	3.131974767e-11
-1.070000000e-02	2.678496632e-01	-5.197218386e-04	9.153157251e-12
-1.080000000e-02	2.678496662e-01	-5.170085610e-04	2.340023915e-11
-1.090000000e-02	2.678496691e-01	-5.142952834e-04	1.883922515e-11
-1.100000000e-02	2.678496719e-01	-5.115820057e-04	1.278600211e-11
-1.110000000e-02	2.678496746e-01	-5.088687279e-04	3.005797070e-11
-1.120000000e-02	2.678496773e-01	-5.061554502e-04	1.558098547e-11
-1.130000000e-02	2.678496799e-01	-5.034421723e-04	5.374053594e-11
-1.140000000e-02	2.678496823e-01	-5.007288945e-04	4.508013473e-12
-1.150000000e-02	2.678496847e-01	-4.980156167e-04	1.555792034e-11
-1.160000000e-02	2.678496871e-01	-4.953023388e-04	2.814052150e-11
-1.170000000e-02	2.678496893e-01	-4.925890609e-04	9.302117917e-12
-1.180000000e-02	2.678496914e-01	-4.898757830e-04	8.216409776e-12
-1.190000000e-02	2.678496935e-01	-4.871625051e-04	4.143488173e-11
-1.200000000e-02	2.678496955e-01	-4.844492272e-04	1.330018634e-11
-1.210000000e-02	2.678496974e-01	-4.817359494e-04	2.669394282e-11
-1.220000000e-02	2.678496992e-01	-4.790226715e-04	7.459353031e-12
-1.230000000e-02	2.678497010e-01	-4.763093936e-04	7.993333788e-12
-1.240000000e-02	2.678497026e-01	-4.735961157e-04	2.737575860e-11
-1.250000000e-02	2.678497042e-01	-4.708828379e-04	8.691480075e-12
-1.260000000e-02	2.678497057e-01	-4.681695601e-04	1.400349217e-11
-1.270000000e-02	2.678497071e-01	-4.654562823e-04	1.159446714e-11
-1.280000000e-02	2.678497084e-01	-4.627430046e-04	5.726393979e-11
-1.290000000e-02	2.678497097e-01	-4.600297269e-04	3.255629991e-11
-1.300000000e-02	2.678497108e-01	-4.573164492e-04	7.713771643e-12
-1.310000000e-02	2.678497119e-01	-4.546031716e-04	9.853918251e-12
-1.320000000e-02	2.678497129e-01	-4.518898940e-04	2.326122817e-11
-1.330000000e-02	2.678497138e-01	-4.491766165e-04	1.814873572e-11
-1.340000000e-02	2.678497147e-01	-4.464633390e-04	6.259800783e-12
-1.350000000e-02	2.678497154e-01	-4.437500616e-04	1.518450912e-11
-1.360000000e-02	2.678497161e-01	-4.410367843e-04	5.614537162e-11
-1.370000000e-02	2.678497167e-01	-4.383235070e-04	4.881722135e-12
-1.380000000e-02	2.678497172e-01	-4.356102298e-04	1.246560335e-11
-1.390000000e-02	2.678497176e-01	-4.328969527e-04	9.952665533e-12
-1.400000000e-02	2.678497179e-01	-4.301836757e-04	1.548901493e-11
-1.410000000e-02	2.678497182e-01	-4.274703987e-04	4.546636841e-11
-1.420000000e-02	2.678497183e-01	-4.247571219e-04	2.425732246e-11
-1.430000000e-02	2.678497184e-01	-4.220438451e-04	6.509930643e-12
-1.440000000e-02	2.678497184e-01	-4.193305685e-04	1.207678840e-11
-1.450000000e-02	2.678497184e-01	-4.166172919e-04	1.595972253e-11
-1.460000000e-02	2.678497182e-01	-4.139040155e-04	1.092126476e-11
-1.470000000e-02	2.678497180e-01	-4.111907391e-04	4.913483337e-11
-1.480000000e-02	2.678497177e-01	-4.084774629e-04	2.290795621e-11
-1.490000000e-02	2.678497173e-01	-4.057641868e-04	3.958094273e-11
-1.500000000e-02	2.678497168e-01	-4.030509109e-04	2.193196688e-11
-1.510000000e-02	2.678497162e-01	-4.003376350e-04	1.549720071e-11
-1.520000000e-02	2.678497155e-01	-3.976243593e-04	1.032658899e-10
-1.530000000e-02	2.678497148e-01	-3.949110837e-04	2.014744418e-11
-1.540000000e-02	2.678497140e-01	-3.921978083e-04	7.795522487e-12
-1.550000000e-02	2.678497131e-01	-3.894845330e-04	2.210080110e-11
-1.560000000e-02	2.678497121e-01	-3.867712579e-04	1.710725076e-11
-1.570000000e-02	2.678497111e-01	-3.840579829e-04	1.252784741e-11
-1.580000000e-02	2.678497099e-01	-3.813447081e-04	1.617039660e-11
-1.590000000e-02	2.678497087e-01	-3.786314334e-04	1.871813254e-11
-1.600000000e-02	2.678497074e-01	-3.759181589e-04	1.242712633e-11
-1.610000000e-02	2.678497060e-01	-3.732048846e-04	1.604222809e-11
-1.620000000e-02	2.678497045e-01	-3.704916105e-04	1.405408473e-11
-1.630000000e-02	2.678497029e-01	-3.677783365e-04	1.692268306e-11
-1.640000000e-02	2.678497013e-01	-3.650650627e-04	5.905108475e-12
-1.650000000e-02	2.678496996e-01	-3.623517891e-04	1.814765067e-11
-1.660000000e-02	2.678496978e-01	-3.596385157e-04	8.554691043e-12
-1.670000000e-02	2.678496959e-01	-3.569252425e-04	1.223027311e-11
-1.680000000e-02	2.678496939e-01	-3.542119695e-04	1.918368095e-11
-1.690000000e-02	2.678496919e-01	-3.514986966e-04	4.406122139e-11
-1.700000000e-02	2.678496897e-01	-3.487854240e-04	5.283751462e-12
-1.710000000e-02	2.678496875e-01	-3.460721517e-04	4.491786039e-11
-1.720000000e-02	2.678496852e-01	-3.433588795e-04	1.344248451e-11
-1.730000000e-02	2.678496828e-01	-3.406456075e-04	1.521719069e-11
-1.740000000e-02	2.678496804e-01	-3.379323358e-04	1.376765475e-11
-1.750000000e-02	2.678496778e-01	-3.352190643e-04	3.081138479e-11
-1.760000000e-02	2.678496752e-01	-3.325057930e-04	1.202015474e-11
-1.770000000e-02	2.678496725e-01	-3.297925220e-04	2.033656050e-11
-1.780000000e-02	2.678496697e-01	-3.270792512e-04	1.189450096e-11
-1.790000000e-02	2.678496668e-01	-3.243659807e-04	9.754474650e-12
-1.800000000e-02	2.678496639e-01	-3.216527104e-04	1.251166431e-11
-1.810000000e-02	2.678496608e-01	-3.189394403e-04	6.526998119e-12
-1.820000000e-02	2.678496577e-01	-3.162261706e-04	6.445106154e-11
-1.830000000e-02	2.678496545e-01	-3.135129010e-04	1.885347657e-11
-1.840000000e-02	2.678496512e-01	-3.107996318e-04	6.116960041e-12
-1.850000000e-02	2.678496478e-01	-3.080863628e-04	1.148780897e-11
-1.860000000e-02	2.678496444e-01	-3.053730941e-04	9.135376469e-12
-1.870000000e-02	2.678496408e-01	-3.026598257e-04	5.713545501e-12
-1.880000000e-02	2.678496372e-01	-2.999465575e-04	9.876416990e-12
-1.890000000e-02	2.678496335e-01	-2.972332897e-04	3.041244970e-12
-1.900000000e-02	2.678496297e-01	-2.945200221e-04	1.066897072e-11
-1.910000000e-02	2.678496259e-01	-2.918067548e-04	4.063182540e-11
-1.920000000e-02	2.678496219e-01	-2.890934879e-04	7.755978187e-12
-1.930000000e-02	2.678496179e-01	-2.863802212e-04	2.459688099e-11
-1.940000000e-02	2.678496138e-01	-2.836669548e-04	6.967542361e-12
-1.950000000e-02	2.678496096e-01	-2.809536888e-04	1.421258498e-11
-1.960000000e-02	2.678496053e-01	-2.782404231e-04	1.253455645e-11
-1.970000000e-02	2.678496009e-01	-2.755271577e-04	2.633462028e-11
-1.980000000e-02	2.678495965e-01	-2.728138926e-04	2.402018283e-11
-1.990000000e-02	2.678495920e-01	-2.701006278e-04	1.822042876e-11
-2.000000000e-02	2.678495874e-01	-2.673873634e-04	2.822211925e-11
-2.010000000e-02	2.678495827e-01	-2.646740993e-04	1.872136467e-11
-2.020000000e-02	2.678495779e-01	-2.619608356e-04	1.135997719e-11
-2.030000000e-02	2.678495731e-01	-2.592475722e-04	2.336091027e-11
-2.040000000e-02	2.678495681e-01	-2.565343091e-04	1.553991063e-11
-2.050000000e-02	2.678495631e-01	-2.538210464e-04	1.328658148e-11
-2.060000000e-02	2.678495580e-01	-2.511077841e-04	1.169549651e-11
-2.070000000e-02	2.678495528e-01	-2.483945221e-04	1.006390788e-11
-2.080000000e-02	2.678495476e-01	-2.456812605e-04	1.230061050e-10
-2.090000000e-02	2.678495422e-01	-2.429679993e-04	2.717096878e-11
-2.100000000e-02	2.678495368e-01	-2.402547384e-04	1.716645395e-11
-2.110000000e-02	2.678495313e-01	-2.375414780e-04	6.212650999e-12
-2.120000000e-02	2.678495257e-01	-2.348282179e-04	5.436086765e-12
-2.130000000e-02	2.678495200e-01	-2.321149581e-04	5.025292866e-12
-2.140000000e-02	2.678495142e-01	-2.294016988e-04	1.407650100e-11
-2.150000000e-02	2.678495084e-01	-2.266884399e-04	2.359971747e-11
-2.160000000e-02	2.678495025e-01	-2.239751814e-04	9.875093567e-12
-2.170000000e-02	2.678494964e-01	-2.212619233e-04	1.861415101e-11
-2.180000000e-02	2.678494904e-01	-2.185486655e-04	5.868135380e-11
-2.190000000e-02	2.678494842e-01	-2.158354082e-04	2.069853949e-11
-2.200000000e-02	2.678494779e-01	-2.131221514e-04	2.865193725e-11
-2.210000000e-02	2.678494716e-01	-2.104088949e-04	1.403254262e-11
-2.220000000e-02	2.678494652e-01	-2.076956389e-04	2.028503837e-11
-2.230000000e-02	2.678494587e-01	-2.049823833e-04	1.945042664e-11
-2.240000000e-02	2.678494521e-01	-2.022691281e-04	5.546487699e-12
-2.250000000e-02	2.678494454e-01	-1.995558734e-04	1.784822527e-11
-2.260000000e-02	2.678494387e-01	-1.968426191e-04	1.133109816e-11
-2.270000000e-02	2.678494318e-01	-1.941293652e-04	3.107889085e-11
-2.280000000e-02	2.678494249e-01	-1.914161118e-04	4.040348748e-12
-2.290000000e-02	2.678494179e-01	-1.887028589e-04	6.725956319e-12
-2.300000000e-02	2.678494108e-01	-1.859896064e-04	1.832498295e-11
-2.310000000e-02	2.678494037e-01	-1.832763544e-04	3.122579752e-11
-2.320000000e-02	2.678493964e-01	-1.805631028e-04	1.040776780e-11
-2.330000000e-02	2.678493891e-01	-1.778498517e-04	9.988358356e-12
-2.340000000e-02	2.678493817e-01	-1.751366011e-04	1.250937254e-11
-2.350000000e-02	2.678493742e-01	-1.724233510e-04	2.449447131e-11
-2.360000000e-02	2.678493666e-01	-1.697101013e-04	8.069035702e-12
-2.370000000e-02	2.678493590e-01	-1.669968522e-04	1.314781171e-11
-2.380000000e-02	2.678493512e-01	-1.642836035e-04	3.937871052e-12
-2.390000000e-02	2.678493434e-01	-1.615703553e-04	9.336820745e-12
-2.400000000e-02	2.678493355e-01	-1.588571076e-04	3.887589736e-11
-2.410000000e-02	2.678493275e-01	-1.561438605e-04	1.428384966e-11
-2.420000000e-02	2.678493194e-01	-1.534306138e-04	1.389371574e-11
-2.430000000e-02	2.678493113e-01	-1.507173677e-04	1.028221857e-11
-2.440000000e-02	2.678493031e-01	-1.480041220e-04	2.027519652e-11
-2.450000000e-02	2.678492947e-01	-1.452908769e-04	2.055855195e-11
-2.460000000e-02	2.678492863e-01	-1.425776323e-04	1.189125831e-11
-2.470000000e-02	2.678492779e-01	-1.398643883e-04	1.174409331e-11
-2.480000000e-02	2.678492693e-01	-1.371511448e-04	1.477832807e-11
-2.490000000e-02	2.678492607e-01	-1.344379018e-04	1.314305421e-11
-2.500000000e-02	2.678492519e-01	-1.317246593e-04	9.079567251e-12
-2.510000000e-02	2.678492431e-01	-1.290114174e-04	7.943195239e-12
-2.520000000e-02	2.678492342e-01	-1.262981761e-04	9.478516067e-12
-2.530000000e-02	2.678492252e-01	-1.235849353e-04	2.348335430e-11
-2.540000000e-02	2.678492162e-01	-1.208716951e-04	1.307405490e-11
-2.550000000e-02	2.678492071e-01	-1.181584554e-04	1.306617951e-11
-2.560000000e-02	2.678491978e-01	-1.154452163e-04	5.599655311e-12
-2.570000000e-02	2.678491885e-01	-1.127319777e-04	1.683253338e-11
-2.580000000e-02	2.678491791e-01	-1.100187398e-04	8.420482502e-12
-2.590000000e-02	2.678491697e-01	-1.073055024e-04	1.482856707e-11
-2.600000000e-02	2.678491601e-01	-1.045922656e-04	1.741280536e-11
-2.610000000e-02	2.678491505e-01	-1.018790294e-04	1.468233172e-11
-2.620000000e-02	2.678491408e-01	-9.916579378e-05	1.670176448e-11
-2.630000000e-02	2.678491310e-01	-9.645255876e-05	6.893874790e-12
-2.640000000e-02	2.678491211e-01	-9.373932434e-05	9.408851124e-12
-2.650000000e-02	2.678491111e-01	-9.102609053e-05	6.547010273e-11
-2.660000000e-02	2.678491011e-01	-8.831285731e-05	2.294379455e-11
-2.670000000e-02	2.678490909e-01	-8.559962472e-05	9.441852980e-12
-2.680000000e-02	2.678490807e-01	-8.288639274e-05	8.099863060e-12
-2.690000000e-02	2.678490704e-01	-8.017316138e-05	1.407132069e-11
-2.700000000e-02	2.678490601e-01	-7.745993065e-05	2.866201720e-11
-2.710000000e-02	2.678490496e-01	-7.474670055e-05	1.689148459e-11
-2.720000000e-02	2.678490391e-01	-7.203347108e-05	1.522464934e-11
-2.730000000e-02	2.678490284e-01	-6.932024225e-05	8.100851094e-11
-2.740000000e-02	2.678490177e-01	-6.660701405e-05	7.697106004e-12
-2.750000000e-02	2.678490069e-01	-6.389378651e-05	2.305719227e-11
-2.760000000e-02	2.678489961e-01	-6.118055962e-05	6.002299272e-12
-2.770000000e-02	2.678489851e-01	-5.846733338e-05	1.105022244e-11
-2.780000000e-02	2.678489741e-01	-5.575410779e-05	4.435617179e-11
-2.790000000e-02	2.678489630e-01	-5.304088288e-05	1.125020426e-11
-2.800000000e-02	2.678489518e-01	-5.032765862e-05	2.145888095e-11
-2.810000000e-02	2.678489405e-01	-4.761443505e-05	9.323124805e-11
-2.820000000e-02	2.678489291e-01	-4.490121214e-05	2.484978505e-11
-2.830000000e-02	2.678489177e-01	-4.218798991e-05	6.667778570e-12
-2.840000000e-02	2.678489061e-01	-3.947476837e-05	9.490179927e-12
-2.850000000e-02	2.678488945e-01	-3.676154752e-05	3.005700927e-11
-2.860000000e-02	2.678488828e-01	-3.404832735e-05	9.357156489e-12
-2.870000000e-02	2.678488710e-01	-3.133510789e-05	1.805297740e-11
-2.880000000e-02	2.678488592e-01	-2.862188912e-05	1.575132701e-11
-2.890000000e-02	2.678488472e-01	-2.590867106e-05	6.622775585e-12
-2.900000000e-02	2.678488352e-01	-2.319545370e-05	2.392927109e-11
-2.910000000e-02	2.678488231e-01	-2.048223707e-05	4.481187538e-11
-2.920000000e-02	2.678488109e-01	-1.776902114e-05	9.676934696e-12
-2.930000000e-02	2.678487986e-01	-1.505580594e-05	2.947841558e-11
-2.940000000e-02	2.678487863e-01	-1.234259146e-05	1.266760763e-11
-2.950000000e-02	2.678487739e-01	-9.629377716e-06	6.341068788e-11
-2.960000000e-02	2.678487613e-01	-6.916164699e-06	1.194812505e-11
-2.970000000e-02	2.678487487e-01	-4.202952423e-06	1.413944365e-11
-2.980000000e-02	2.678487360e-01	-1.489740888e-06	1.401953209e-11
-2.990000000e-02	2.678487233e-01	1.223469900e-06	2.071136436e-11
-3.000000000e-02	2.678487104e-01	3.936679939e-06	2.287684104e-11
