# Im(epsi1)     Re(omega/c)      Im(omega/c)      Eq(det).Opt det CON kz, R=0.5 \mum, mu_c=0.3, Re(epsi1)=3.90solve_det_conkz_vs_kz.py
0.000000000e+00	2.678575945e-01	-8.100794919e-04	1.978085686e-11
-1.000000000e-04	2.678576063e-01	-8.073661741e-04	3.979475728e-11
-2.000000000e-04	2.678576180e-01	-8.046528557e-04	7.034233778e-12
-3.000000000e-04	2.678576297e-01	-8.019395369e-04	9.269942311e-12
-4.000000000e-04	2.678576412e-01	-7.992262175e-04	1.015323050e-11
-5.000000000e-04	2.678576527e-01	-7.965128977e-04	5.253093189e-12
-6.000000000e-04	2.678576641e-01	-7.937995774e-04	1.918218049e-11
-7.000000000e-04	2.678576754e-01	-7.910862567e-04	5.401294645e-12
-8.000000000e-04	2.678576866e-01	-7.883729355e-04	7.922302160e-12
-9.000000000e-04	2.678576977e-01	-7.856596138e-04	2.812342517e-11
-1.000000000e-03	2.678577088e-01	-7.829462916e-04	2.130796520e-11
-1.100000000e-03	2.678577197e-01	-7.802329690e-04	1.002889061e-11
-1.200000000e-03	2.678577306e-01	-7.775196460e-04	1.928896959e-11
-1.300000000e-03	2.678577414e-01	-7.748063225e-04	7.061425545e-12
-1.400000000e-03	2.678577522e-01	-7.720929985e-04	7.508337209e-12
-1.500000000e-03	2.678577628e-01	-7.693796741e-04	4.267627317e-12
-1.600000000e-03	2.678577734e-01	-7.666663493e-04	6.350334319e-12
-1.700000000e-03	2.678577838e-01	-7.639530241e-04	2.394520701e-11
-1.800000000e-03	2.678577942e-01	-7.612396984e-04	3.914099371e-11
-1.900000000e-03	2.678578045e-01	-7.585263723e-04	2.245319798e-12
-2.000000000e-03	2.678578148e-01	-7.558130458e-04	2.323295501e-11
-2.100000000e-03	2.678578249e-01	-7.530997189e-04	2.797850256e-11
-2.200000000e-03	2.678578350e-01	-7.503863915e-04	1.551206186e-11
-2.300000000e-03	2.678578450e-01	-7.476730638e-04	1.602446071e-11
-2.400000000e-03	2.678578549e-01	-7.449597356e-04	1.422106020e-11
-2.500000000e-03	2.678578647e-01	-7.422464071e-04	1.053470536e-11
-2.600000000e-03	2.678578744e-01	-7.395330782e-04	8.895650031e-12
-2.700000000e-03	2.678578841e-01	-7.368197488e-04	2.428386965e-11
-2.800000000e-03	2.678578936e-01	-7.341064191e-04	1.971799119e-11
-2.900000000e-03	2.678579031e-01	-7.313930890e-04	1.597788789e-11
-3.000000000e-03	2.678579125e-01	-7.286797586e-04	7.597605469e-12
-3.100000000e-03	2.678579219e-01	-7.259664278e-04	3.696398448e-12
-3.200000000e-03	2.678579311e-01	-7.232530966e-04	2.782307832e-11
-3.300000000e-03	2.678579403e-01	-7.205397650e-04	1.620159152e-11
-3.400000000e-03	2.678579493e-01	-7.178264331e-04	1.021825918e-11
-3.500000000e-03	2.678579583e-01	-7.151131008e-04	1.824677314e-11
-3.600000000e-03	2.678579672e-01	-7.123997682e-04	3.965410877e-11
-3.700000000e-03	2.678579761e-01	-7.096864352e-04	1.179458185e-11
-3.800000000e-03	2.678579848e-01	-7.069731019e-04	8.857696538e-12
-3.900000000e-03	2.678579935e-01	-7.042597682e-04	1.679869643e-11
-4.000000000e-03	2.678580021e-01	-7.015464342e-04	3.315443511e-11
-4.100000000e-03	2.678580106e-01	-6.988330999e-04	5.686151071e-12
-4.200000000e-03	2.678580190e-01	-6.961197652e-04	1.239330076e-11
-4.300000000e-03	2.678580273e-01	-6.934064303e-04	2.392499567e-11
-4.400000000e-03	2.678580356e-01	-6.906930950e-04	1.139871317e-11
-4.500000000e-03	2.678580437e-01	-6.879797594e-04	1.276292205e-11
-4.600000000e-03	2.678580518e-01	-6.852664235e-04	9.514266180e-12
-4.700000000e-03	2.678580598e-01	-6.825530873e-04	7.652095910e-12
-4.800000000e-03	2.678580677e-01	-6.798397507e-04	1.716091653e-11
-4.900000000e-03	2.678580756e-01	-6.771264139e-04	1.590056318e-11
-5.000000000e-03	2.678580833e-01	-6.744130768e-04	8.507181288e-12
-5.100000000e-03	2.678580910e-01	-6.716997394e-04	1.288956261e-11
-5.200000000e-03	2.678580986e-01	-6.689864017e-04	2.406579596e-11
-5.300000000e-03	2.678581061e-01	-6.662730638e-04	4.228273982e-11
-5.400000000e-03	2.678581135e-01	-6.635597256e-04	3.321856348e-11
-5.500000000e-03	2.678581209e-01	-6.608463870e-04	5.236108451e-12
-5.600000000e-03	2.678581281e-01	-6.581330483e-04	1.781648059e-11
-5.700000000e-03	2.678581353e-01	-6.554197092e-04	2.326209248e-11
-5.800000000e-03	2.678581424e-01	-6.527063699e-04	3.780582703e-12
-5.900000000e-03	2.678581494e-01	-6.499930304e-04	5.767050309e-11
-6.000000000e-03	2.678581564e-01	-6.472796906e-04	2.601876453e-11
-6.100000000e-03	2.678581632e-01	-6.445663505e-04	1.303111797e-11
-6.200000000e-03	2.678581700e-01	-6.418530102e-04	1.934306851e-11
-6.300000000e-03	2.678581767e-01	-6.391396697e-04	9.231164419e-12
-6.400000000e-03	2.678581833e-01	-6.364263290e-04	1.394052320e-10
-6.500000000e-03	2.678581898e-01	-6.337129880e-04	2.565314716e-11
-6.600000000e-03	2.678581962e-01	-6.309996467e-04	5.501584762e-12
-6.700000000e-03	2.678582026e-01	-6.282863053e-04	2.758252426e-11
-6.800000000e-03	2.678582089e-01	-6.255729636e-04	1.320634750e-11
-6.900000000e-03	2.678582151e-01	-6.228596218e-04	1.593402470e-11
-7.000000000e-03	2.678582212e-01	-6.201462797e-04	1.025010813e-11
-7.100000000e-03	2.678582272e-01	-6.174329374e-04	8.425688855e-12
-7.200000000e-03	2.678582331e-01	-6.147195949e-04	1.121617380e-11
-7.300000000e-03	2.678582390e-01	-6.120062522e-04	9.068741501e-12
-7.400000000e-03	2.678582448e-01	-6.092929094e-04	9.071638016e-12
-7.500000000e-03	2.678582505e-01	-6.065795663e-04	5.431721619e-11
-7.600000000e-03	2.678582561e-01	-6.038662230e-04	1.426853588e-11
-7.700000000e-03	2.678582616e-01	-6.011528796e-04	9.585194746e-12
-7.800000000e-03	2.678582671e-01	-5.984395360e-04	2.110024246e-11
-7.900000000e-03	2.678582724e-01	-5.957261922e-04	6.821602863e-12
-8.000000000e-03	2.678582777e-01	-5.930128483e-04	1.269552374e-11
-8.100000000e-03	2.678582829e-01	-5.902995042e-04	1.350698592e-11
-8.200000000e-03	2.678582880e-01	-5.875861599e-04	1.130098350e-11
-8.300000000e-03	2.678582931e-01	-5.848728155e-04	3.345411803e-11
-8.400000000e-03	2.678582980e-01	-5.821594709e-04	1.762529306e-11
-8.500000000e-03	2.678583029e-01	-5.794461262e-04	3.082111254e-12
-8.600000000e-03	2.678583077e-01	-5.767327814e-04	1.646182558e-11
-8.700000000e-03	2.678583124e-01	-5.740194364e-04	7.921705376e-12
-8.800000000e-03	2.678583170e-01	-5.713060912e-04	7.845314762e-12
-8.900000000e-03	2.678583216e-01	-5.685927460e-04	1.202109612e-11
-9.000000000e-03	2.678583260e-01	-5.658794006e-04	1.014567957e-11
-9.100000000e-03	2.678583304e-01	-5.631660551e-04	1.556569774e-11
-9.200000000e-03	2.678583347e-01	-5.604527094e-04	8.802629503e-12
-9.300000000e-03	2.678583389e-01	-5.577393637e-04	1.089231591e-11
-9.400000000e-03	2.678583430e-01	-5.550260178e-04	1.113346445e-11
-9.500000000e-03	2.678583471e-01	-5.523126719e-04	1.085407434e-11
-9.600000000e-03	2.678583511e-01	-5.495993258e-04	1.378901842e-11
-9.700000000e-03	2.678583549e-01	-5.468859797e-04	2.252702043e-11
-9.800000000e-03	2.678583587e-01	-5.441726334e-04	1.038880480e-11
-9.900000000e-03	2.678583625e-01	-5.414592871e-04	8.106774378e-12
-1.000000000e-02	2.678583661e-01	-5.387459407e-04	4.015967360e-12
-1.010000000e-02	2.678583696e-01	-5.360325942e-04	3.835220972e-11
-1.020000000e-02	2.678583731e-01	-5.333192476e-04	1.205471205e-11
-1.030000000e-02	2.678583765e-01	-5.306059010e-04	1.160107985e-11
-1.040000000e-02	2.678583798e-01	-5.278925543e-04	1.022954326e-11
-1.050000000e-02	2.678583830e-01	-5.251792075e-04	1.171372847e-11
-1.060000000e-02	2.678583862e-01	-5.224658607e-04	1.117959809e-11
-1.070000000e-02	2.678583892e-01	-5.197525138e-04	3.140654736e-11
-1.080000000e-02	2.678583922e-01	-5.170391669e-04	1.789589526e-11
-1.090000000e-02	2.678583951e-01	-5.143258199e-04	1.299011490e-11
-1.100000000e-02	2.678583979e-01	-5.116124728e-04	4.721902274e-11
-1.110000000e-02	2.678584006e-01	-5.088991258e-04	1.685267371e-11
-1.120000000e-02	2.678584033e-01	-5.061857787e-04	8.580139191e-12
-1.130000000e-02	2.678584059e-01	-5.034724316e-04	7.651267593e-12
-1.140000000e-02	2.678584083e-01	-5.007590844e-04	3.623929986e-11
-1.150000000e-02	2.678584107e-01	-4.980457372e-04	1.118604689e-11
-1.160000000e-02	2.678584131e-01	-4.953323900e-04	1.042419989e-11
-1.170000000e-02	2.678584153e-01	-4.926190428e-04	1.167388482e-11
-1.180000000e-02	2.678584174e-01	-4.899056956e-04	1.303585109e-11
-1.190000000e-02	2.678584195e-01	-4.871923484e-04	1.238829179e-11
-1.200000000e-02	2.678584215e-01	-4.844790012e-04	7.904117257e-12
-1.210000000e-02	2.678584234e-01	-4.817656540e-04	4.727840004e-12
-1.220000000e-02	2.678584252e-01	-4.790523068e-04	9.427164970e-12
-1.230000000e-02	2.678584270e-01	-4.763389596e-04	1.235944880e-11
-1.240000000e-02	2.678584286e-01	-4.736256124e-04	1.246226819e-11
-1.250000000e-02	2.678584302e-01	-4.709122652e-04	1.213944389e-11
-1.260000000e-02	2.678584317e-01	-4.681989181e-04	5.029295206e-12
-1.270000000e-02	2.678584331e-01	-4.654855710e-04	8.219226694e-12
-1.280000000e-02	2.678584344e-01	-4.627722239e-04	1.703611089e-11
-1.290000000e-02	2.678584357e-01	-4.600588769e-04	8.727141149e-12
-1.300000000e-02	2.678584368e-01	-4.573455299e-04	2.900742178e-11
-1.310000000e-02	2.678584379e-01	-4.546321829e-04	1.623654283e-10
-1.320000000e-02	2.678584389e-01	-4.519188360e-04	5.338447209e-11
-1.330000000e-02	2.678584398e-01	-4.492054892e-04	7.383233916e-12
-1.340000000e-02	2.678584407e-01	-4.464921424e-04	2.703236931e-11
-1.350000000e-02	2.678584414e-01	-4.437787957e-04	3.902128907e-11
-1.360000000e-02	2.678584421e-01	-4.410654490e-04	1.218180933e-10
-1.370000000e-02	2.678584427e-01	-4.383521024e-04	2.582105419e-11
-1.380000000e-02	2.678584432e-01	-4.356387559e-04	1.706021177e-11
-1.390000000e-02	2.678584436e-01	-4.329254095e-04	1.195101209e-11
-1.400000000e-02	2.678584439e-01	-4.302120631e-04	1.111671054e-11
-1.410000000e-02	2.678584442e-01	-4.274987168e-04	1.359639286e-11
-1.420000000e-02	2.678584444e-01	-4.247853707e-04	2.014266654e-11
-1.430000000e-02	2.678584445e-01	-4.220720246e-04	2.201071293e-11
-1.440000000e-02	2.678584445e-01	-4.193586786e-04	1.206691444e-11
-1.450000000e-02	2.678584444e-01	-4.166453327e-04	6.341485213e-12
-1.460000000e-02	2.678584442e-01	-4.139319870e-04	2.155417013e-11
-1.470000000e-02	2.678584440e-01	-4.112186413e-04	2.114268538e-11
-1.480000000e-02	2.678584437e-01	-4.085052958e-04	1.611974840e-11
-1.490000000e-02	2.678584433e-01	-4.057919503e-04	1.689395115e-11
-1.500000000e-02	2.678584428e-01	-4.030786050e-04	1.337911693e-11
-1.510000000e-02	2.678584422e-01	-4.003652599e-04	2.836237229e-11
-1.520000000e-02	2.678584416e-01	-3.976519148e-04	1.340933534e-11
-1.530000000e-02	2.678584408e-01	-3.949385699e-04	1.078454566e-11
-1.540000000e-02	2.678584400e-01	-3.922252252e-04	1.345571984e-11
-1.550000000e-02	2.678584391e-01	-3.895118806e-04	1.059565763e-11
-1.560000000e-02	2.678584381e-01	-3.867985361e-04	1.051721443e-11
-1.570000000e-02	2.678584371e-01	-3.840851918e-04	9.536535679e-12
-1.580000000e-02	2.678584359e-01	-3.813718477e-04	1.894861795e-12
-1.590000000e-02	2.678584347e-01	-3.786585037e-04	1.462950733e-11
-1.600000000e-02	2.678584334e-01	-3.759451599e-04	7.675501783e-12
-1.610000000e-02	2.678584320e-01	-3.732318162e-04	7.755716510e-12
-1.620000000e-02	2.678584305e-01	-3.705184727e-04	3.085879600e-11
-1.630000000e-02	2.678584290e-01	-3.678051294e-04	2.574734837e-12
-1.640000000e-02	2.678584273e-01	-3.650917863e-04	1.398246086e-11
-1.650000000e-02	2.678584256e-01	-3.623784434e-04	1.505292346e-11
-1.660000000e-02	2.678584238e-01	-3.596651007e-04	5.671326730e-12
-1.670000000e-02	2.678584219e-01	-3.569517581e-04	3.428227957e-11
-1.680000000e-02	2.678584200e-01	-3.542384158e-04	1.424183584e-11
-1.690000000e-02	2.678584179e-01	-3.515250736e-04	2.126422265e-11
-1.700000000e-02	2.678584158e-01	-3.488117317e-04	2.066813496e-11
-1.710000000e-02	2.678584135e-01	-3.460983900e-04	8.621218913e-12
-1.720000000e-02	2.678584113e-01	-3.433850485e-04	3.077357400e-11
-1.730000000e-02	2.678584089e-01	-3.406717072e-04	2.680243965e-12
-1.740000000e-02	2.678584064e-01	-3.379583662e-04	1.900814245e-12
-1.750000000e-02	2.678584039e-01	-3.352450253e-04	1.399577265e-11
-1.760000000e-02	2.678584012e-01	-3.325316847e-04	1.970721922e-11
-1.770000000e-02	2.678583985e-01	-3.298183444e-04	7.202378465e-11
-1.780000000e-02	2.678583957e-01	-3.271050043e-04	9.292155705e-12
-1.790000000e-02	2.678583929e-01	-3.243916644e-04	9.855330587e-12
-1.800000000e-02	2.678583899e-01	-3.216783248e-04	1.060813570e-11
-1.810000000e-02	2.678583869e-01	-3.189649854e-04	7.086550559e-11
-1.820000000e-02	2.678583837e-01	-3.162516463e-04	1.385894088e-11
-1.830000000e-02	2.678583805e-01	-3.135383075e-04	9.662834811e-12
-1.840000000e-02	2.678583772e-01	-3.108249689e-04	4.128634143e-12
-1.850000000e-02	2.678583739e-01	-3.081116306e-04	3.177178998e-11
-1.860000000e-02	2.678583704e-01	-3.053982926e-04	2.924519894e-11
-1.870000000e-02	2.678583669e-01	-3.026849548e-04	1.951515366e-11
-1.880000000e-02	2.678583633e-01	-2.999716173e-04	6.233910908e-12
-1.890000000e-02	2.678583596e-01	-2.972582801e-04	1.176894230e-11
-1.900000000e-02	2.678583558e-01	-2.945449433e-04	2.026324743e-11
-1.910000000e-02	2.678583519e-01	-2.918316067e-04	2.975992708e-12
-1.920000000e-02	2.678583480e-01	-2.891182704e-04	2.237104456e-11
-1.930000000e-02	2.678583439e-01	-2.864049344e-04	2.680689076e-11
-1.940000000e-02	2.678583398e-01	-2.836915987e-04	1.572736351e-11
-1.950000000e-02	2.678583356e-01	-2.809782633e-04	1.073972286e-11
-1.960000000e-02	2.678583314e-01	-2.782649283e-04	1.987111620e-11
-1.970000000e-02	2.678583270e-01	-2.755515935e-04	1.403196842e-11
-1.980000000e-02	2.678583225e-01	-2.728382591e-04	1.386722034e-11
-1.990000000e-02	2.678583180e-01	-2.701249250e-04	1.006379087e-11
-2.000000000e-02	2.678583134e-01	-2.674115913e-04	6.516408976e-11
-2.010000000e-02	2.678583087e-01	-2.646982579e-04	1.626561717e-11
-2.020000000e-02	2.678583040e-01	-2.619849248e-04	3.219753624e-11
-2.030000000e-02	2.678582991e-01	-2.592715921e-04	1.790262919e-11
-2.040000000e-02	2.678582942e-01	-2.565582597e-04	2.090065052e-11
-2.050000000e-02	2.678582891e-01	-2.538449277e-04	1.156688105e-11
-2.060000000e-02	2.678582840e-01	-2.511315960e-04	3.497314676e-12
-2.070000000e-02	2.678582789e-01	-2.484182647e-04	2.288917589e-11
-2.080000000e-02	2.678582736e-01	-2.457049338e-04	2.022159187e-11
-2.090000000e-02	2.678582682e-01	-2.429916032e-04	1.384351040e-11
-2.100000000e-02	2.678582628e-01	-2.402782730e-04	1.129993018e-11
-2.110000000e-02	2.678582573e-01	-2.375649432e-04	2.324221108e-11
-2.120000000e-02	2.678582517e-01	-2.348516138e-04	8.362587692e-12
-2.130000000e-02	2.678582460e-01	-2.321382848e-04	1.538006222e-12
-2.140000000e-02	2.678582403e-01	-2.294249561e-04	1.048142353e-11
-2.150000000e-02	2.678582344e-01	-2.267116279e-04	8.836321971e-12
-2.160000000e-02	2.678582285e-01	-2.239983000e-04	2.811726440e-11
-2.170000000e-02	2.678582225e-01	-2.212849726e-04	9.383988072e-12
-2.180000000e-02	2.678582164e-01	-2.185716456e-04	1.070728212e-12
-2.190000000e-02	2.678582102e-01	-2.158583189e-04	1.004640817e-11
-2.200000000e-02	2.678582040e-01	-2.131449927e-04	2.551043597e-11
-2.210000000e-02	2.678581976e-01	-2.104316669e-04	8.554788458e-12
-2.220000000e-02	2.678581912e-01	-2.077183416e-04	2.160337364e-11
-2.230000000e-02	2.678581847e-01	-2.050050166e-04	1.912137456e-11
-2.240000000e-02	2.678581781e-01	-2.022916921e-04	1.703387186e-11
-2.250000000e-02	2.678581715e-01	-1.995783681e-04	8.806538623e-12
-2.260000000e-02	2.678581647e-01	-1.968650445e-04	2.273477583e-11
-2.270000000e-02	2.678581579e-01	-1.941517213e-04	2.559760350e-12
-2.280000000e-02	2.678581510e-01	-1.914383985e-04	2.069078240e-11
-2.290000000e-02	2.678581440e-01	-1.887250763e-04	4.044686072e-11
-2.300000000e-02	2.678581369e-01	-1.860117545e-04	8.284482120e-12
-2.310000000e-02	2.678581297e-01	-1.832984331e-04	1.556967424e-10
-2.320000000e-02	2.678581225e-01	-1.805851122e-04	1.037119576e-11
-2.330000000e-02	2.678581152e-01	-1.778717918e-04	1.224583843e-11
-2.340000000e-02	2.678581077e-01	-1.751584719e-04	3.618017778e-11
-2.350000000e-02	2.678581003e-01	-1.724451524e-04	1.056540179e-11
-2.360000000e-02	2.678580927e-01	-1.697318334e-04	1.704181535e-11
-2.370000000e-02	2.678580850e-01	-1.670185150e-04	9.165482337e-12
-2.380000000e-02	2.678580773e-01	-1.643051970e-04	2.205714995e-11
-2.390000000e-02	2.678580695e-01	-1.615918795e-04	2.534206320e-11
-2.400000000e-02	2.678580616e-01	-1.588785625e-04	7.939604927e-12
-2.410000000e-02	2.678580536e-01	-1.561652460e-04	2.860969897e-11
-2.420000000e-02	2.678580455e-01	-1.534519300e-04	1.982466950e-11
-2.430000000e-02	2.678580374e-01	-1.507386145e-04	4.042252759e-12
-2.440000000e-02	2.678580291e-01	-1.480252995e-04	1.706744701e-11
-2.450000000e-02	2.678580208e-01	-1.453119851e-04	1.022662585e-11
-2.460000000e-02	2.678580124e-01	-1.425986712e-04	2.105849574e-11
-2.470000000e-02	2.678580039e-01	-1.398853578e-04	8.780402538e-12
-2.480000000e-02	2.678579954e-01	-1.371720450e-04	1.814453098e-11
-2.490000000e-02	2.678579867e-01	-1.344587326e-04	4.625223519e-13
-2.500000000e-02	2.678579780e-01	-1.317454209e-04	3.284633018e-11
-2.510000000e-02	2.678579692e-01	-1.290321096e-04	1.871297513e-11
-2.520000000e-02	2.678579603e-01	-1.263187990e-04	1.705360813e-11
-2.530000000e-02	2.678579513e-01	-1.236054888e-04	2.265677276e-11
-2.540000000e-02	2.678579423e-01	-1.208921793e-04	5.054347240e-12
-2.550000000e-02	2.678579331e-01	-1.181788703e-04	9.155412977e-12
-2.560000000e-02	2.678579239e-01	-1.154655619e-04	1.698885335e-11
-2.570000000e-02	2.678579146e-01	-1.127522540e-04	9.507112071e-12
-2.580000000e-02	2.678579052e-01	-1.100389467e-04	1.761732292e-11
-2.590000000e-02	2.678578957e-01	-1.073256400e-04	1.025644666e-11
-2.600000000e-02	2.678578862e-01	-1.046123339e-04	4.900364783e-12
-2.610000000e-02	2.678578765e-01	-1.018990283e-04	1.930444540e-11
-2.620000000e-02	2.678578668e-01	-9.918572339e-05	2.197708765e-11
-2.630000000e-02	2.678578570e-01	-9.647241904e-05	7.129326941e-12
-2.640000000e-02	2.678578471e-01	-9.375911529e-05	7.342171769e-12
-2.650000000e-02	2.678578372e-01	-9.104581215e-05	2.317741739e-11
-2.660000000e-02	2.678578271e-01	-8.833250961e-05	1.170618595e-11
-2.670000000e-02	2.678578170e-01	-8.561920769e-05	1.565111022e-11
-2.680000000e-02	2.678578068e-01	-8.290590638e-05	1.458404503e-11
-2.690000000e-02	2.678577965e-01	-8.019260570e-05	7.285441749e-12
-2.700000000e-02	2.678577861e-01	-7.747930564e-05	1.754956744e-11
-2.710000000e-02	2.678577757e-01	-7.476600621e-05	2.325553528e-11
-2.720000000e-02	2.678577651e-01	-7.205270741e-05	3.805391643e-12
-2.730000000e-02	2.678577545e-01	-6.933940925e-05	2.929867745e-12
-2.740000000e-02	2.678577438e-01	-6.662611173e-05	6.788168925e-12
-2.750000000e-02	2.678577330e-01	-6.391281486e-05	8.761947688e-12
-2.760000000e-02	2.678577221e-01	-6.119951864e-05	1.105080273e-11
-2.770000000e-02	2.678577112e-01	-5.848622307e-05	1.308204721e-11
-2.780000000e-02	2.678577001e-01	-5.577292816e-05	1.130195928e-11
-2.790000000e-02	2.678576890e-01	-5.305963392e-05	1.133207087e-11
-2.800000000e-02	2.678576778e-01	-5.034634034e-05	1.213067848e-11
-2.810000000e-02	2.678576665e-01	-4.763304743e-05	1.584534597e-11
-2.820000000e-02	2.678576552e-01	-4.491975520e-05	3.789616679e-11
-2.830000000e-02	2.678576437e-01	-4.220646364e-05	1.014511077e-11
-2.840000000e-02	2.678576322e-01	-3.949317277e-05	2.077784867e-11
-2.850000000e-02	2.678576206e-01	-3.677988259e-05	1.572498201e-11
-2.860000000e-02	2.678576089e-01	-3.406659310e-05	1.728485581e-11
-2.870000000e-02	2.678575971e-01	-3.135330430e-05	8.562514432e-12
-2.880000000e-02	2.678575853e-01	-2.864001621e-05	4.019583513e-11
-2.890000000e-02	2.678575733e-01	-2.592672882e-05	6.637520273e-11
-2.900000000e-02	2.678575613e-01	-2.321344214e-05	6.258569535e-12
-2.910000000e-02	2.678575492e-01	-2.050015617e-05	1.012425888e-11
-2.920000000e-02	2.678575370e-01	-1.778687092e-05	7.246304794e-12
-2.930000000e-02	2.678575247e-01	-1.507358639e-05	2.018546059e-12
-2.940000000e-02	2.678575124e-01	-1.236030258e-05	6.309805010e-12
-2.950000000e-02	2.678574999e-01	-9.647019507e-06	5.944161063e-12
-2.960000000e-02	2.678574874e-01	-6.933737164e-06	2.120354246e-11
-2.970000000e-02	2.678574748e-01	-4.220455560e-06	1.603330326e-11
-2.980000000e-02	2.678574621e-01	-1.507174697e-06	1.053599218e-11
-2.990000000e-02	2.678574494e-01	1.206105419e-06	5.941550242e-12
-3.000000000e-02	2.678574365e-01	3.919384785e-06	1.262573107e-11
