# Im(epsi1)     Re(omega/c)      Im(omega/c)      Eq(det).Opt det CON kz, R=0.5 \mum, mu_c=0.3, Re(epsi1)=3.90solve_det_conkz_vs_kz.py
0.000000000e+00	2.678496861e-01	-8.100449680e-04	1.751454196e-11
-1.000000000e-04	2.678496979e-01	-8.073317130e-04	1.143056182e-11
-2.000000000e-04	2.678497096e-01	-8.046184574e-04	1.698861343e-11
-3.000000000e-04	2.678497212e-01	-8.019052014e-04	8.298337534e-12
-4.000000000e-04	2.678497328e-01	-7.991919449e-04	1.337072940e-11
-5.000000000e-04	2.678497443e-01	-7.964786879e-04	2.625944795e-11
-6.000000000e-04	2.678497556e-01	-7.937654305e-04	1.639397770e-11
-7.000000000e-04	2.678497669e-01	-7.910521725e-04	6.546757698e-12
-8.000000000e-04	2.678497782e-01	-7.883389141e-04	3.647402442e-11
-9.000000000e-04	2.678497893e-01	-7.856256553e-04	7.712653600e-12
-1.000000000e-03	2.678498003e-01	-7.829123960e-04	1.439251303e-11
-1.100000000e-03	2.678498113e-01	-7.801991362e-04	1.333033179e-11
-1.200000000e-03	2.678498222e-01	-7.774858760e-04	1.496134238e-11
-1.300000000e-03	2.678498330e-01	-7.747726153e-04	1.630316973e-11
-1.400000000e-03	2.678498437e-01	-7.720593542e-04	1.837304612e-11
-1.500000000e-03	2.678498544e-01	-7.693460926e-04	3.305002420e-11
-1.600000000e-03	2.678498649e-01	-7.666328306e-04	3.874011552e-11
-1.700000000e-03	2.678498754e-01	-7.639195682e-04	2.097647089e-11
-1.800000000e-03	2.678498858e-01	-7.612063054e-04	4.979708292e-11
-1.900000000e-03	2.678498961e-01	-7.584930421e-04	1.234231652e-11
-2.000000000e-03	2.678499063e-01	-7.557797784e-04	6.005049994e-12
-2.100000000e-03	2.678499165e-01	-7.530665143e-04	2.431837812e-11
-2.200000000e-03	2.678499266e-01	-7.503532498e-04	3.045431620e-11
-2.300000000e-03	2.678499365e-01	-7.476399849e-04	2.093229217e-11
-2.400000000e-03	2.678499464e-01	-7.449267196e-04	9.663088681e-12
-2.500000000e-03	2.678499563e-01	-7.422134538e-04	1.003101436e-11
-2.600000000e-03	2.678499660e-01	-7.395001877e-04	8.138437724e-12
-2.700000000e-03	2.678499756e-01	-7.367869212e-04	7.366201440e-12
-2.800000000e-03	2.678499852e-01	-7.340736544e-04	4.683900879e-11
-2.900000000e-03	2.678499947e-01	-7.313603871e-04	1.548608258e-11
-3.000000000e-03	2.678500041e-01	-7.286471195e-04	1.329997665e-11
-3.100000000e-03	2.678500134e-01	-7.259338515e-04	1.202377345e-11
-3.200000000e-03	2.678500227e-01	-7.232205831e-04	8.717529908e-12
-3.300000000e-03	2.678500318e-01	-7.205073144e-04	1.410317090e-11
-3.400000000e-03	2.678500409e-01	-7.177940453e-04	5.637526037e-12
-3.500000000e-03	2.678500499e-01	-7.150807758e-04	5.834996347e-12
-3.600000000e-03	2.678500588e-01	-7.123675060e-04	5.886791631e-12
-3.700000000e-03	2.678500676e-01	-7.096542359e-04	1.124322138e-11
-3.800000000e-03	2.678500764e-01	-7.069409654e-04	1.403966027e-11
-3.900000000e-03	2.678500850e-01	-7.042276945e-04	4.623856976e-11
-4.000000000e-03	2.678500936e-01	-7.015144234e-04	1.265877218e-11
-4.100000000e-03	2.678501021e-01	-6.988011519e-04	1.170839910e-11
-4.200000000e-03	2.678501105e-01	-6.960878801e-04	2.006731767e-11
-4.300000000e-03	2.678501189e-01	-6.933746079e-04	2.275092448e-11
-4.400000000e-03	2.678501271e-01	-6.906613355e-04	8.173646732e-12
-4.500000000e-03	2.678501353e-01	-6.879480627e-04	1.896357947e-11
-4.600000000e-03	2.678501434e-01	-6.852347896e-04	2.302121912e-11
-4.700000000e-03	2.678501514e-01	-6.825215162e-04	1.363244753e-11
-4.800000000e-03	2.678501593e-01	-6.798082425e-04	1.457843205e-11
-4.900000000e-03	2.678501671e-01	-6.770949686e-04	1.341786481e-11
-5.000000000e-03	2.678501749e-01	-6.743816943e-04	6.201186428e-12
-5.100000000e-03	2.678501826e-01	-6.716684197e-04	1.106572900e-11
-5.200000000e-03	2.678501902e-01	-6.689551449e-04	6.671358692e-11
-5.300000000e-03	2.678501977e-01	-6.662418697e-04	4.281558356e-11
-5.400000000e-03	2.678502051e-01	-6.635285943e-04	1.000743391e-11
-5.500000000e-03	2.678502124e-01	-6.608153186e-04	7.119239290e-12
-5.600000000e-03	2.678502197e-01	-6.581020427e-04	9.342354805e-12
-5.700000000e-03	2.678502269e-01	-6.553887665e-04	6.828746033e-12
-5.800000000e-03	2.678502340e-01	-6.526754900e-04	2.793730522e-11
-5.900000000e-03	2.678502410e-01	-6.499622133e-04	1.335941170e-11
-6.000000000e-03	2.678502479e-01	-6.472489363e-04	6.788193950e-12
-6.100000000e-03	2.678502548e-01	-6.445356591e-04	1.634952713e-11
-6.200000000e-03	2.678502615e-01	-6.418223817e-04	2.229473393e-11
-6.300000000e-03	2.678502682e-01	-6.391091040e-04	9.704931026e-12
-6.400000000e-03	2.678502748e-01	-6.363958260e-04	1.173400225e-11
-6.500000000e-03	2.678502813e-01	-6.336825479e-04	1.469557195e-11
-6.600000000e-03	2.678502878e-01	-6.309692695e-04	1.153027292e-11
-6.700000000e-03	2.678502941e-01	-6.282559908e-04	1.362453323e-11
-6.800000000e-03	2.678503004e-01	-6.255427120e-04	3.342480939e-11
-6.900000000e-03	2.678503066e-01	-6.228294330e-04	6.540836250e-11
-7.000000000e-03	2.678503127e-01	-6.201161537e-04	1.481738977e-10
-7.100000000e-03	2.678503187e-01	-6.174028743e-04	6.861783710e-12
-7.200000000e-03	2.678503247e-01	-6.146895946e-04	3.079618558e-11
-7.300000000e-03	2.678503305e-01	-6.119763148e-04	1.637822649e-11
-7.400000000e-03	2.678503363e-01	-6.092630347e-04	7.515476486e-12
-7.500000000e-03	2.678503420e-01	-6.065497545e-04	1.087146490e-11
-7.600000000e-03	2.678503476e-01	-6.038364741e-04	9.216277587e-12
-7.700000000e-03	2.678503532e-01	-6.011231935e-04	7.944699457e-12
-7.800000000e-03	2.678503586e-01	-5.984099127e-04	9.245937811e-11
-7.900000000e-03	2.678503640e-01	-5.956966317e-04	9.640211766e-12
-8.000000000e-03	2.678503693e-01	-5.929833506e-04	1.321225876e-11
-8.100000000e-03	2.678503745e-01	-5.902700693e-04	8.185110799e-12
-8.200000000e-03	2.678503796e-01	-5.875567879e-04	1.123334210e-11
-8.300000000e-03	2.678503846e-01	-5.848435063e-04	1.172582421e-11
-8.400000000e-03	2.678503896e-01	-5.821302246e-04	9.065425162e-12
-8.500000000e-03	2.678503944e-01	-5.794169427e-04	1.103087696e-11
-8.600000000e-03	2.678503992e-01	-5.767036607e-04	1.883193384e-11
-8.700000000e-03	2.678504039e-01	-5.739903785e-04	1.026736111e-11
-8.800000000e-03	2.678504086e-01	-5.712770962e-04	1.167489685e-11
-8.900000000e-03	2.678504131e-01	-5.685638138e-04	1.824233966e-11
-9.000000000e-03	2.678504176e-01	-5.658505312e-04	5.841386784e-12
-9.100000000e-03	2.678504219e-01	-5.631372485e-04	8.581949523e-12
-9.200000000e-03	2.678504262e-01	-5.604239657e-04	9.151145438e-12
-9.300000000e-03	2.678504304e-01	-5.577106828e-04	1.567524919e-11
-9.400000000e-03	2.678504346e-01	-5.549973998e-04	2.022987646e-11
-9.500000000e-03	2.678504386e-01	-5.522841167e-04	4.915660947e-12
-9.600000000e-03	2.678504426e-01	-5.495708334e-04	1.194073223e-11
-9.700000000e-03	2.678504465e-01	-5.468575501e-04	1.149636309e-11
-9.800000000e-03	2.678504503e-01	-5.441442667e-04	2.097025589e-11
-9.900000000e-03	2.678504540e-01	-5.414309832e-04	1.183760220e-11
-1.000000000e-02	2.678504576e-01	-5.387176996e-04	1.334511236e-11
-1.010000000e-02	2.678504612e-01	-5.360044160e-04	1.724755727e-11
-1.020000000e-02	2.678504646e-01	-5.332911322e-04	1.869887211e-12
-1.030000000e-02	2.678504680e-01	-5.305778484e-04	1.578456349e-10
-1.040000000e-02	2.678504713e-01	-5.278645645e-04	6.021509176e-12
-1.050000000e-02	2.678504746e-01	-5.251512806e-04	9.946203208e-12
-1.060000000e-02	2.678504777e-01	-5.224379966e-04	2.511432360e-11
-1.070000000e-02	2.678504808e-01	-5.197247125e-04	2.203620856e-11
-1.080000000e-02	2.678504837e-01	-5.170114284e-04	2.068611803e-11
-1.090000000e-02	2.678504866e-01	-5.142981443e-04	1.709084306e-11
-1.100000000e-02	2.678504894e-01	-5.115848601e-04	1.705050883e-11
-1.110000000e-02	2.678504922e-01	-5.088715758e-04	3.277660110e-11
-1.120000000e-02	2.678504948e-01	-5.061582916e-04	1.261649643e-11
-1.130000000e-02	2.678504974e-01	-5.034450073e-04	8.211339319e-12
-1.140000000e-02	2.678504999e-01	-5.007317229e-04	1.642452352e-11
-1.150000000e-02	2.678505023e-01	-4.980184386e-04	2.482537992e-11
-1.160000000e-02	2.678505046e-01	-4.953051542e-04	1.743410996e-11
-1.170000000e-02	2.678505068e-01	-4.925918699e-04	7.516685586e-12
-1.180000000e-02	2.678505090e-01	-4.898785855e-04	2.128523488e-11
-1.190000000e-02	2.678505110e-01	-4.871653011e-04	5.702729839e-12
-1.200000000e-02	2.678505130e-01	-4.844520167e-04	1.604746501e-11
-1.210000000e-02	2.678505149e-01	-4.817387323e-04	7.847124552e-12
-1.220000000e-02	2.678505167e-01	-4.790254479e-04	1.195654409e-11
-1.230000000e-02	2.678505185e-01	-4.763121636e-04	2.174571951e-11
-1.240000000e-02	2.678505201e-01	-4.735988792e-04	1.324236956e-11
-1.250000000e-02	2.678505217e-01	-4.708855949e-04	7.918903545e-12
-1.260000000e-02	2.678505232e-01	-4.681723106e-04	2.280753493e-11
-1.270000000e-02	2.678505246e-01	-4.654590263e-04	6.322631852e-12
-1.280000000e-02	2.678505259e-01	-4.627457421e-04	2.413440925e-11
-1.290000000e-02	2.678505272e-01	-4.600324579e-04	8.058896708e-12
-1.300000000e-02	2.678505284e-01	-4.573191737e-04	1.215253215e-11
-1.310000000e-02	2.678505294e-01	-4.546058896e-04	1.460900943e-11
-1.320000000e-02	2.678505304e-01	-4.518926055e-04	1.663685962e-11
-1.330000000e-02	2.678505313e-01	-4.491793215e-04	1.060744188e-11
-1.340000000e-02	2.678505322e-01	-4.464660375e-04	5.138386552e-11
-1.350000000e-02	2.678505329e-01	-4.437527536e-04	1.667140784e-11
-1.360000000e-02	2.678505336e-01	-4.410394698e-04	1.293805310e-11
-1.370000000e-02	2.678505342e-01	-4.383261860e-04	1.308003340e-11
-1.380000000e-02	2.678505347e-01	-4.356129024e-04	1.115164338e-11
-1.390000000e-02	2.678505351e-01	-4.328996187e-04	2.712196592e-11
-1.400000000e-02	2.678505354e-01	-4.301863352e-04	2.295477218e-11
-1.410000000e-02	2.678505357e-01	-4.274730518e-04	3.299182295e-11
-1.420000000e-02	2.678505359e-01	-4.247597684e-04	1.717654741e-11
-1.430000000e-02	2.678505360e-01	-4.220464852e-04	1.764161576e-11
-1.440000000e-02	2.678505360e-01	-4.193332020e-04	3.789581969e-12
-1.450000000e-02	2.678505359e-01	-4.166199190e-04	1.456521651e-11
-1.460000000e-02	2.678505357e-01	-4.139066361e-04	6.412657052e-12
-1.470000000e-02	2.678505355e-01	-4.111933532e-04	2.433276922e-11
-1.480000000e-02	2.678505352e-01	-4.084800705e-04	1.240501828e-11
-1.490000000e-02	2.678505348e-01	-4.057667879e-04	7.884267787e-12
-1.500000000e-02	2.678505343e-01	-4.030535055e-04	1.171340613e-11
-1.510000000e-02	2.678505337e-01	-4.003402231e-04	1.611111872e-11
-1.520000000e-02	2.678505331e-01	-3.976269409e-04	1.593140747e-11
-1.530000000e-02	2.678505323e-01	-3.949136589e-04	1.203343880e-11
-1.540000000e-02	2.678505315e-01	-3.922003769e-04	3.041523952e-11
-1.550000000e-02	2.678505306e-01	-3.894870952e-04	1.099202338e-11
-1.560000000e-02	2.678505296e-01	-3.867738135e-04	4.726917114e-11
-1.570000000e-02	2.678505286e-01	-3.840605320e-04	1.395877735e-10
-1.580000000e-02	2.678505274e-01	-3.813472507e-04	8.353004177e-12
-1.590000000e-02	2.678505262e-01	-3.786339696e-04	1.224445497e-11
-1.600000000e-02	2.678505249e-01	-3.759206886e-04	3.299967682e-11
-1.610000000e-02	2.678505235e-01	-3.732074078e-04	1.018125830e-11
-1.620000000e-02	2.678505220e-01	-3.704941271e-04	1.087725167e-11
-1.630000000e-02	2.678505205e-01	-3.677808467e-04	1.572032032e-11
-1.640000000e-02	2.678505188e-01	-3.650675664e-04	5.810951271e-12
-1.650000000e-02	2.678505171e-01	-3.623542863e-04	1.093167538e-11
-1.660000000e-02	2.678505153e-01	-3.596410064e-04	2.986741855e-11
-1.670000000e-02	2.678505134e-01	-3.569277267e-04	1.262833634e-11
-1.680000000e-02	2.678505115e-01	-3.542144472e-04	1.057437761e-11
-1.690000000e-02	2.678505094e-01	-3.515011678e-04	2.758578279e-11
-1.700000000e-02	2.678505073e-01	-3.487878888e-04	1.416781414e-11
-1.710000000e-02	2.678505050e-01	-3.460746099e-04	1.144197810e-11
-1.720000000e-02	2.678505027e-01	-3.433613312e-04	6.556802539e-12
-1.730000000e-02	2.678505004e-01	-3.406480527e-04	1.151891432e-11
-1.740000000e-02	2.678504979e-01	-3.379347745e-04	7.730340463e-12
-1.750000000e-02	2.678504954e-01	-3.352214965e-04	6.281380507e-12
-1.760000000e-02	2.678504927e-01	-3.325082188e-04	2.303807393e-11
-1.770000000e-02	2.678504900e-01	-3.297949412e-04	2.947237624e-11
-1.780000000e-02	2.678504872e-01	-3.270816640e-04	6.535917606e-12
-1.790000000e-02	2.678504843e-01	-3.243683869e-04	2.113177173e-11
-1.800000000e-02	2.678504814e-01	-3.216551101e-04	2.163083102e-11
-1.810000000e-02	2.678504783e-01	-3.189418336e-04	8.703527735e-12
-1.820000000e-02	2.678504752e-01	-3.162285573e-04	1.499325126e-11
-1.830000000e-02	2.678504720e-01	-3.135152813e-04	1.506393851e-11
-1.840000000e-02	2.678504687e-01	-3.108020056e-04	1.261671707e-11
-1.850000000e-02	2.678504654e-01	-3.080887301e-04	4.856256052e-11
-1.860000000e-02	2.678504619e-01	-3.053754549e-04	2.699764167e-11
-1.870000000e-02	2.678504584e-01	-3.026621800e-04	1.319871735e-11
-1.880000000e-02	2.678504548e-01	-2.999489053e-04	2.673892147e-11
-1.890000000e-02	2.678504511e-01	-2.972356310e-04	1.845427088e-11
-1.900000000e-02	2.678504473e-01	-2.945223569e-04	3.268780219e-11
-1.910000000e-02	2.678504434e-01	-2.918090832e-04	6.084141170e-12
-1.920000000e-02	2.678504395e-01	-2.890958097e-04	3.907145724e-11
-1.930000000e-02	2.678504354e-01	-2.863825365e-04	6.608739370e-12
-1.940000000e-02	2.678504313e-01	-2.836692637e-04	8.857141560e-12
-1.950000000e-02	2.678504271e-01	-2.809559911e-04	1.590321618e-11
-1.960000000e-02	2.678504228e-01	-2.782427189e-04	1.244122127e-11
-1.970000000e-02	2.678504185e-01	-2.755294470e-04	7.634800841e-12
-1.980000000e-02	2.678504140e-01	-2.728161754e-04	1.511293872e-11
-1.990000000e-02	2.678504095e-01	-2.701029042e-04	1.814744985e-10
-2.000000000e-02	2.678504049e-01	-2.673896333e-04	1.008176733e-11
-2.010000000e-02	2.678504002e-01	-2.646763627e-04	1.483951165e-11
-2.020000000e-02	2.678503954e-01	-2.619630924e-04	1.447323817e-11
-2.030000000e-02	2.678503906e-01	-2.592498226e-04	9.516120789e-12
-2.040000000e-02	2.678503857e-01	-2.565365530e-04	6.067447357e-12
-2.050000000e-02	2.678503806e-01	-2.538232838e-04	7.520214122e-11
-2.060000000e-02	2.678503755e-01	-2.511100150e-04	1.020923109e-11
-2.070000000e-02	2.678503703e-01	-2.483967465e-04	2.100078127e-11
-2.080000000e-02	2.678503651e-01	-2.456834784e-04	2.480731788e-11
-2.090000000e-02	2.678503597e-01	-2.429702107e-04	1.105624475e-11
-2.100000000e-02	2.678503543e-01	-2.402569433e-04	1.377158222e-11
-2.110000000e-02	2.678503488e-01	-2.375436764e-04	1.305986916e-11
-2.120000000e-02	2.678503432e-01	-2.348304098e-04	9.094278617e-12
-2.130000000e-02	2.678503375e-01	-2.321171436e-04	1.793593981e-11
-2.140000000e-02	2.678503318e-01	-2.294038778e-04	9.513059543e-12
-2.150000000e-02	2.678503259e-01	-2.266906123e-04	1.600406320e-11
-2.160000000e-02	2.678503200e-01	-2.239773473e-04	2.233712447e-11
-2.170000000e-02	2.678503140e-01	-2.212640827e-04	3.818293746e-11
-2.180000000e-02	2.678503079e-01	-2.185508185e-04	3.643803014e-11
-2.190000000e-02	2.678503017e-01	-2.158375547e-04	7.573322497e-12
-2.200000000e-02	2.678502955e-01	-2.131242913e-04	8.174881356e-12
-2.210000000e-02	2.678502891e-01	-2.104110284e-04	7.235030621e-12
-2.220000000e-02	2.678502827e-01	-2.076977658e-04	1.569607387e-11
-2.230000000e-02	2.678502762e-01	-2.049845037e-04	5.092232935e-12
-2.240000000e-02	2.678502696e-01	-2.022712421e-04	1.063121738e-11
-2.250000000e-02	2.678502629e-01	-1.995579808e-04	5.798655982e-12
-2.260000000e-02	2.678502562e-01	-1.968447201e-04	6.502076184e-12
-2.270000000e-02	2.678502494e-01	-1.941314597e-04	1.009466426e-11
-2.280000000e-02	2.678502424e-01	-1.914181998e-04	1.359504228e-11
-2.290000000e-02	2.678502354e-01	-1.887049404e-04	1.005528306e-11
-2.300000000e-02	2.678502284e-01	-1.859916814e-04	1.282238087e-11
-2.310000000e-02	2.678502212e-01	-1.832784229e-04	6.374970855e-12
-2.320000000e-02	2.678502140e-01	-1.805651648e-04	1.690465193e-11
-2.330000000e-02	2.678502066e-01	-1.778519072e-04	7.890706093e-12
-2.340000000e-02	2.678501992e-01	-1.751386501e-04	6.927344725e-12
-2.350000000e-02	2.678501917e-01	-1.724253935e-04	1.991448998e-11
-2.360000000e-02	2.678501842e-01	-1.697121374e-04	9.921735991e-11
-2.370000000e-02	2.678501765e-01	-1.669988817e-04	5.329990544e-11
-2.380000000e-02	2.678501688e-01	-1.642856266e-04	1.788977263e-11
-2.390000000e-02	2.678501609e-01	-1.615723719e-04	2.623020961e-11
-2.400000000e-02	2.678501530e-01	-1.588591177e-04	2.867020206e-11
-2.410000000e-02	2.678501450e-01	-1.561458640e-04	1.366974346e-11
-2.420000000e-02	2.678501370e-01	-1.534326109e-04	4.361610689e-11
-2.430000000e-02	2.678501288e-01	-1.507193582e-04	1.395527591e-11
-2.440000000e-02	2.678501206e-01	-1.480061061e-04	5.590965318e-12
-2.450000000e-02	2.678501123e-01	-1.452928545e-04	1.338715068e-11
-2.460000000e-02	2.678501039e-01	-1.425796034e-04	1.362408609e-11
-2.470000000e-02	2.678500954e-01	-1.398663529e-04	2.008547147e-11
-2.480000000e-02	2.678500868e-01	-1.371531029e-04	4.330595772e-11
-2.490000000e-02	2.678500782e-01	-1.344398534e-04	8.522710063e-12
-2.500000000e-02	2.678500695e-01	-1.317266044e-04	1.110044784e-11
-2.510000000e-02	2.678500607e-01	-1.290133561e-04	1.857100456e-11
-2.520000000e-02	2.678500518e-01	-1.263001082e-04	1.071600762e-11
-2.530000000e-02	2.678500428e-01	-1.235868609e-04	1.088415933e-11
-2.540000000e-02	2.678500337e-01	-1.208736142e-04	1.070237814e-11
-2.550000000e-02	2.678500246e-01	-1.181603680e-04	1.694725596e-11
-2.560000000e-02	2.678500154e-01	-1.154471224e-04	2.605302961e-11
-2.570000000e-02	2.678500061e-01	-1.127338774e-04	1.516067769e-11
-2.580000000e-02	2.678499967e-01	-1.100206329e-04	1.138086461e-11
-2.590000000e-02	2.678499872e-01	-1.073073891e-04	2.293333142e-11
-2.600000000e-02	2.678499776e-01	-1.045941458e-04	1.288123450e-11
-2.610000000e-02	2.678499680e-01	-1.018809031e-04	7.372838639e-12
-2.620000000e-02	2.678499583e-01	-9.916766096e-05	5.604849792e-12
-2.630000000e-02	2.678499485e-01	-9.645441944e-05	2.760512697e-11
-2.640000000e-02	2.678499386e-01	-9.374117853e-05	1.484320939e-11
-2.650000000e-02	2.678499286e-01	-9.102793821e-05	4.821496008e-11
-2.660000000e-02	2.678499186e-01	-8.831469851e-05	1.298071196e-11
-2.670000000e-02	2.678499085e-01	-8.560145942e-05	1.148912290e-11
-2.680000000e-02	2.678498983e-01	-8.288822095e-05	3.196126926e-11
-2.690000000e-02	2.678498880e-01	-8.017498309e-05	1.235222697e-11
-2.700000000e-02	2.678498776e-01	-7.746174587e-05	1.676848698e-11
-2.710000000e-02	2.678498671e-01	-7.474850927e-05	1.353511078e-11
-2.720000000e-02	2.678498566e-01	-7.203527330e-05	1.649390891e-11
-2.730000000e-02	2.678498460e-01	-6.932203798e-05	3.257556788e-11
-2.740000000e-02	2.678498353e-01	-6.660880329e-05	2.646606039e-11
-2.750000000e-02	2.678498245e-01	-6.389556925e-05	2.307483537e-11
-2.760000000e-02	2.678498136e-01	-6.118233586e-05	8.208062119e-12
-2.770000000e-02	2.678498026e-01	-5.846910313e-05	7.691089754e-12
-2.780000000e-02	2.678497916e-01	-5.575587105e-05	7.883681857e-11
-2.790000000e-02	2.678497805e-01	-5.304263964e-05	3.927774853e-12
-2.800000000e-02	2.678497693e-01	-5.032940889e-05	9.868289175e-12
-2.810000000e-02	2.678497580e-01	-4.761617882e-05	5.084427956e-11
-2.820000000e-02	2.678497466e-01	-4.490294942e-05	1.397880866e-11
-2.830000000e-02	2.678497352e-01	-4.218972070e-05	4.451287776e-12
-2.840000000e-02	2.678497237e-01	-3.947649266e-05	2.838400324e-11
-2.850000000e-02	2.678497121e-01	-3.676326530e-05	3.784497237e-10
-2.860000000e-02	2.678497004e-01	-3.405003865e-05	2.011647516e-11
-2.870000000e-02	2.678496886e-01	-3.133681269e-05	5.271943791e-12
-2.880000000e-02	2.678496767e-01	-2.862358743e-05	2.457843935e-11
-2.890000000e-02	2.678496648e-01	-2.591036287e-05	1.511693444e-11
-2.900000000e-02	2.678496527e-01	-2.319713902e-05	9.608572722e-12
-2.910000000e-02	2.678496406e-01	-2.048391589e-05	8.420809130e-12
-2.920000000e-02	2.678496285e-01	-1.777069347e-05	2.352983305e-11
-2.930000000e-02	2.678496162e-01	-1.505747177e-05	9.379895712e-12
-2.940000000e-02	2.678496038e-01	-1.234425080e-05	1.522161073e-10
-2.950000000e-02	2.678495914e-01	-9.631030555e-06	7.933876802e-12
-2.960000000e-02	2.678495789e-01	-6.917811046e-06	1.246182620e-11
-2.970000000e-02	2.678495663e-01	-4.204592274e-06	2.560797722e-11
-2.980000000e-02	2.678495536e-01	-1.491374245e-06	1.306674197e-11
-2.990000000e-02	2.678495408e-01	1.221843038e-06	3.613675553e-11
-3.000000000e-02	2.678495280e-01	3.935059571e-06	1.756736369e-11
