# Im(epsi1)     Re(omega/c)      Im(omega/c)      Eq(det).Opt det CON kz, R=0.5 \mum, mu_c=0.3, Re(epsi1)=3.90solve_det_conkz_vs_kz.py
0.000000000e+00	2.678465112e-01	-8.100311085e-04	7.106352900e-12
-1.000000000e-04	2.678465230e-01	-8.073178787e-04	1.191078783e-11
-2.000000000e-04	2.678465347e-01	-8.046046484e-04	9.809383749e-12
-3.000000000e-04	2.678465464e-01	-8.018914176e-04	5.520326683e-12
-4.000000000e-04	2.678465579e-01	-7.991781863e-04	4.093703406e-11
-5.000000000e-04	2.678465694e-01	-7.964649546e-04	4.538978071e-12
-6.000000000e-04	2.678465808e-01	-7.937517223e-04	1.519674901e-11
-7.000000000e-04	2.678465921e-01	-7.910384896e-04	1.239336901e-11
-8.000000000e-04	2.678466033e-01	-7.883252564e-04	1.420562146e-11
-9.000000000e-04	2.678466144e-01	-7.856120228e-04	1.609995760e-11
-1.000000000e-03	2.678466255e-01	-7.828987887e-04	7.592403166e-12
-1.100000000e-03	2.678466364e-01	-7.801855541e-04	1.465589701e-11
-1.200000000e-03	2.678466473e-01	-7.774723191e-04	1.421809448e-11
-1.300000000e-03	2.678466581e-01	-7.747590837e-04	7.605026733e-12
-1.400000000e-03	2.678466689e-01	-7.720458478e-04	1.134655540e-11
-1.500000000e-03	2.678466795e-01	-7.693326114e-04	3.829935764e-11
-1.600000000e-03	2.678466901e-01	-7.666193747e-04	1.208385997e-11
-1.700000000e-03	2.678467005e-01	-7.639061375e-04	2.472420694e-11
-1.800000000e-03	2.678467109e-01	-7.611928999e-04	1.671684514e-11
-1.900000000e-03	2.678467212e-01	-7.584796618e-04	7.244233767e-12
-2.000000000e-03	2.678467315e-01	-7.557664233e-04	3.847909069e-11
-2.100000000e-03	2.678467416e-01	-7.530531845e-04	9.577728676e-12
-2.200000000e-03	2.678467517e-01	-7.503399452e-04	1.015999352e-11
-2.300000000e-03	2.678467617e-01	-7.476267055e-04	1.439588862e-12
-2.400000000e-03	2.678467716e-01	-7.449134654e-04	8.548207058e-12
-2.500000000e-03	2.678467814e-01	-7.422002249e-04	2.110956775e-11
-2.600000000e-03	2.678467911e-01	-7.394869840e-04	9.934105694e-12
-2.700000000e-03	2.678468008e-01	-7.367737427e-04	2.534841188e-11
-2.800000000e-03	2.678468103e-01	-7.340605011e-04	1.729285768e-11
-2.900000000e-03	2.678468198e-01	-7.313472590e-04	2.587536678e-11
-3.000000000e-03	2.678468292e-01	-7.286340166e-04	9.763510886e-12
-3.100000000e-03	2.678468386e-01	-7.259207739e-04	1.295167530e-11
-3.200000000e-03	2.678468478e-01	-7.232075307e-04	8.601200561e-12
-3.300000000e-03	2.678468569e-01	-7.204942872e-04	9.696839232e-12
-3.400000000e-03	2.678468660e-01	-7.177810433e-04	2.097843312e-11
-3.500000000e-03	2.678468750e-01	-7.150677991e-04	2.152131965e-11
-3.600000000e-03	2.678468839e-01	-7.123545545e-04	8.455487198e-12
-3.700000000e-03	2.678468928e-01	-7.096413096e-04	1.295231909e-11
-3.800000000e-03	2.678469015e-01	-7.069280643e-04	1.054063298e-11
-3.900000000e-03	2.678469102e-01	-7.042148187e-04	2.626307603e-11
-4.000000000e-03	2.678469187e-01	-7.015015728e-04	1.097671210e-11
-4.100000000e-03	2.678469272e-01	-6.987883265e-04	1.025198311e-11
-4.200000000e-03	2.678469357e-01	-6.960750799e-04	1.308700911e-11
-4.300000000e-03	2.678469440e-01	-6.933618330e-04	1.470000047e-11
-4.400000000e-03	2.678469522e-01	-6.906485857e-04	5.329385126e-11
-4.500000000e-03	2.678469604e-01	-6.879353382e-04	1.268294541e-11
-4.600000000e-03	2.678469685e-01	-6.852220903e-04	1.903408702e-11
-4.700000000e-03	2.678469765e-01	-6.825088421e-04	1.150915570e-11
-4.800000000e-03	2.678469844e-01	-6.797955937e-04	2.426607382e-11
-4.900000000e-03	2.678469923e-01	-6.770823449e-04	3.877388038e-11
-5.000000000e-03	2.678470000e-01	-6.743690959e-04	5.288991673e-11
-5.100000000e-03	2.678470077e-01	-6.716558465e-04	1.366406490e-11
-5.200000000e-03	2.678470153e-01	-6.689425969e-04	1.645743577e-11
-5.300000000e-03	2.678470228e-01	-6.662293470e-04	7.843972478e-12
-5.400000000e-03	2.678470302e-01	-6.635160968e-04	8.434746359e-12
-5.500000000e-03	2.678470376e-01	-6.608028463e-04	8.164824067e-12
-5.600000000e-03	2.678470448e-01	-6.580895956e-04	1.372347040e-11
-5.700000000e-03	2.678470520e-01	-6.553763446e-04	1.928804773e-11
-5.800000000e-03	2.678470591e-01	-6.526630934e-04	2.531310388e-11
-5.900000000e-03	2.678470661e-01	-6.499498419e-04	1.914318788e-11
-6.000000000e-03	2.678470730e-01	-6.472365901e-04	3.614003767e-11
-6.100000000e-03	2.678470799e-01	-6.445233381e-04	1.310870206e-11
-6.200000000e-03	2.678470867e-01	-6.418100859e-04	1.332876681e-11
-6.300000000e-03	2.678470933e-01	-6.390968334e-04	1.532728065e-11
-6.400000000e-03	2.678470999e-01	-6.363835807e-04	1.001794759e-11
-6.500000000e-03	2.678471065e-01	-6.336703278e-04	1.463774326e-11
-6.600000000e-03	2.678471129e-01	-6.309570746e-04	1.794467951e-11
-6.700000000e-03	2.678471193e-01	-6.282438212e-04	9.007584393e-12
-6.800000000e-03	2.678471255e-01	-6.255305676e-04	7.067001206e-12
-6.900000000e-03	2.678471317e-01	-6.228173138e-04	7.953303229e-12
-7.000000000e-03	2.678471378e-01	-6.201040597e-04	1.501102717e-11
-7.100000000e-03	2.678471439e-01	-6.173908055e-04	2.087525864e-11
-7.200000000e-03	2.678471498e-01	-6.146775511e-04	3.620719099e-11
-7.300000000e-03	2.678471557e-01	-6.119642964e-04	3.571792024e-11
-7.400000000e-03	2.678471614e-01	-6.092510416e-04	1.812216219e-11
-7.500000000e-03	2.678471671e-01	-6.065377866e-04	1.038249205e-11
-7.600000000e-03	2.678471727e-01	-6.038245314e-04	5.993465906e-12
-7.700000000e-03	2.678471783e-01	-6.011112760e-04	7.689458062e-11
-7.800000000e-03	2.678471837e-01	-5.983980205e-04	1.009958219e-11
-7.900000000e-03	2.678471891e-01	-5.956847647e-04	1.716487136e-11
-8.000000000e-03	2.678471944e-01	-5.929715089e-04	3.503898003e-11
-8.100000000e-03	2.678471996e-01	-5.902582528e-04	7.318280662e-12
-8.200000000e-03	2.678472047e-01	-5.875449966e-04	1.544788787e-11
-8.300000000e-03	2.678472097e-01	-5.848317402e-04	1.623625671e-11
-8.400000000e-03	2.678472147e-01	-5.821184837e-04	1.746593140e-11
-8.500000000e-03	2.678472196e-01	-5.794052270e-04	1.018751876e-11
-8.600000000e-03	2.678472243e-01	-5.766919702e-04	1.823623942e-11
-8.700000000e-03	2.678472290e-01	-5.739787133e-04	1.498525538e-11
-8.800000000e-03	2.678472337e-01	-5.712654562e-04	4.126397413e-12
-8.900000000e-03	2.678472382e-01	-5.685521990e-04	2.157480201e-11
-9.000000000e-03	2.678472427e-01	-5.658389417e-04	8.226652322e-12
-9.100000000e-03	2.678472470e-01	-5.631256842e-04	2.062442214e-11
-9.200000000e-03	2.678472513e-01	-5.604124266e-04	1.039086661e-11
-9.300000000e-03	2.678472556e-01	-5.576991689e-04	2.774285436e-11
-9.400000000e-03	2.678472597e-01	-5.549859111e-04	1.217144032e-11
-9.500000000e-03	2.678472637e-01	-5.522726532e-04	9.540671446e-12
-9.600000000e-03	2.678472677e-01	-5.495593952e-04	1.546747208e-11
-9.700000000e-03	2.678472716e-01	-5.468461371e-04	1.207842739e-11
-9.800000000e-03	2.678472754e-01	-5.441328789e-04	2.514120497e-12
-9.900000000e-03	2.678472791e-01	-5.414196207e-04	1.388551099e-11
-1.000000000e-02	2.678472827e-01	-5.387063623e-04	1.275105189e-11
-1.010000000e-02	2.678472863e-01	-5.359931038e-04	7.304635634e-12
-1.020000000e-02	2.678472898e-01	-5.332798453e-04	1.957499329e-11
-1.030000000e-02	2.678472931e-01	-5.305665867e-04	8.293817228e-12
-1.040000000e-02	2.678472964e-01	-5.278533281e-04	9.331328184e-12
-1.050000000e-02	2.678472997e-01	-5.251400694e-04	4.721693154e-12
-1.060000000e-02	2.678473028e-01	-5.224268106e-04	1.367795703e-11
-1.070000000e-02	2.678473059e-01	-5.197135517e-04	1.741479945e-11
-1.080000000e-02	2.678473088e-01	-5.170002929e-04	2.089921307e-11
-1.090000000e-02	2.678473117e-01	-5.142870339e-04	6.572344472e-12
-1.100000000e-02	2.678473145e-01	-5.115737750e-04	5.942942468e-12
-1.110000000e-02	2.678473173e-01	-5.088605159e-04	1.321194971e-11
-1.120000000e-02	2.678473199e-01	-5.061472569e-04	1.536299786e-11
-1.130000000e-02	2.678473225e-01	-5.034339978e-04	1.693225429e-11
-1.140000000e-02	2.678473250e-01	-5.007207387e-04	5.949444063e-12
-1.150000000e-02	2.678473274e-01	-4.980074796e-04	1.204924795e-11
-1.160000000e-02	2.678473297e-01	-4.952942205e-04	1.133990863e-11
-1.170000000e-02	2.678473319e-01	-4.925809613e-04	1.130807859e-11
-1.180000000e-02	2.678473341e-01	-4.898677021e-04	9.015348149e-12
-1.190000000e-02	2.678473361e-01	-4.871544430e-04	1.372758347e-11
-1.200000000e-02	2.678473381e-01	-4.844411838e-04	1.151074255e-11
-1.210000000e-02	2.678473400e-01	-4.817279246e-04	1.455088198e-11
-1.220000000e-02	2.678473418e-01	-4.790146655e-04	8.132328814e-12
-1.230000000e-02	2.678473436e-01	-4.763014064e-04	1.730854402e-11
-1.240000000e-02	2.678473452e-01	-4.735881472e-04	1.908725224e-11
-1.250000000e-02	2.678473468e-01	-4.708748881e-04	9.166316323e-12
-1.260000000e-02	2.678473483e-01	-4.681616290e-04	1.289915043e-11
-1.270000000e-02	2.678473497e-01	-4.654483700e-04	1.382748428e-11
-1.280000000e-02	2.678473510e-01	-4.627351110e-04	1.112299947e-11
-1.290000000e-02	2.678473523e-01	-4.600218520e-04	1.586368918e-11
-1.300000000e-02	2.678473535e-01	-4.573085930e-04	3.061851956e-11
-1.310000000e-02	2.678473545e-01	-4.545953341e-04	1.040549084e-11
-1.320000000e-02	2.678473555e-01	-4.518820753e-04	1.112618883e-11
-1.330000000e-02	2.678473564e-01	-4.491688165e-04	1.648808590e-11
-1.340000000e-02	2.678473573e-01	-4.464555578e-04	1.090432830e-11
-1.350000000e-02	2.678473580e-01	-4.437422991e-04	1.025494142e-11
-1.360000000e-02	2.678473587e-01	-4.410290405e-04	2.346664558e-11
-1.370000000e-02	2.678473593e-01	-4.383157819e-04	2.164248155e-11
-1.380000000e-02	2.678473598e-01	-4.356025235e-04	3.415729981e-11
-1.390000000e-02	2.678473602e-01	-4.328892651e-04	1.191604647e-11
-1.400000000e-02	2.678473605e-01	-4.301760068e-04	5.212619628e-12
-1.410000000e-02	2.678473608e-01	-4.274627486e-04	6.285894620e-12
-1.420000000e-02	2.678473610e-01	-4.247494905e-04	1.800926634e-11
-1.430000000e-02	2.678473611e-01	-4.220362324e-04	1.386311135e-11
-1.440000000e-02	2.678473611e-01	-4.193229745e-04	1.058515277e-11
-1.450000000e-02	2.678473610e-01	-4.166097167e-04	2.002166473e-11
-1.460000000e-02	2.678473608e-01	-4.138964590e-04	1.329879537e-11
-1.470000000e-02	2.678473606e-01	-4.111832014e-04	1.646953595e-11
-1.480000000e-02	2.678473603e-01	-4.084699439e-04	1.593535981e-11
-1.490000000e-02	2.678473599e-01	-4.057566865e-04	1.474345878e-11
-1.500000000e-02	2.678473594e-01	-4.030434293e-04	2.749935047e-11
-1.510000000e-02	2.678473588e-01	-4.003301721e-04	1.206260485e-11
-1.520000000e-02	2.678473582e-01	-3.976169152e-04	4.051014796e-12
-1.530000000e-02	2.678473574e-01	-3.949036583e-04	1.027135000e-11
-1.540000000e-02	2.678473566e-01	-3.921904016e-04	1.302045004e-11
-1.550000000e-02	2.678473557e-01	-3.894771451e-04	1.001399287e-11
-1.560000000e-02	2.678473547e-01	-3.867638886e-04	1.510222792e-11
-1.570000000e-02	2.678473537e-01	-3.840506324e-04	4.304816358e-11
-1.580000000e-02	2.678473525e-01	-3.813373763e-04	1.839268036e-11
-1.590000000e-02	2.678473513e-01	-3.786241204e-04	1.913327282e-11
-1.600000000e-02	2.678473500e-01	-3.759108646e-04	1.166323998e-11
-1.610000000e-02	2.678473486e-01	-3.731976090e-04	5.956406766e-12
-1.620000000e-02	2.678473471e-01	-3.704843536e-04	6.691180271e-12
-1.630000000e-02	2.678473456e-01	-3.677710983e-04	1.476383629e-11
-1.640000000e-02	2.678473439e-01	-3.650578433e-04	1.701316336e-11
-1.650000000e-02	2.678473422e-01	-3.623445884e-04	1.744473562e-11
-1.660000000e-02	2.678473404e-01	-3.596313337e-04	1.160937219e-11
-1.670000000e-02	2.678473385e-01	-3.569180792e-04	1.164761466e-11
-1.680000000e-02	2.678473365e-01	-3.542048249e-04	1.974507328e-11
-1.690000000e-02	2.678473345e-01	-3.514915709e-04	8.612418936e-12
-1.700000000e-02	2.678473324e-01	-3.487783170e-04	1.246697325e-11
-1.710000000e-02	2.678473301e-01	-3.460650633e-04	7.366497634e-12
-1.720000000e-02	2.678473278e-01	-3.433518099e-04	1.362026408e-11
-1.730000000e-02	2.678473255e-01	-3.406385567e-04	1.408829700e-11
-1.740000000e-02	2.678473230e-01	-3.379253037e-04	2.536717281e-11
-1.750000000e-02	2.678473204e-01	-3.352120509e-04	1.634499747e-11
-1.760000000e-02	2.678473178e-01	-3.324987983e-04	4.876270064e-12
-1.770000000e-02	2.678473151e-01	-3.297855460e-04	2.190289766e-11
-1.780000000e-02	2.678473123e-01	-3.270722940e-04	9.631835998e-12
-1.790000000e-02	2.678473094e-01	-3.243590422e-04	8.879780875e-12
-1.800000000e-02	2.678473065e-01	-3.216457906e-04	3.460371196e-11
-1.810000000e-02	2.678473034e-01	-3.189325393e-04	9.387763735e-12
-1.820000000e-02	2.678473003e-01	-3.162192882e-04	1.942174640e-11
-1.830000000e-02	2.678472971e-01	-3.135060374e-04	1.504441741e-10
-1.840000000e-02	2.678472938e-01	-3.107927869e-04	3.718655245e-11
-1.850000000e-02	2.678472904e-01	-3.080795367e-04	9.850915335e-12
-1.860000000e-02	2.678472870e-01	-3.053662867e-04	1.005026687e-11
-1.870000000e-02	2.678472835e-01	-3.026530370e-04	5.891021847e-12
-1.880000000e-02	2.678472798e-01	-2.999397876e-04	1.009901790e-11
-1.890000000e-02	2.678472761e-01	-2.972265385e-04	1.294032031e-11
-1.900000000e-02	2.678472724e-01	-2.945132896e-04	5.814320072e-11
-1.910000000e-02	2.678472685e-01	-2.918000411e-04	2.490067113e-11
-1.920000000e-02	2.678472645e-01	-2.890867928e-04	1.114161981e-11
-1.930000000e-02	2.678472605e-01	-2.863735449e-04	1.167479077e-11
-1.940000000e-02	2.678472564e-01	-2.836602973e-04	2.332198326e-11
-1.950000000e-02	2.678472522e-01	-2.809470499e-04	1.590306469e-11
-1.960000000e-02	2.678472479e-01	-2.782338029e-04	1.861475144e-11
-1.970000000e-02	2.678472436e-01	-2.755205563e-04	3.011560974e-11
-1.980000000e-02	2.678472391e-01	-2.728073099e-04	1.642163064e-11
-1.990000000e-02	2.678472346e-01	-2.700940639e-04	1.922967934e-11
-2.000000000e-02	2.678472300e-01	-2.673808182e-04	1.060646816e-11
-2.010000000e-02	2.678472253e-01	-2.646675728e-04	8.757266396e-12
-2.020000000e-02	2.678472205e-01	-2.619543278e-04	1.642284778e-11
-2.030000000e-02	2.678472157e-01	-2.592410831e-04	1.018627167e-11
-2.040000000e-02	2.678472107e-01	-2.565278388e-04	2.319021841e-11
-2.050000000e-02	2.678472057e-01	-2.538145949e-04	8.733946762e-12
-2.060000000e-02	2.678472006e-01	-2.511013513e-04	1.128823221e-11
-2.070000000e-02	2.678471954e-01	-2.483881080e-04	1.159843405e-11
-2.080000000e-02	2.678471902e-01	-2.456748651e-04	1.037818404e-11
-2.090000000e-02	2.678471848e-01	-2.429616226e-04	1.604552855e-11
-2.100000000e-02	2.678471794e-01	-2.402483805e-04	4.411279459e-11
-2.110000000e-02	2.678471739e-01	-2.375351387e-04	5.944131040e-12
-2.120000000e-02	2.678471683e-01	-2.348218974e-04	1.279385683e-11
-2.130000000e-02	2.678471626e-01	-2.321086564e-04	3.239773714e-11
-2.140000000e-02	2.678471568e-01	-2.293954158e-04	3.098118840e-12
-2.150000000e-02	2.678471510e-01	-2.266821756e-04	5.951913155e-11
-2.160000000e-02	2.678471451e-01	-2.239689358e-04	2.014426153e-11
-2.170000000e-02	2.678471391e-01	-2.212556964e-04	1.188885484e-11
-2.180000000e-02	2.678471330e-01	-2.185424574e-04	8.111642154e-12
-2.190000000e-02	2.678471268e-01	-2.158292189e-04	9.552950623e-12
-2.200000000e-02	2.678471205e-01	-2.131159807e-04	1.854412373e-11
-2.210000000e-02	2.678471142e-01	-2.104027430e-04	1.168909235e-11
-2.220000000e-02	2.678471078e-01	-2.076895057e-04	1.327475945e-11
-2.230000000e-02	2.678471013e-01	-2.049762688e-04	8.702475289e-12
-2.240000000e-02	2.678470947e-01	-2.022630323e-04	1.313354614e-11
-2.250000000e-02	2.678470880e-01	-1.995497963e-04	1.348636669e-11
-2.260000000e-02	2.678470813e-01	-1.968365608e-04	6.422990583e-12
-2.270000000e-02	2.678470744e-01	-1.941233256e-04	1.043330788e-11
-2.280000000e-02	2.678470675e-01	-1.914100910e-04	1.435419701e-11
-2.290000000e-02	2.678470605e-01	-1.886968568e-04	2.754164300e-11
-2.300000000e-02	2.678470534e-01	-1.859836230e-04	1.356685670e-11
-2.310000000e-02	2.678470463e-01	-1.832703897e-04	1.589111313e-11
-2.320000000e-02	2.678470390e-01	-1.805571569e-04	2.782450945e-11
-2.330000000e-02	2.678470317e-01	-1.778439245e-04	7.000929063e-12
-2.340000000e-02	2.678470243e-01	-1.751306926e-04	3.035638607e-11
-2.350000000e-02	2.678470168e-01	-1.724174612e-04	9.455556866e-12
-2.360000000e-02	2.678470092e-01	-1.697042303e-04	1.097302690e-11
-2.370000000e-02	2.678470016e-01	-1.669909999e-04	1.540276390e-11
-2.380000000e-02	2.678469938e-01	-1.642777699e-04	1.017490256e-11
-2.390000000e-02	2.678469860e-01	-1.615645405e-04	1.815840413e-11
-2.400000000e-02	2.678469781e-01	-1.588513116e-04	1.632850957e-11
-2.410000000e-02	2.678469701e-01	-1.561380831e-04	5.515759086e-12
-2.420000000e-02	2.678469621e-01	-1.534248552e-04	2.319348745e-11
-2.430000000e-02	2.678469539e-01	-1.507116278e-04	1.174086506e-11
-2.440000000e-02	2.678469457e-01	-1.479984009e-04	1.647329473e-11
-2.450000000e-02	2.678469374e-01	-1.452851745e-04	3.560916983e-11
-2.460000000e-02	2.678469290e-01	-1.425719486e-04	1.130398681e-10
-2.470000000e-02	2.678469205e-01	-1.398587233e-04	8.110436580e-12
-2.480000000e-02	2.678469119e-01	-1.371454985e-04	1.078146872e-11
-2.490000000e-02	2.678469033e-01	-1.344322742e-04	1.512221900e-11
-2.500000000e-02	2.678468945e-01	-1.317190505e-04	7.856790937e-12
-2.510000000e-02	2.678468857e-01	-1.290058273e-04	2.290529072e-11
-2.520000000e-02	2.678468768e-01	-1.262926047e-04	6.249370735e-12
-2.530000000e-02	2.678468679e-01	-1.235793827e-04	1.045289400e-11
-2.540000000e-02	2.678468588e-01	-1.208661612e-04	1.836672947e-11
-2.550000000e-02	2.678468497e-01	-1.181529402e-04	1.557216341e-11
-2.560000000e-02	2.678468404e-01	-1.154397198e-04	9.102605801e-12
-2.570000000e-02	2.678468311e-01	-1.127265000e-04	1.050360690e-11
-2.580000000e-02	2.678468217e-01	-1.100132808e-04	6.758579721e-12
-2.590000000e-02	2.678468123e-01	-1.073000621e-04	8.852613333e-12
-2.600000000e-02	2.678468027e-01	-1.045868441e-04	7.076305907e-12
-2.610000000e-02	2.678467931e-01	-1.018736266e-04	1.906655500e-11
-2.620000000e-02	2.678467834e-01	-9.916040971e-05	9.477437368e-12
-2.630000000e-02	2.678467736e-01	-9.644719341e-05	1.140334411e-11
-2.640000000e-02	2.678467637e-01	-9.373397772e-05	2.902965131e-11
-2.650000000e-02	2.678467537e-01	-9.102076263e-05	1.165064208e-11
-2.660000000e-02	2.678467437e-01	-8.830754815e-05	7.758771487e-12
-2.670000000e-02	2.678467335e-01	-8.559433428e-05	6.583068505e-12
-2.680000000e-02	2.678467233e-01	-8.288112103e-05	1.281591182e-11
-2.690000000e-02	2.678467130e-01	-8.016790840e-05	1.294385090e-11
-2.700000000e-02	2.678467027e-01	-7.745469640e-05	2.380545118e-11
-2.710000000e-02	2.678466922e-01	-7.474148502e-05	1.086862058e-11
-2.720000000e-02	2.678466817e-01	-7.202827428e-05	1.127784984e-11
-2.730000000e-02	2.678466710e-01	-6.931506418e-05	1.619730574e-11
-2.740000000e-02	2.678466603e-01	-6.660185472e-05	4.516068276e-11
-2.750000000e-02	2.678466495e-01	-6.388864590e-05	1.075857109e-11
-2.760000000e-02	2.678466387e-01	-6.117543773e-05	1.690499614e-11
-2.770000000e-02	2.678466277e-01	-5.846223022e-05	6.547641305e-11
-2.780000000e-02	2.678466167e-01	-5.574902337e-05	2.079120937e-11
-2.790000000e-02	2.678466056e-01	-5.303581718e-05	2.029234463e-11
-2.800000000e-02	2.678465944e-01	-5.032261165e-05	3.123780568e-11
-2.810000000e-02	2.678465831e-01	-4.760940680e-05	2.042069864e-11
-2.820000000e-02	2.678465717e-01	-4.489620263e-05	1.013913230e-11
-2.830000000e-02	2.678465603e-01	-4.218299913e-05	9.309975673e-12
-2.840000000e-02	2.678465487e-01	-3.946979631e-05	1.017854000e-11
-2.850000000e-02	2.678465371e-01	-3.675659419e-05	8.343775895e-12
-2.860000000e-02	2.678465254e-01	-3.404339275e-05	1.268631266e-11
-2.870000000e-02	2.678465137e-01	-3.133019202e-05	1.122494775e-11
-2.880000000e-02	2.678465018e-01	-2.861699198e-05	7.704499146e-12
-2.890000000e-02	2.678464898e-01	-2.590379265e-05	1.143249945e-11
-2.900000000e-02	2.678464778e-01	-2.319059402e-05	1.149138757e-10
-2.910000000e-02	2.678464657e-01	-2.047739611e-05	1.232697331e-11
-2.920000000e-02	2.678464535e-01	-1.776419891e-05	1.676040084e-11
-2.930000000e-02	2.678464413e-01	-1.505100244e-05	7.664008676e-12
-2.940000000e-02	2.678464289e-01	-1.233780669e-05	2.125100070e-11
-2.950000000e-02	2.678464165e-01	-9.624611669e-06	9.616426202e-12
-2.960000000e-02	2.678464039e-01	-6.911417384e-06	7.857659396e-12
-2.970000000e-02	2.678463913e-01	-4.198223836e-06	1.039858431e-11
-2.980000000e-02	2.678463787e-01	-1.485031029e-06	1.374898258e-11
-2.990000000e-02	2.678463659e-01	1.228161030e-06	2.523589600e-11
-3.000000000e-02	2.678463530e-01	3.941352340e-06	1.411293901e-11
