# Im(epsi1)     Re(omega/c)      Im(omega/c)      Eq(det).Opt det CON kz, R=0.5 \mum, mu_c=0.3, Re(epsi1)=3.90solve_det_conkz_vs_kz.py
0.000000000e+00	2.678503381e-01	-8.100478141e-04	1.039181755e-11
-1.000000000e-04	2.678503499e-01	-8.073345539e-04	1.054717545e-11
-2.000000000e-04	2.678503616e-01	-8.046212932e-04	1.975229517e-11
-3.000000000e-04	2.678503732e-01	-8.019080320e-04	1.194370005e-11
-4.000000000e-04	2.678503848e-01	-7.991947703e-04	4.957211685e-11
-5.000000000e-04	2.678503962e-01	-7.964815082e-04	1.007372507e-11
-6.000000000e-04	2.678504076e-01	-7.937682455e-04	1.358855598e-11
-7.000000000e-04	2.678504189e-01	-7.910549824e-04	5.076193243e-11
-8.000000000e-04	2.678504301e-01	-7.883417188e-04	1.462914760e-10
-9.000000000e-04	2.678504413e-01	-7.856284548e-04	1.039524893e-11
-1.000000000e-03	2.678504523e-01	-7.829151903e-04	2.086465594e-11
-1.100000000e-03	2.678504633e-01	-7.802019253e-04	1.172128510e-11
-1.200000000e-03	2.678504742e-01	-7.774886599e-04	1.803527811e-11
-1.300000000e-03	2.678504850e-01	-7.747753941e-04	2.452414931e-11
-1.400000000e-03	2.678504957e-01	-7.720621278e-04	7.581264984e-12
-1.500000000e-03	2.678505064e-01	-7.693488610e-04	1.465037102e-11
-1.600000000e-03	2.678505169e-01	-7.666355939e-04	1.592850332e-11
-1.700000000e-03	2.678505274e-01	-7.639223263e-04	1.628425203e-11
-1.800000000e-03	2.678505378e-01	-7.612090582e-04	4.933508035e-12
-1.900000000e-03	2.678505481e-01	-7.584957898e-04	1.963343905e-11
-2.000000000e-03	2.678505583e-01	-7.557825209e-04	7.634376654e-12
-2.100000000e-03	2.678505685e-01	-7.530692516e-04	1.632663887e-11
-2.200000000e-03	2.678505785e-01	-7.503559820e-04	6.086738817e-12
-2.300000000e-03	2.678505885e-01	-7.476427119e-04	2.879789525e-11
-2.400000000e-03	2.678505984e-01	-7.449294414e-04	1.855101989e-11
-2.500000000e-03	2.678506082e-01	-7.422161705e-04	1.007443761e-11
-2.600000000e-03	2.678506180e-01	-7.395028992e-04	1.530522740e-11
-2.700000000e-03	2.678506276e-01	-7.367896275e-04	2.299329702e-11
-2.800000000e-03	2.678506372e-01	-7.340763555e-04	1.223042669e-11
-2.900000000e-03	2.678506467e-01	-7.313630830e-04	1.154606500e-11
-3.000000000e-03	2.678506561e-01	-7.286498102e-04	1.266904198e-11
-3.100000000e-03	2.678506654e-01	-7.259365370e-04	1.977665208e-11
-3.200000000e-03	2.678506746e-01	-7.232232635e-04	2.039089122e-11
-3.300000000e-03	2.678506838e-01	-7.205099896e-04	1.613143232e-11
-3.400000000e-03	2.678506929e-01	-7.177967153e-04	2.092821533e-11
-3.500000000e-03	2.678507019e-01	-7.150834407e-04	8.581322053e-12
-3.600000000e-03	2.678507108e-01	-7.123701657e-04	7.620463713e-12
-3.700000000e-03	2.678507196e-01	-7.096568903e-04	1.760149630e-11
-3.800000000e-03	2.678507284e-01	-7.069436147e-04	2.664512784e-11
-3.900000000e-03	2.678507370e-01	-7.042303387e-04	7.917217415e-12
-4.000000000e-03	2.678507456e-01	-7.015170623e-04	2.057600647e-11
-4.100000000e-03	2.678507541e-01	-6.988037856e-04	1.984032728e-11
-4.200000000e-03	2.678507625e-01	-6.960905087e-04	8.289617712e-12
-4.300000000e-03	2.678507708e-01	-6.933772313e-04	2.442143539e-11
-4.400000000e-03	2.678507791e-01	-6.906639537e-04	2.596988622e-11
-4.500000000e-03	2.678507873e-01	-6.879506757e-04	1.531652616e-11
-4.600000000e-03	2.678507953e-01	-6.852373975e-04	7.802179912e-12
-4.700000000e-03	2.678508034e-01	-6.825241189e-04	1.148307330e-11
-4.800000000e-03	2.678508113e-01	-6.798108400e-04	1.518713324e-11
-4.900000000e-03	2.678508191e-01	-6.770975609e-04	1.139866474e-11
-5.000000000e-03	2.678508269e-01	-6.743842814e-04	4.922508935e-11
-5.100000000e-03	2.678508345e-01	-6.716710017e-04	2.952576782e-11
-5.200000000e-03	2.678508421e-01	-6.689577216e-04	1.409784370e-11
-5.300000000e-03	2.678508496e-01	-6.662444413e-04	1.125885662e-11
-5.400000000e-03	2.678508571e-01	-6.635311608e-04	1.388311408e-11
-5.500000000e-03	2.678508644e-01	-6.608178799e-04	1.408735240e-11
-5.600000000e-03	2.678508717e-01	-6.581045988e-04	1.018876182e-11
-5.700000000e-03	2.678508789e-01	-6.553913174e-04	1.060617951e-11
-5.800000000e-03	2.678508860e-01	-6.526780357e-04	1.455205975e-11
-5.900000000e-03	2.678508930e-01	-6.499647538e-04	1.347311727e-11
-6.000000000e-03	2.678508999e-01	-6.472514717e-04	1.264112703e-11
-6.100000000e-03	2.678509067e-01	-6.445381893e-04	6.727235894e-12
-6.200000000e-03	2.678509135e-01	-6.418249066e-04	1.510926040e-11
-6.300000000e-03	2.678509202e-01	-6.391116238e-04	2.561923509e-11
-6.400000000e-03	2.678509268e-01	-6.363983406e-04	2.189722487e-11
-6.500000000e-03	2.678509333e-01	-6.336850573e-04	4.715412295e-12
-6.600000000e-03	2.678509398e-01	-6.309717737e-04	1.015900921e-11
-6.700000000e-03	2.678509461e-01	-6.282584899e-04	3.359200261e-11
-6.800000000e-03	2.678509524e-01	-6.255452059e-04	9.346580614e-12
-6.900000000e-03	2.678509586e-01	-6.228319217e-04	2.333814734e-11
-7.000000000e-03	2.678509647e-01	-6.201186373e-04	1.379229512e-11
-7.100000000e-03	2.678509707e-01	-6.174053526e-04	3.528772253e-11
-7.200000000e-03	2.678509767e-01	-6.146920678e-04	1.171001484e-11
-7.300000000e-03	2.678509825e-01	-6.119787828e-04	1.699723805e-11
-7.400000000e-03	2.678509883e-01	-6.092654975e-04	1.473079901e-11
-7.500000000e-03	2.678509940e-01	-6.065522121e-04	3.281862612e-11
-7.600000000e-03	2.678509996e-01	-6.038389265e-04	4.551287857e-12
-7.700000000e-03	2.678510051e-01	-6.011256408e-04	2.977831723e-12
-7.800000000e-03	2.678510106e-01	-5.984123548e-04	4.933226314e-12
-7.900000000e-03	2.678510159e-01	-5.956990687e-04	1.430820360e-11
-8.000000000e-03	2.678510212e-01	-5.929857824e-04	2.215560115e-11
-8.100000000e-03	2.678510264e-01	-5.902724959e-04	9.906239171e-12
-8.200000000e-03	2.678510316e-01	-5.875592093e-04	1.784121139e-11
-8.300000000e-03	2.678510366e-01	-5.848459225e-04	4.891238529e-12
-8.400000000e-03	2.678510415e-01	-5.821326356e-04	6.227561693e-12
-8.500000000e-03	2.678510464e-01	-5.794193486e-04	2.312655779e-11
-8.600000000e-03	2.678510512e-01	-5.767060613e-04	1.211744049e-11
-8.700000000e-03	2.678510559e-01	-5.739927740e-04	6.025341266e-12
-8.800000000e-03	2.678510605e-01	-5.712794865e-04	1.551467050e-11
-8.900000000e-03	2.678510651e-01	-5.685661989e-04	1.692076281e-11
-9.000000000e-03	2.678510695e-01	-5.658529112e-04	1.793319426e-11
-9.100000000e-03	2.678510739e-01	-5.631396233e-04	2.029540328e-11
-9.200000000e-03	2.678510782e-01	-5.604263353e-04	6.051698015e-11
-9.300000000e-03	2.678510824e-01	-5.577130472e-04	1.518988370e-11
-9.400000000e-03	2.678510866e-01	-5.549997590e-04	2.706186218e-11
-9.500000000e-03	2.678510906e-01	-5.522864707e-04	8.985968423e-12
-9.600000000e-03	2.678510946e-01	-5.495731823e-04	8.495981225e-12
-9.700000000e-03	2.678510984e-01	-5.468598938e-04	1.818611506e-11
-9.800000000e-03	2.678511022e-01	-5.441466052e-04	8.118029787e-12
-9.900000000e-03	2.678511060e-01	-5.414333166e-04	1.650601540e-11
-1.000000000e-02	2.678511096e-01	-5.387200278e-04	1.182652006e-11
-1.010000000e-02	2.678511132e-01	-5.360067389e-04	8.984442379e-12
-1.020000000e-02	2.678511166e-01	-5.332934500e-04	2.110712870e-11
-1.030000000e-02	2.678511200e-01	-5.305801610e-04	4.434694798e-11
-1.040000000e-02	2.678511233e-01	-5.278668720e-04	1.412109633e-11
-1.050000000e-02	2.678511265e-01	-5.251535828e-04	8.433406802e-11
-1.060000000e-02	2.678511297e-01	-5.224402937e-04	1.045943836e-11
-1.070000000e-02	2.678511327e-01	-5.197270044e-04	2.796907657e-11
-1.080000000e-02	2.678511357e-01	-5.170137151e-04	6.279507666e-12
-1.090000000e-02	2.678511386e-01	-5.143004258e-04	1.975318624e-11
-1.100000000e-02	2.678511414e-01	-5.115871364e-04	9.939444884e-12
-1.110000000e-02	2.678511441e-01	-5.088738470e-04	4.710693496e-12
-1.120000000e-02	2.678511468e-01	-5.061605576e-04	2.086218221e-11
-1.130000000e-02	2.678511494e-01	-5.034472681e-04	9.157140075e-11
-1.140000000e-02	2.678511518e-01	-5.007339786e-04	5.935794524e-11
-1.150000000e-02	2.678511542e-01	-4.980206891e-04	8.055240260e-11
-1.160000000e-02	2.678511566e-01	-4.953073995e-04	5.744612206e-12
-1.170000000e-02	2.678511588e-01	-4.925941100e-04	1.956016798e-11
-1.180000000e-02	2.678511609e-01	-4.898808204e-04	8.509363774e-12
-1.190000000e-02	2.678511630e-01	-4.871675308e-04	6.636868621e-12
-1.200000000e-02	2.678511650e-01	-4.844542413e-04	8.708596644e-11
-1.210000000e-02	2.678511669e-01	-4.817409517e-04	3.474735801e-11
-1.220000000e-02	2.678511687e-01	-4.790276622e-04	1.112474893e-11
-1.230000000e-02	2.678511705e-01	-4.763143726e-04	2.395607957e-11
-1.240000000e-02	2.678511721e-01	-4.736010831e-04	1.435264826e-11
-1.250000000e-02	2.678511737e-01	-4.708877936e-04	1.281442937e-11
-1.260000000e-02	2.678511752e-01	-4.681745041e-04	5.599339068e-11
-1.270000000e-02	2.678511766e-01	-4.654612146e-04	9.753270664e-12
-1.280000000e-02	2.678511779e-01	-4.627479252e-04	2.577930977e-11
-1.290000000e-02	2.678511792e-01	-4.600346358e-04	9.734752725e-12
-1.300000000e-02	2.678511803e-01	-4.573213465e-04	1.316706659e-11
-1.310000000e-02	2.678511814e-01	-4.546080572e-04	1.698814773e-11
-1.320000000e-02	2.678511824e-01	-4.518947679e-04	1.215440680e-11
-1.330000000e-02	2.678511833e-01	-4.491814787e-04	1.590792571e-11
-1.340000000e-02	2.678511842e-01	-4.464681896e-04	1.657646316e-11
-1.350000000e-02	2.678511849e-01	-4.437549005e-04	6.233384056e-12
-1.360000000e-02	2.678511856e-01	-4.410416115e-04	1.133696854e-11
-1.370000000e-02	2.678511862e-01	-4.383283226e-04	2.293898009e-11
-1.380000000e-02	2.678511867e-01	-4.356150337e-04	6.798670276e-12
-1.390000000e-02	2.678511871e-01	-4.329017449e-04	1.274863834e-11
-1.400000000e-02	2.678511874e-01	-4.301884562e-04	1.473583602e-11
-1.410000000e-02	2.678511877e-01	-4.274751676e-04	1.112160624e-11
-1.420000000e-02	2.678511879e-01	-4.247618791e-04	1.308478296e-11
-1.430000000e-02	2.678511879e-01	-4.220485906e-04	1.255850347e-11
-1.440000000e-02	2.678511880e-01	-4.193353023e-04	1.339843963e-11
-1.450000000e-02	2.678511879e-01	-4.166220141e-04	4.286324428e-11
-1.460000000e-02	2.678511877e-01	-4.139087260e-04	1.541819625e-11
-1.470000000e-02	2.678511875e-01	-4.111954380e-04	1.063370127e-11
-1.480000000e-02	2.678511872e-01	-4.084821501e-04	1.431694308e-11
-1.490000000e-02	2.678511868e-01	-4.057688623e-04	3.325521437e-11
-1.500000000e-02	2.678511863e-01	-4.030555747e-04	1.509738703e-11
-1.510000000e-02	2.678511857e-01	-4.003422871e-04	1.701124053e-11
-1.520000000e-02	2.678511851e-01	-3.976289998e-04	3.199656857e-11
-1.530000000e-02	2.678511843e-01	-3.949157125e-04	8.762115806e-12
-1.540000000e-02	2.678511835e-01	-3.922024254e-04	1.559483550e-11
-1.550000000e-02	2.678511826e-01	-3.894891384e-04	1.459524590e-11
-1.560000000e-02	2.678511816e-01	-3.867758516e-04	1.323816686e-11
-1.570000000e-02	2.678511806e-01	-3.840625650e-04	6.911649462e-12
-1.580000000e-02	2.678511794e-01	-3.813492785e-04	1.411563282e-11
-1.590000000e-02	2.678511782e-01	-3.786359922e-04	1.996449423e-11
-1.600000000e-02	2.678511769e-01	-3.759227060e-04	7.858051536e-12
-1.610000000e-02	2.678511755e-01	-3.732094200e-04	5.364001107e-12
-1.620000000e-02	2.678511740e-01	-3.704961342e-04	4.401991372e-12
-1.630000000e-02	2.678511725e-01	-3.677828485e-04	7.073716003e-12
-1.640000000e-02	2.678511708e-01	-3.650695630e-04	2.281650069e-11
-1.650000000e-02	2.678511691e-01	-3.623562778e-04	7.421004603e-12
-1.660000000e-02	2.678511673e-01	-3.596429927e-04	1.342894684e-11
-1.670000000e-02	2.678511654e-01	-3.569297078e-04	1.361508960e-11
-1.680000000e-02	2.678511634e-01	-3.542164231e-04	1.085861961e-11
-1.690000000e-02	2.678511614e-01	-3.515031386e-04	9.406545736e-12
-1.700000000e-02	2.678511592e-01	-3.487898544e-04	2.427238064e-11
-1.710000000e-02	2.678511570e-01	-3.460765703e-04	1.431125330e-11
-1.720000000e-02	2.678511547e-01	-3.433632864e-04	1.950536044e-11
-1.730000000e-02	2.678511523e-01	-3.406500028e-04	1.473348186e-11
-1.740000000e-02	2.678511499e-01	-3.379367194e-04	4.919698127e-11
-1.750000000e-02	2.678511473e-01	-3.352234362e-04	1.117094364e-11
-1.760000000e-02	2.678511447e-01	-3.325101533e-04	1.806671420e-11
-1.770000000e-02	2.678511420e-01	-3.297968706e-04	8.492535419e-12
-1.780000000e-02	2.678511392e-01	-3.270835881e-04	1.603743812e-11
-1.790000000e-02	2.678511363e-01	-3.243703059e-04	3.217903025e-11
-1.800000000e-02	2.678511334e-01	-3.216570239e-04	2.457640515e-11
-1.810000000e-02	2.678511303e-01	-3.189437422e-04	1.406249201e-11
-1.820000000e-02	2.678511272e-01	-3.162304608e-04	1.557390728e-11
-1.830000000e-02	2.678511240e-01	-3.135171796e-04	2.233287615e-11
-1.840000000e-02	2.678511207e-01	-3.108038987e-04	1.118007744e-11
-1.850000000e-02	2.678511173e-01	-3.080906180e-04	6.064679515e-12
-1.860000000e-02	2.678511139e-01	-3.053773376e-04	4.244628442e-11
-1.870000000e-02	2.678511103e-01	-3.026640575e-04	1.632425197e-11
-1.880000000e-02	2.678511067e-01	-2.999507777e-04	1.100042877e-11
-1.890000000e-02	2.678511030e-01	-2.972374982e-04	1.152909636e-11
-1.900000000e-02	2.678510992e-01	-2.945242189e-04	5.736703095e-12
-1.910000000e-02	2.678510954e-01	-2.918109400e-04	3.514851928e-12
-1.920000000e-02	2.678510914e-01	-2.890976613e-04	1.065711258e-11
-1.930000000e-02	2.678510874e-01	-2.863843830e-04	2.529832438e-11
-1.940000000e-02	2.678510833e-01	-2.836711050e-04	2.577332996e-11
-1.950000000e-02	2.678510791e-01	-2.809578272e-04	3.369720734e-11
-1.960000000e-02	2.678510748e-01	-2.782445498e-04	4.769111754e-11
-1.970000000e-02	2.678510705e-01	-2.755312728e-04	5.538769232e-12
-1.980000000e-02	2.678510660e-01	-2.728179960e-04	8.157949669e-12
-1.990000000e-02	2.678510615e-01	-2.701047196e-04	2.934491876e-11
-2.000000000e-02	2.678510569e-01	-2.673914435e-04	2.870659676e-11
-2.010000000e-02	2.678510522e-01	-2.646781677e-04	1.497573790e-11
-2.020000000e-02	2.678510474e-01	-2.619648923e-04	2.671756022e-11
-2.030000000e-02	2.678510426e-01	-2.592516172e-04	1.188140846e-11
-2.040000000e-02	2.678510376e-01	-2.565383425e-04	1.921333389e-11
-2.050000000e-02	2.678510326e-01	-2.538250681e-04	9.163322920e-12
-2.060000000e-02	2.678510275e-01	-2.511117941e-04	1.431969715e-11
-2.070000000e-02	2.678510223e-01	-2.483985205e-04	2.600035341e-11
-2.080000000e-02	2.678510171e-01	-2.456852472e-04	5.895894795e-12
-2.090000000e-02	2.678510117e-01	-2.429719743e-04	9.452091859e-12
-2.100000000e-02	2.678510063e-01	-2.402587018e-04	5.401217360e-12
-2.110000000e-02	2.678510008e-01	-2.375454296e-04	2.181080933e-11
-2.120000000e-02	2.678509952e-01	-2.348321578e-04	2.048522400e-11
-2.130000000e-02	2.678509895e-01	-2.321188864e-04	1.048392339e-11
-2.140000000e-02	2.678509837e-01	-2.294056155e-04	2.465055035e-11
-2.150000000e-02	2.678509779e-01	-2.266923449e-04	2.123059331e-11
-2.160000000e-02	2.678509720e-01	-2.239790747e-04	1.836267758e-11
-2.170000000e-02	2.678509660e-01	-2.212658049e-04	1.803524735e-11
-2.180000000e-02	2.678509599e-01	-2.185525355e-04	8.013614588e-12
-2.190000000e-02	2.678509537e-01	-2.158392665e-04	2.429669063e-11
-2.200000000e-02	2.678509474e-01	-2.131259980e-04	1.068400124e-11
-2.210000000e-02	2.678509411e-01	-2.104127298e-04	1.695201828e-11
-2.220000000e-02	2.678509347e-01	-2.076994621e-04	7.185448206e-11
-2.230000000e-02	2.678509282e-01	-2.049861948e-04	1.995202005e-11
-2.240000000e-02	2.678509216e-01	-2.022729280e-04	8.762429116e-12
-2.250000000e-02	2.678509149e-01	-1.995596616e-04	5.994422462e-12
-2.260000000e-02	2.678509082e-01	-1.968463956e-04	4.112921648e-11
-2.270000000e-02	2.678509013e-01	-1.941331301e-04	1.304323652e-11
-2.280000000e-02	2.678508944e-01	-1.914198650e-04	1.557422205e-11
-2.290000000e-02	2.678508874e-01	-1.887066004e-04	1.307914494e-11
-2.300000000e-02	2.678508803e-01	-1.859933362e-04	1.632296181e-11
-2.310000000e-02	2.678508732e-01	-1.832800725e-04	2.063242263e-11
-2.320000000e-02	2.678508659e-01	-1.805668093e-04	6.981608246e-12
-2.330000000e-02	2.678508586e-01	-1.778535465e-04	8.443265421e-12
-2.340000000e-02	2.678508512e-01	-1.751402842e-04	8.491226956e-12
-2.350000000e-02	2.678508437e-01	-1.724270224e-04	2.060855733e-11
-2.360000000e-02	2.678508361e-01	-1.697137611e-04	1.968980110e-11
-2.370000000e-02	2.678508285e-01	-1.670005003e-04	1.961798339e-11
-2.380000000e-02	2.678508207e-01	-1.642872399e-04	2.143284544e-11
-2.390000000e-02	2.678508129e-01	-1.615739801e-04	1.003594883e-11
-2.400000000e-02	2.678508050e-01	-1.588607207e-04	8.160366601e-12
-2.410000000e-02	2.678507970e-01	-1.561474619e-04	2.337186035e-11
-2.420000000e-02	2.678507890e-01	-1.534342036e-04	7.287256403e-12
-2.430000000e-02	2.678507808e-01	-1.507209457e-04	1.207532072e-11
-2.440000000e-02	2.678507726e-01	-1.480076884e-04	1.253919689e-11
-2.450000000e-02	2.678507643e-01	-1.452944316e-04	5.668232098e-12
-2.460000000e-02	2.678507559e-01	-1.425811754e-04	4.587627646e-12
-2.470000000e-02	2.678507474e-01	-1.398679197e-04	1.134389318e-11
-2.480000000e-02	2.678507388e-01	-1.371546645e-04	1.203240850e-11
-2.490000000e-02	2.678507302e-01	-1.344414098e-04	6.507742506e-11
-2.500000000e-02	2.678507214e-01	-1.317281557e-04	1.818338777e-11
-2.510000000e-02	2.678507126e-01	-1.290149021e-04	2.039578628e-11
-2.520000000e-02	2.678507037e-01	-1.263016491e-04	3.728792871e-11
-2.530000000e-02	2.678506948e-01	-1.235883966e-04	1.656157815e-11
-2.540000000e-02	2.678506857e-01	-1.208751447e-04	1.512088828e-11
-2.550000000e-02	2.678506766e-01	-1.181618934e-04	6.937395045e-12
-2.560000000e-02	2.678506673e-01	-1.154486426e-04	1.775617113e-11
-2.570000000e-02	2.678506580e-01	-1.127353924e-04	9.471676565e-12
-2.580000000e-02	2.678506486e-01	-1.100221427e-04	2.104995242e-11
-2.590000000e-02	2.678506392e-01	-1.073088937e-04	8.099755390e-12
-2.600000000e-02	2.678506296e-01	-1.045956452e-04	1.263728084e-11
-2.610000000e-02	2.678506200e-01	-1.018823973e-04	1.519284379e-11
-2.620000000e-02	2.678506103e-01	-9.916915003e-05	6.562752994e-11
-2.630000000e-02	2.678506005e-01	-9.645590333e-05	1.391603733e-11
-2.640000000e-02	2.678505906e-01	-9.374265724e-05	1.386628018e-11
-2.650000000e-02	2.678505806e-01	-9.102941175e-05	8.623980766e-12
-2.660000000e-02	2.678505706e-01	-8.831616686e-05	9.659886011e-12
-2.670000000e-02	2.678505605e-01	-8.560292259e-05	3.396186886e-11
-2.680000000e-02	2.678505502e-01	-8.288967894e-05	1.288176109e-11
-2.690000000e-02	2.678505399e-01	-8.017643591e-05	1.579843985e-11
-2.700000000e-02	2.678505296e-01	-7.746319350e-05	5.682144059e-12
-2.710000000e-02	2.678505191e-01	-7.474995172e-05	1.076651849e-11
-2.720000000e-02	2.678505086e-01	-7.203671058e-05	1.170485329e-11
-2.730000000e-02	2.678504979e-01	-6.932347007e-05	2.278592068e-11
-2.740000000e-02	2.678504872e-01	-6.661023020e-05	9.767693400e-12
-2.750000000e-02	2.678504765e-01	-6.389699098e-05	1.482125130e-11
-2.760000000e-02	2.678504656e-01	-6.118375242e-05	1.402941105e-11
-2.770000000e-02	2.678504546e-01	-5.847051450e-05	4.648153054e-12
-2.780000000e-02	2.678504436e-01	-5.575727724e-05	1.299914665e-11
-2.790000000e-02	2.678504325e-01	-5.304404065e-05	1.815379599e-11
-2.800000000e-02	2.678504213e-01	-5.033080473e-05	2.256901968e-11
-2.810000000e-02	2.678504100e-01	-4.761756947e-05	2.109723002e-11
-2.820000000e-02	2.678503986e-01	-4.490433489e-05	3.382539410e-11
-2.830000000e-02	2.678503872e-01	-4.219110099e-05	7.240875616e-12
-2.840000000e-02	2.678503756e-01	-3.947786777e-05	1.121506200e-11
-2.850000000e-02	2.678503640e-01	-3.676463524e-05	1.035075322e-11
-2.860000000e-02	2.678503523e-01	-3.405140340e-05	2.201890909e-11
-2.870000000e-02	2.678503406e-01	-3.133817226e-05	1.597869484e-11
-2.880000000e-02	2.678503287e-01	-2.862494182e-05	1.736222734e-11
-2.890000000e-02	2.678503168e-01	-2.591171209e-05	2.102637734e-11
-2.900000000e-02	2.678503047e-01	-2.319848306e-05	8.463711400e-12
-2.910000000e-02	2.678502926e-01	-2.048525474e-05	6.301484918e-12
-2.920000000e-02	2.678502804e-01	-1.777202714e-05	1.543048377e-11
-2.930000000e-02	2.678502682e-01	-1.505880027e-05	2.115194446e-11
-2.940000000e-02	2.678502558e-01	-1.234557412e-05	8.386034400e-12
-2.950000000e-02	2.678502434e-01	-9.632348693e-06	2.375812045e-11
-2.960000000e-02	2.678502309e-01	-6.919124003e-06	2.686922787e-11
-2.970000000e-02	2.678502182e-01	-4.205900052e-06	2.007640218e-11
-2.980000000e-02	2.678502056e-01	-1.492676843e-06	1.282624512e-11
-2.990000000e-02	2.678501928e-01	1.220545619e-06	2.075366815e-11
-3.000000000e-02	2.678501799e-01	3.933767333e-06	1.528198734e-11
