# Im(epsi1)     Re(omega/c)      Im(omega/c)      Eq(det).Opt det CON kz, R=0.5 \mum, mu_c=0.3, Re(epsi1)=3.90solve_det_conkz_vs_kz.py
0.000000000e+00	2.678535128e-01	-8.100616733e-04	1.774092749e-11
-1.000000000e-04	2.678535246e-01	-8.073483879e-04	1.299132863e-11
-2.000000000e-04	2.678535363e-01	-8.046351020e-04	1.092938014e-11
-3.000000000e-04	2.678535480e-01	-8.019218155e-04	9.676201601e-12
-4.000000000e-04	2.678535595e-01	-7.992085286e-04	2.319703322e-11
-5.000000000e-04	2.678535710e-01	-7.964952412e-04	7.822063660e-12
-6.000000000e-04	2.678535824e-01	-7.937819534e-04	9.719780582e-12
-7.000000000e-04	2.678535937e-01	-7.910686651e-04	1.389431837e-11
-8.000000000e-04	2.678536049e-01	-7.883553763e-04	1.354309280e-11
-9.000000000e-04	2.678536160e-01	-7.856420870e-04	1.002455067e-11
-1.000000000e-03	2.678536271e-01	-7.829287973e-04	4.338445480e-11
-1.100000000e-03	2.678536380e-01	-7.802155071e-04	6.076227273e-11
-1.200000000e-03	2.678536489e-01	-7.775022165e-04	2.032851255e-11
-1.300000000e-03	2.678536597e-01	-7.747889254e-04	1.441705286e-11
-1.400000000e-03	2.678536705e-01	-7.720756339e-04	1.052686945e-11
-1.500000000e-03	2.678536811e-01	-7.693623419e-04	2.100291425e-11
-1.600000000e-03	2.678536917e-01	-7.666490495e-04	2.468335836e-11
-1.700000000e-03	2.678537021e-01	-7.639357567e-04	1.079276943e-11
-1.800000000e-03	2.678537125e-01	-7.612224635e-04	3.091823890e-11
-1.900000000e-03	2.678537228e-01	-7.585091698e-04	1.088310047e-11
-2.000000000e-03	2.678537331e-01	-7.557958757e-04	1.945295121e-11
-2.100000000e-03	2.678537432e-01	-7.530825812e-04	4.116127979e-12
-2.200000000e-03	2.678537533e-01	-7.503692863e-04	5.873401272e-11
-2.300000000e-03	2.678537633e-01	-7.476559910e-04	2.028733791e-11
-2.400000000e-03	2.678537732e-01	-7.449426953e-04	1.379458376e-11
-2.500000000e-03	2.678537830e-01	-7.422293991e-04	2.293559231e-11
-2.600000000e-03	2.678537927e-01	-7.395161026e-04	2.079504722e-11
-2.700000000e-03	2.678538024e-01	-7.368028057e-04	1.291314882e-11
-2.800000000e-03	2.678538119e-01	-7.340895085e-04	1.426687875e-11
-2.900000000e-03	2.678538214e-01	-7.313762108e-04	1.693917456e-11
-3.000000000e-03	2.678538308e-01	-7.286629128e-04	2.307186836e-11
-3.100000000e-03	2.678538402e-01	-7.259496144e-04	2.570494200e-11
-3.200000000e-03	2.678538494e-01	-7.232363156e-04	2.849052174e-11
-3.300000000e-03	2.678538586e-01	-7.205230165e-04	9.641650542e-12
-3.400000000e-03	2.678538676e-01	-7.178097170e-04	3.230142394e-11
-3.500000000e-03	2.678538766e-01	-7.150964171e-04	3.018030282e-12
-3.600000000e-03	2.678538855e-01	-7.123831169e-04	4.494277281e-11
-3.700000000e-03	2.678538944e-01	-7.096698164e-04	9.678924381e-12
-3.800000000e-03	2.678539031e-01	-7.069565155e-04	1.021320409e-11
-3.900000000e-03	2.678539118e-01	-7.042432142e-04	1.486814080e-11
-4.000000000e-03	2.678539204e-01	-7.015299127e-04	1.913049418e-11
-4.100000000e-03	2.678539289e-01	-6.988166108e-04	1.322272075e-11
-4.200000000e-03	2.678539373e-01	-6.961033086e-04	1.059271474e-11
-4.300000000e-03	2.678539456e-01	-6.933900060e-04	8.665642388e-11
-4.400000000e-03	2.678539539e-01	-6.906767032e-04	1.606785021e-11
-4.500000000e-03	2.678539620e-01	-6.879634000e-04	9.041630853e-13
-4.600000000e-03	2.678539701e-01	-6.852500965e-04	2.149609439e-11
-4.700000000e-03	2.678539781e-01	-6.825367927e-04	9.496330113e-12
-4.800000000e-03	2.678539860e-01	-6.798234886e-04	1.361942250e-11
-4.900000000e-03	2.678539939e-01	-6.771101842e-04	9.297417414e-12
-5.000000000e-03	2.678540016e-01	-6.743968796e-04	6.792098170e-12
-5.100000000e-03	2.678540093e-01	-6.716835746e-04	1.987340594e-11
-5.200000000e-03	2.678540169e-01	-6.689702693e-04	8.626021245e-12
-5.300000000e-03	2.678540244e-01	-6.662569638e-04	6.261554793e-12
-5.400000000e-03	2.678540318e-01	-6.635436580e-04	2.277802673e-11
-5.500000000e-03	2.678540392e-01	-6.608303519e-04	1.634932027e-11
-5.600000000e-03	2.678540464e-01	-6.581170456e-04	1.741614147e-11
-5.700000000e-03	2.678540536e-01	-6.554037390e-04	4.276057636e-11
-5.800000000e-03	2.678540607e-01	-6.526904321e-04	8.630737241e-12
-5.900000000e-03	2.678540677e-01	-6.499771250e-04	2.498118329e-11
-6.000000000e-03	2.678540747e-01	-6.472638176e-04	7.378145126e-12
-6.100000000e-03	2.678540815e-01	-6.445505100e-04	1.766692664e-11
-6.200000000e-03	2.678540883e-01	-6.418372021e-04	2.003903848e-11
-6.300000000e-03	2.678540950e-01	-6.391238940e-04	7.890758739e-12
-6.400000000e-03	2.678541016e-01	-6.364105857e-04	1.108607175e-11
-6.500000000e-03	2.678541081e-01	-6.336972771e-04	5.104160629e-11
-6.600000000e-03	2.678541145e-01	-6.309839683e-04	8.067342624e-12
-6.700000000e-03	2.678541209e-01	-6.282706593e-04	4.020094223e-11
-6.800000000e-03	2.678541272e-01	-6.255573501e-04	1.258970741e-11
-6.900000000e-03	2.678541333e-01	-6.228440406e-04	9.865314908e-12
-7.000000000e-03	2.678541395e-01	-6.201307310e-04	2.761717364e-11
-7.100000000e-03	2.678541455e-01	-6.174174211e-04	5.277862714e-11
-7.200000000e-03	2.678541514e-01	-6.147041111e-04	9.070447595e-12
-7.300000000e-03	2.678541573e-01	-6.119908008e-04	1.676786858e-11
-7.400000000e-03	2.678541631e-01	-6.092774904e-04	1.285222532e-11
-7.500000000e-03	2.678541688e-01	-6.065641797e-04	1.883195676e-11
-7.600000000e-03	2.678541744e-01	-6.038508689e-04	9.380915726e-12
-7.700000000e-03	2.678541799e-01	-6.011375579e-04	2.684414753e-11
-7.800000000e-03	2.678541854e-01	-5.984242467e-04	3.781577472e-11
-7.900000000e-03	2.678541907e-01	-5.957109354e-04	1.611912662e-11
-8.000000000e-03	2.678541960e-01	-5.929976239e-04	2.230982882e-11
-8.100000000e-03	2.678542012e-01	-5.902843122e-04	7.654343039e-11
-8.200000000e-03	2.678542063e-01	-5.875710004e-04	1.206134991e-11
-8.300000000e-03	2.678542114e-01	-5.848576884e-04	3.617430289e-11
-8.400000000e-03	2.678542163e-01	-5.821443762e-04	1.861047336e-11
-8.500000000e-03	2.678542212e-01	-5.794310639e-04	8.322815944e-12
-8.600000000e-03	2.678542260e-01	-5.767177515e-04	1.811128793e-11
-8.700000000e-03	2.678542307e-01	-5.740044389e-04	1.421048783e-11
-8.800000000e-03	2.678542353e-01	-5.712911262e-04	1.892948051e-11
-8.900000000e-03	2.678542399e-01	-5.685778134e-04	5.379929970e-12
-9.000000000e-03	2.678542443e-01	-5.658645004e-04	1.826510537e-11
-9.100000000e-03	2.678542487e-01	-5.631511873e-04	9.982896697e-12
-9.200000000e-03	2.678542530e-01	-5.604378741e-04	9.565408020e-12
-9.300000000e-03	2.678542572e-01	-5.577245608e-04	2.110192526e-11
-9.400000000e-03	2.678542613e-01	-5.550112474e-04	1.538504238e-11
-9.500000000e-03	2.678542654e-01	-5.522979339e-04	4.305835461e-11
-9.600000000e-03	2.678542693e-01	-5.495846203e-04	1.574953239e-11
-9.700000000e-03	2.678542732e-01	-5.468713065e-04	2.588981304e-12
-9.800000000e-03	2.678542770e-01	-5.441579927e-04	1.211042300e-11
-9.900000000e-03	2.678542807e-01	-5.414446788e-04	2.459334506e-11
-1.000000000e-02	2.678542844e-01	-5.387313648e-04	9.517645974e-12
-1.010000000e-02	2.678542879e-01	-5.360180508e-04	1.037951381e-11
-1.020000000e-02	2.678542914e-01	-5.333047366e-04	1.592318585e-11
-1.030000000e-02	2.678542948e-01	-5.305914224e-04	1.640557041e-11
-1.040000000e-02	2.678542981e-01	-5.278781081e-04	1.657661767e-11
-1.050000000e-02	2.678543013e-01	-5.251647938e-04	1.413972679e-11
-1.060000000e-02	2.678543045e-01	-5.224514794e-04	8.599270145e-12
-1.070000000e-02	2.678543075e-01	-5.197381649e-04	7.408723951e-12
-1.080000000e-02	2.678543105e-01	-5.170248504e-04	1.032215837e-11
-1.090000000e-02	2.678543134e-01	-5.143115359e-04	1.353817544e-11
-1.100000000e-02	2.678543162e-01	-5.115982213e-04	2.490938654e-11
-1.110000000e-02	2.678543189e-01	-5.088849066e-04	8.317832576e-12
-1.120000000e-02	2.678543216e-01	-5.061715920e-04	1.561780373e-11
-1.130000000e-02	2.678543241e-01	-5.034582773e-04	1.757640616e-11
-1.140000000e-02	2.678543266e-01	-5.007449625e-04	1.493022270e-11
-1.150000000e-02	2.678543290e-01	-4.980316478e-04	2.234139202e-11
-1.160000000e-02	2.678543313e-01	-4.953183330e-04	6.768782790e-12
-1.170000000e-02	2.678543336e-01	-4.926050182e-04	8.142689208e-12
-1.180000000e-02	2.678543357e-01	-4.898917035e-04	1.079436601e-11
-1.190000000e-02	2.678543378e-01	-4.871783887e-04	3.050638890e-11
-1.200000000e-02	2.678543398e-01	-4.844650739e-04	9.528497570e-11
-1.210000000e-02	2.678543417e-01	-4.817517591e-04	2.105266787e-11
-1.220000000e-02	2.678543435e-01	-4.790384443e-04	1.377057404e-11
-1.230000000e-02	2.678543452e-01	-4.763251295e-04	2.826204394e-12
-1.240000000e-02	2.678543469e-01	-4.736118148e-04	1.408850931e-11
-1.250000000e-02	2.678543485e-01	-4.708985001e-04	1.821095888e-11
-1.260000000e-02	2.678543500e-01	-4.681851854e-04	7.500373858e-12
-1.270000000e-02	2.678543514e-01	-4.654718707e-04	2.294800842e-11
-1.280000000e-02	2.678543527e-01	-4.627585560e-04	1.082897864e-11
-1.290000000e-02	2.678543539e-01	-4.600452414e-04	8.553184485e-12
-1.300000000e-02	2.678543551e-01	-4.573319269e-04	9.799308065e-12
-1.310000000e-02	2.678543562e-01	-4.546186123e-04	4.669759394e-12
-1.320000000e-02	2.678543572e-01	-4.519052979e-04	8.622092822e-12
-1.330000000e-02	2.678543581e-01	-4.491919834e-04	2.617223770e-11
-1.340000000e-02	2.678543589e-01	-4.464786691e-04	9.718154863e-12
-1.350000000e-02	2.678543597e-01	-4.437653548e-04	1.281458159e-11
-1.360000000e-02	2.678543604e-01	-4.410520406e-04	1.532997850e-11
-1.370000000e-02	2.678543609e-01	-4.383387264e-04	3.406082304e-11
-1.380000000e-02	2.678543614e-01	-4.356254123e-04	1.804841611e-11
-1.390000000e-02	2.678543619e-01	-4.329120983e-04	1.557096883e-11
-1.400000000e-02	2.678543622e-01	-4.301987844e-04	4.906968267e-12
-1.410000000e-02	2.678543625e-01	-4.274854705e-04	1.306253706e-11
-1.420000000e-02	2.678543626e-01	-4.247721568e-04	2.781737841e-11
-1.430000000e-02	2.678543627e-01	-4.220588431e-04	2.871709259e-11
-1.440000000e-02	2.678543627e-01	-4.193455296e-04	1.218059074e-10
-1.450000000e-02	2.678543627e-01	-4.166322161e-04	7.437849834e-13
-1.460000000e-02	2.678543625e-01	-4.139189028e-04	1.066936713e-11
-1.470000000e-02	2.678543623e-01	-4.112055896e-04	1.304495246e-11
-1.480000000e-02	2.678543619e-01	-4.084922765e-04	1.089617109e-11
-1.490000000e-02	2.678543615e-01	-4.057789635e-04	2.162120816e-11
-1.500000000e-02	2.678543611e-01	-4.030656506e-04	1.290289874e-11
-1.510000000e-02	2.678543605e-01	-4.003523379e-04	9.503020046e-11
-1.520000000e-02	2.678543598e-01	-3.976390253e-04	9.144341826e-12
-1.530000000e-02	2.678543591e-01	-3.949257128e-04	1.288342180e-11
-1.540000000e-02	2.678543583e-01	-3.922124005e-04	1.647162916e-11
-1.550000000e-02	2.678543574e-01	-3.894990883e-04	6.480307720e-12
-1.560000000e-02	2.678543564e-01	-3.867857762e-04	1.749822454e-11
-1.570000000e-02	2.678543554e-01	-3.840724644e-04	1.143085706e-11
-1.580000000e-02	2.678543542e-01	-3.813591526e-04	1.472126995e-11
-1.590000000e-02	2.678543530e-01	-3.786458411e-04	2.299015496e-11
-1.600000000e-02	2.678543517e-01	-3.759325297e-04	4.567196001e-12
-1.610000000e-02	2.678543503e-01	-3.732192185e-04	1.618006630e-11
-1.620000000e-02	2.678543488e-01	-3.705059074e-04	1.103304582e-11
-1.630000000e-02	2.678543472e-01	-3.677925966e-04	1.019905840e-11
-1.640000000e-02	2.678543456e-01	-3.650792859e-04	1.995535481e-11
-1.650000000e-02	2.678543439e-01	-3.623659754e-04	6.501807676e-12
-1.660000000e-02	2.678543421e-01	-3.596526651e-04	1.229373080e-11
-1.670000000e-02	2.678543402e-01	-3.569393550e-04	1.242583340e-11
-1.680000000e-02	2.678543382e-01	-3.542260450e-04	6.421903936e-12
-1.690000000e-02	2.678543362e-01	-3.515127353e-04	7.295352842e-12
-1.700000000e-02	2.678543340e-01	-3.487994258e-04	5.315460362e-11
-1.710000000e-02	2.678543318e-01	-3.460861166e-04	1.333816838e-11
-1.720000000e-02	2.678543295e-01	-3.433728075e-04	1.112293371e-11
-1.730000000e-02	2.678543271e-01	-3.406594986e-04	7.113283841e-12
-1.740000000e-02	2.678543247e-01	-3.379461900e-04	4.300089413e-12
-1.750000000e-02	2.678543221e-01	-3.352328816e-04	3.598101123e-11
-1.760000000e-02	2.678543195e-01	-3.325195734e-04	1.000999117e-11
-1.770000000e-02	2.678543168e-01	-3.298062655e-04	2.865361218e-11
-1.780000000e-02	2.678543140e-01	-3.270929578e-04	6.658932081e-12
-1.790000000e-02	2.678543111e-01	-3.243796504e-04	5.644266625e-12
-1.800000000e-02	2.678543082e-01	-3.216663432e-04	3.047052714e-11
-1.810000000e-02	2.678543051e-01	-3.189530363e-04	1.165052782e-11
-1.820000000e-02	2.678543020e-01	-3.162397296e-04	9.612169086e-12
-1.830000000e-02	2.678542988e-01	-3.135264232e-04	3.347554725e-11
-1.840000000e-02	2.678542955e-01	-3.108131170e-04	8.659011183e-12
-1.850000000e-02	2.678542921e-01	-3.080998112e-04	2.047005875e-11
-1.860000000e-02	2.678542887e-01	-3.053865055e-04	1.238487511e-12
-1.870000000e-02	2.678542851e-01	-3.026732002e-04	2.543396710e-11
-1.880000000e-02	2.678542815e-01	-2.999598952e-04	2.852954855e-11
-1.890000000e-02	2.678542778e-01	-2.972465904e-04	1.073936189e-11
-1.900000000e-02	2.678542740e-01	-2.945332860e-04	9.681599132e-12
-1.910000000e-02	2.678542702e-01	-2.918199818e-04	1.785124757e-11
-1.920000000e-02	2.678542662e-01	-2.891066779e-04	2.948439476e-11
-1.930000000e-02	2.678542622e-01	-2.863933744e-04	1.221114037e-11
-1.940000000e-02	2.678542581e-01	-2.836800711e-04	9.706856007e-12
-1.950000000e-02	2.678542539e-01	-2.809667682e-04	1.047860646e-10
-1.960000000e-02	2.678542496e-01	-2.782534655e-04	8.766309258e-12
-1.970000000e-02	2.678542453e-01	-2.755401632e-04	1.676020228e-11
-1.980000000e-02	2.678542408e-01	-2.728268613e-04	6.532457122e-12
-1.990000000e-02	2.678542363e-01	-2.701135596e-04	5.281592177e-11
-2.000000000e-02	2.678542317e-01	-2.674002583e-04	1.788579843e-11
-2.010000000e-02	2.678542270e-01	-2.646869573e-04	2.296390872e-11
-2.020000000e-02	2.678542222e-01	-2.619736567e-04	9.700968441e-11
-2.030000000e-02	2.678542174e-01	-2.592603564e-04	8.149316460e-12
-2.040000000e-02	2.678542124e-01	-2.565470564e-04	2.220088727e-11
-2.050000000e-02	2.678542074e-01	-2.538337568e-04	1.487193950e-11
-2.060000000e-02	2.678542023e-01	-2.511204576e-04	5.616093943e-12
-2.070000000e-02	2.678541971e-01	-2.484071587e-04	6.390199341e-12
-2.080000000e-02	2.678541919e-01	-2.456938602e-04	1.404018479e-11
-2.090000000e-02	2.678541865e-01	-2.429805621e-04	2.253589050e-11
-2.100000000e-02	2.678541811e-01	-2.402672643e-04	7.685939417e-12
-2.110000000e-02	2.678541756e-01	-2.375539670e-04	7.413478996e-12
-2.120000000e-02	2.678541700e-01	-2.348406700e-04	1.438655401e-11
-2.130000000e-02	2.678541643e-01	-2.321273734e-04	1.087479234e-11
-2.140000000e-02	2.678541585e-01	-2.294140771e-04	1.233539796e-11
-2.150000000e-02	2.678541527e-01	-2.267007813e-04	8.895921174e-11
-2.160000000e-02	2.678541468e-01	-2.239874859e-04	8.636536261e-12
-2.170000000e-02	2.678541408e-01	-2.212741909e-04	7.470338497e-12
-2.180000000e-02	2.678541347e-01	-2.185608963e-04	4.156240659e-11
-2.190000000e-02	2.678541285e-01	-2.158476021e-04	1.468739754e-11
-2.200000000e-02	2.678541222e-01	-2.131343083e-04	1.362100453e-11
-2.210000000e-02	2.678541159e-01	-2.104210149e-04	1.354634091e-11
-2.220000000e-02	2.678541095e-01	-2.077077220e-04	8.534855032e-12
-2.230000000e-02	2.678541030e-01	-2.049944295e-04	8.959224907e-11
-2.240000000e-02	2.678540964e-01	-2.022811374e-04	9.660717639e-12
-2.250000000e-02	2.678540897e-01	-1.995678458e-04	2.093249850e-11
-2.260000000e-02	2.678540830e-01	-1.968545546e-04	7.114317047e-12
-2.270000000e-02	2.678540761e-01	-1.941412639e-04	8.770444035e-12
-2.280000000e-02	2.678540692e-01	-1.914279736e-04	9.741822727e-12
-2.290000000e-02	2.678540622e-01	-1.887146837e-04	5.116825763e-12
-2.300000000e-02	2.678540551e-01	-1.860013943e-04	2.020176016e-11
-2.310000000e-02	2.678540480e-01	-1.832881054e-04	2.210946981e-11
-2.320000000e-02	2.678540407e-01	-1.805748170e-04	4.885588037e-12
-2.330000000e-02	2.678540334e-01	-1.778615290e-04	9.965693385e-12
-2.340000000e-02	2.678540260e-01	-1.751482415e-04	8.641090187e-12
-2.350000000e-02	2.678540185e-01	-1.724349544e-04	1.257842721e-11
-2.360000000e-02	2.678540109e-01	-1.697216679e-04	1.377528085e-11
-2.370000000e-02	2.678540033e-01	-1.670083818e-04	1.275133173e-11
-2.380000000e-02	2.678539955e-01	-1.642950963e-04	8.088431880e-12
-2.390000000e-02	2.678539877e-01	-1.615818112e-04	6.204108548e-12
-2.400000000e-02	2.678539798e-01	-1.588685266e-04	1.195795195e-11
-2.410000000e-02	2.678539718e-01	-1.561552426e-04	8.909573288e-12
-2.420000000e-02	2.678539638e-01	-1.534419590e-04	1.755168749e-11
-2.430000000e-02	2.678539556e-01	-1.507286760e-04	1.205114294e-11
-2.440000000e-02	2.678539474e-01	-1.480153934e-04	1.553501727e-11
-2.450000000e-02	2.678539391e-01	-1.453021114e-04	4.901110287e-12
-2.460000000e-02	2.678539307e-01	-1.425888299e-04	1.641200062e-11
-2.470000000e-02	2.678539222e-01	-1.398755490e-04	3.836162834e-11
-2.480000000e-02	2.678539136e-01	-1.371622686e-04	9.043007955e-12
-2.490000000e-02	2.678539050e-01	-1.344489887e-04	1.549198084e-11
-2.500000000e-02	2.678538962e-01	-1.317357093e-04	1.087832910e-11
-2.510000000e-02	2.678538874e-01	-1.290224305e-04	9.432430739e-12
-2.520000000e-02	2.678538785e-01	-1.263091523e-04	1.643846312e-11
-2.530000000e-02	2.678538696e-01	-1.235958746e-04	4.078085420e-11
-2.540000000e-02	2.678538605e-01	-1.208825975e-04	1.335838878e-11
-2.550000000e-02	2.678538514e-01	-1.181693209e-04	6.831584979e-12
-2.560000000e-02	2.678538421e-01	-1.154560449e-04	1.354701107e-11
-2.570000000e-02	2.678538328e-01	-1.127427695e-04	9.738415854e-12
-2.580000000e-02	2.678538235e-01	-1.100294946e-04	7.170713023e-12
-2.590000000e-02	2.678538140e-01	-1.073162203e-04	1.299821675e-11
-2.600000000e-02	2.678538044e-01	-1.046029466e-04	2.613983093e-11
-2.610000000e-02	2.678537948e-01	-1.018896735e-04	2.030466513e-11
-2.620000000e-02	2.678537851e-01	-9.917640102e-05	2.172485170e-12
-2.630000000e-02	2.678537753e-01	-9.646312910e-05	9.044194910e-12
-2.640000000e-02	2.678537654e-01	-9.374985778e-05	9.860150668e-12
-2.650000000e-02	2.678537554e-01	-9.103658706e-05	1.439425120e-11
-2.660000000e-02	2.678537454e-01	-8.832331696e-05	5.789969780e-11
-2.670000000e-02	2.678537353e-01	-8.561004746e-05	1.243320158e-11
-2.680000000e-02	2.678537250e-01	-8.289677859e-05	9.290442423e-12
-2.690000000e-02	2.678537148e-01	-8.018351033e-05	1.973030598e-11
-2.700000000e-02	2.678537044e-01	-7.747024270e-05	1.898282939e-11
-2.710000000e-02	2.678536939e-01	-7.475697570e-05	2.488774400e-11
-2.720000000e-02	2.678536834e-01	-7.204370933e-05	3.369248254e-11
-2.730000000e-02	2.678536728e-01	-6.933044360e-05	2.034006692e-11
-2.740000000e-02	2.678536620e-01	-6.661717851e-05	2.554333221e-11
-2.750000000e-02	2.678536513e-01	-6.390391407e-05	1.894789552e-11
-2.760000000e-02	2.678536404e-01	-6.119065028e-05	1.476391423e-11
-2.770000000e-02	2.678536294e-01	-5.847738714e-05	9.692956271e-12
-2.780000000e-02	2.678536184e-01	-5.576412466e-05	1.240741200e-11
-2.790000000e-02	2.678536073e-01	-5.305086285e-05	1.974255891e-11
-2.800000000e-02	2.678535961e-01	-5.033760170e-05	6.206994968e-12
-2.810000000e-02	2.678535848e-01	-4.762434122e-05	2.965200390e-11
-2.820000000e-02	2.678535734e-01	-4.491108141e-05	1.125644902e-11
-2.830000000e-02	2.678535620e-01	-4.219782229e-05	6.500011017e-11
-2.840000000e-02	2.678535505e-01	-3.948456385e-05	1.046555785e-11
-2.850000000e-02	2.678535388e-01	-3.677130610e-05	1.077801130e-11
-2.860000000e-02	2.678535271e-01	-3.405804904e-05	1.941933595e-11
-2.870000000e-02	2.678535154e-01	-3.134479267e-05	1.150330329e-11
-2.880000000e-02	2.678535035e-01	-2.863153701e-05	1.021987158e-11
-2.890000000e-02	2.678534916e-01	-2.591828205e-05	1.862857293e-11
-2.900000000e-02	2.678534795e-01	-2.320502780e-05	1.324491930e-11
-2.910000000e-02	2.678534674e-01	-2.049177426e-05	7.895417389e-12
-2.920000000e-02	2.678534552e-01	-1.777852144e-05	1.056458863e-11
-2.930000000e-02	2.678534430e-01	-1.506526934e-05	2.341289621e-11
-2.940000000e-02	2.678534306e-01	-1.235201796e-05	2.165275137e-11
-2.950000000e-02	2.678534182e-01	-9.638767314e-06	1.614431078e-11
-2.960000000e-02	2.678534057e-01	-6.925517402e-06	1.297136964e-11
-2.970000000e-02	2.678533931e-01	-4.212268228e-06	4.133759658e-11
-2.980000000e-02	2.678533804e-01	-1.499019795e-06	9.064611931e-12
-2.990000000e-02	2.678533676e-01	1.214227892e-06	8.092541240e-12
-3.000000000e-02	2.678533548e-01	3.927474828e-06	8.973682463e-12
