# Im(epsi1)     Re(omega/c)      Im(omega/c)      Eq(det).Opt det CON kz, R=0.5 \mum, mu_c=0.3, Re(epsi1)=3.90solve_det_conkz_vs_kz.py
0.000000000e+00	2.678660113e-01	-8.101162367e-04	4.170327991e-11
-1.000000000e-04	2.678660231e-01	-8.074028519e-04	6.133549784e-12
-2.000000000e-04	2.678660349e-01	-8.046894667e-04	2.535679617e-11
-3.000000000e-04	2.678660465e-01	-8.019760810e-04	9.158772702e-11
-4.000000000e-04	2.678660580e-01	-7.992626948e-04	2.517488446e-11
-5.000000000e-04	2.678660695e-01	-7.965493081e-04	1.826779442e-11
-6.000000000e-04	2.678660809e-01	-7.938359210e-04	1.406537601e-11
-7.000000000e-04	2.678660922e-01	-7.911225333e-04	1.317238246e-11
-8.000000000e-04	2.678661034e-01	-7.884091452e-04	1.511158005e-11
-9.000000000e-04	2.678661145e-01	-7.856957567e-04	8.700228169e-12
-1.000000000e-03	2.678661256e-01	-7.829823676e-04	3.591256391e-12
-1.100000000e-03	2.678661366e-01	-7.802689782e-04	6.402619553e-11
-1.200000000e-03	2.678661475e-01	-7.775555882e-04	1.483300852e-11
-1.300000000e-03	2.678661583e-01	-7.748421979e-04	4.287778688e-12
-1.400000000e-03	2.678661690e-01	-7.721288071e-04	5.155087969e-12
-1.500000000e-03	2.678661796e-01	-7.694154158e-04	1.135593067e-11
-1.600000000e-03	2.678661902e-01	-7.667020241e-04	5.406926083e-11
-1.700000000e-03	2.678662007e-01	-7.639886320e-04	2.308068537e-11
-1.800000000e-03	2.678662111e-01	-7.612752394e-04	9.198213460e-11
-1.900000000e-03	2.678662214e-01	-7.585618465e-04	1.300061663e-11
-2.000000000e-03	2.678662316e-01	-7.558484531e-04	2.087906565e-11
-2.100000000e-03	2.678662418e-01	-7.531350593e-04	3.803891780e-12
-2.200000000e-03	2.678662518e-01	-7.504216651e-04	8.372106790e-12
-2.300000000e-03	2.678662618e-01	-7.477082705e-04	7.271265276e-12
-2.400000000e-03	2.678662717e-01	-7.449948754e-04	1.722482794e-11
-2.500000000e-03	2.678662815e-01	-7.422814800e-04	6.628143670e-12
-2.600000000e-03	2.678662913e-01	-7.395680842e-04	9.474555255e-12
-2.700000000e-03	2.678663009e-01	-7.368546880e-04	1.216121615e-11
-2.800000000e-03	2.678663105e-01	-7.341412915e-04	7.147776584e-12
-2.900000000e-03	2.678663200e-01	-7.314278945e-04	3.852048260e-10
-3.000000000e-03	2.678663294e-01	-7.287144972e-04	1.104337516e-11
-3.100000000e-03	2.678663387e-01	-7.260010995e-04	2.042489183e-11
-3.200000000e-03	2.678663479e-01	-7.232877014e-04	8.776372021e-12
-3.300000000e-03	2.678663571e-01	-7.205743030e-04	9.211777881e-12
-3.400000000e-03	2.678663662e-01	-7.178609042e-04	3.782195575e-11
-3.500000000e-03	2.678663752e-01	-7.151475050e-04	1.565348563e-11
-3.600000000e-03	2.678663841e-01	-7.124341055e-04	1.558422248e-11
-3.700000000e-03	2.678663929e-01	-7.097207057e-04	6.964137226e-11
-3.800000000e-03	2.678664017e-01	-7.070073055e-04	1.718465388e-11
-3.900000000e-03	2.678664103e-01	-7.042939049e-04	1.855252344e-11
-4.000000000e-03	2.678664189e-01	-7.015805041e-04	3.034823840e-11
-4.100000000e-03	2.678664274e-01	-6.988671029e-04	1.696501794e-11
-4.200000000e-03	2.678664358e-01	-6.961537014e-04	1.902373798e-11
-4.300000000e-03	2.678664442e-01	-6.934402995e-04	4.618306439e-11
-4.400000000e-03	2.678664524e-01	-6.907268974e-04	3.921170785e-11
-4.500000000e-03	2.678664606e-01	-6.880134949e-04	1.600918802e-11
-4.600000000e-03	2.678664687e-01	-6.853000921e-04	3.065734201e-11
-4.700000000e-03	2.678664767e-01	-6.825866890e-04	2.169419835e-11
-4.800000000e-03	2.678664846e-01	-6.798732856e-04	1.868523542e-12
-4.900000000e-03	2.678664924e-01	-6.771598819e-04	9.489679132e-12
-5.000000000e-03	2.678665002e-01	-6.744464780e-04	8.708250112e-12
-5.100000000e-03	2.678665079e-01	-6.717330737e-04	4.871702034e-12
-5.200000000e-03	2.678665155e-01	-6.690196691e-04	9.944043570e-12
-5.300000000e-03	2.678665230e-01	-6.663062643e-04	1.824174782e-11
-5.400000000e-03	2.678665304e-01	-6.635928592e-04	1.417477441e-12
-5.500000000e-03	2.678665377e-01	-6.608794538e-04	8.658854268e-12
-5.600000000e-03	2.678665450e-01	-6.581660482e-04	3.930187017e-12
-5.700000000e-03	2.678665522e-01	-6.554526423e-04	2.533874089e-12
-5.800000000e-03	2.678665593e-01	-6.527392361e-04	8.532595146e-12
-5.900000000e-03	2.678665663e-01	-6.500258297e-04	3.905705920e-11
-6.000000000e-03	2.678665732e-01	-6.473124230e-04	2.761415155e-11
-6.100000000e-03	2.678665801e-01	-6.445990161e-04	2.004012774e-11
-6.200000000e-03	2.678665869e-01	-6.418856089e-04	1.468194006e-12
-6.300000000e-03	2.678665935e-01	-6.391722015e-04	1.155674716e-11
-6.400000000e-03	2.678666001e-01	-6.364587939e-04	1.697586022e-11
-6.500000000e-03	2.678666067e-01	-6.337453860e-04	1.907587186e-11
-6.600000000e-03	2.678666131e-01	-6.310319779e-04	2.332575579e-11
-6.700000000e-03	2.678666195e-01	-6.283185696e-04	1.033245460e-12
-6.800000000e-03	2.678666257e-01	-6.256051611e-04	1.533328993e-11
-6.900000000e-03	2.678666319e-01	-6.228917523e-04	2.227510634e-11
-7.000000000e-03	2.678666380e-01	-6.201783434e-04	2.048199677e-11
-7.100000000e-03	2.678666441e-01	-6.174649342e-04	1.760245450e-11
-7.200000000e-03	2.678666500e-01	-6.147515249e-04	1.488475380e-11
-7.300000000e-03	2.678666559e-01	-6.120381153e-04	8.989499677e-12
-7.400000000e-03	2.678666616e-01	-6.093247055e-04	2.016298643e-11
-7.500000000e-03	2.678666673e-01	-6.066112956e-04	7.678879112e-12
-7.600000000e-03	2.678666730e-01	-6.038978855e-04	2.298335335e-11
-7.700000000e-03	2.678666785e-01	-6.011844752e-04	2.943765713e-11
-7.800000000e-03	2.678666839e-01	-5.984710647e-04	5.434512966e-11
-7.900000000e-03	2.678666893e-01	-5.957576541e-04	8.152550802e-11
-8.000000000e-03	2.678666946e-01	-5.930442432e-04	1.034482195e-11
-8.100000000e-03	2.678666998e-01	-5.903308323e-04	1.291263821e-11
-8.200000000e-03	2.678667049e-01	-5.876174211e-04	1.815777758e-11
-8.300000000e-03	2.678667100e-01	-5.849040098e-04	5.799857117e-11
-8.400000000e-03	2.678667149e-01	-5.821905984e-04	1.148812404e-11
-8.500000000e-03	2.678667198e-01	-5.794771868e-04	5.665125360e-12
-8.600000000e-03	2.678667246e-01	-5.767637751e-04	2.408774184e-11
-8.700000000e-03	2.678667293e-01	-5.740503632e-04	3.534751965e-12
-8.800000000e-03	2.678667339e-01	-5.713369512e-04	1.279274476e-11
-8.900000000e-03	2.678667384e-01	-5.686235391e-04	5.978032443e-11
-9.000000000e-03	2.678667429e-01	-5.659101268e-04	3.100140916e-13
-9.100000000e-03	2.678667473e-01	-5.631967144e-04	3.420991974e-11
-9.200000000e-03	2.678667516e-01	-5.604833019e-04	3.657704288e-12
-9.300000000e-03	2.678667558e-01	-5.577698893e-04	1.892641798e-12
-9.400000000e-03	2.678667599e-01	-5.550564766e-04	1.133140444e-11
-9.500000000e-03	2.678667640e-01	-5.523430637e-04	6.086717627e-11
-9.600000000e-03	2.678667679e-01	-5.496296508e-04	9.020716577e-12
-9.700000000e-03	2.678667718e-01	-5.469162378e-04	5.190716691e-12
-9.800000000e-03	2.678667756e-01	-5.442028247e-04	1.418946643e-11
-9.900000000e-03	2.678667793e-01	-5.414894115e-04	2.452821845e-11
-1.000000000e-02	2.678667830e-01	-5.387759982e-04	3.109609647e-12
-1.010000000e-02	2.678667865e-01	-5.360625848e-04	1.641442279e-11
-1.020000000e-02	2.678667900e-01	-5.333491714e-04	1.586070105e-11
-1.030000000e-02	2.678667934e-01	-5.306357579e-04	4.705220371e-12
-1.040000000e-02	2.678667967e-01	-5.279223443e-04	4.179103118e-11
-1.050000000e-02	2.678667999e-01	-5.252089306e-04	2.132187532e-11
-1.060000000e-02	2.678668031e-01	-5.224955169e-04	1.342961452e-11
-1.070000000e-02	2.678668061e-01	-5.197821032e-04	7.347573296e-11
-1.080000000e-02	2.678668091e-01	-5.170686893e-04	1.265138433e-11
-1.090000000e-02	2.678668120e-01	-5.143552755e-04	3.398361468e-11
-1.100000000e-02	2.678668148e-01	-5.116418616e-04	1.962899211e-11
-1.110000000e-02	2.678668175e-01	-5.089284476e-04	3.366649073e-11
-1.120000000e-02	2.678668202e-01	-5.062150337e-04	8.992856082e-12
-1.130000000e-02	2.678668228e-01	-5.035016197e-04	1.937911360e-11
-1.140000000e-02	2.678668252e-01	-5.007882056e-04	6.705607364e-12
-1.150000000e-02	2.678668276e-01	-4.980747916e-04	3.026337731e-12
-1.160000000e-02	2.678668300e-01	-4.953613775e-04	6.728584196e-12
-1.170000000e-02	2.678668322e-01	-4.926479635e-04	2.092471945e-11
-1.180000000e-02	2.678668343e-01	-4.899345494e-04	4.554335363e-12
-1.190000000e-02	2.678668364e-01	-4.872211353e-04	2.928407474e-11
-1.200000000e-02	2.678668384e-01	-4.845077212e-04	1.593380527e-11
-1.210000000e-02	2.678668403e-01	-4.817943071e-04	2.636391533e-11
-1.220000000e-02	2.678668421e-01	-4.790808930e-04	1.466207345e-11
-1.230000000e-02	2.678668439e-01	-4.763674789e-04	7.190236635e-12
-1.240000000e-02	2.678668455e-01	-4.736540649e-04	1.504584608e-11
-1.250000000e-02	2.678668471e-01	-4.709406509e-04	7.546325656e-12
-1.260000000e-02	2.678668486e-01	-4.682272368e-04	6.933260786e-12
-1.270000000e-02	2.678668500e-01	-4.655138229e-04	2.099322046e-11
-1.280000000e-02	2.678668513e-01	-4.628004089e-04	3.034502372e-12
-1.290000000e-02	2.678668526e-01	-4.600869950e-04	1.812605319e-11
-1.300000000e-02	2.678668537e-01	-4.573735811e-04	1.471425103e-11
-1.310000000e-02	2.678668548e-01	-4.546601673e-04	9.259355602e-12
-1.320000000e-02	2.678668558e-01	-4.519467535e-04	1.931697674e-11
-1.330000000e-02	2.678668567e-01	-4.492333398e-04	3.720766204e-11
-1.340000000e-02	2.678668576e-01	-4.465199262e-04	9.499266625e-12
-1.350000000e-02	2.678668583e-01	-4.438065125e-04	1.162178536e-11
-1.360000000e-02	2.678668590e-01	-4.410930990e-04	1.500487445e-11
-1.370000000e-02	2.678668596e-01	-4.383796855e-04	2.423375058e-11
-1.380000000e-02	2.678668601e-01	-4.356662722e-04	1.881191843e-11
-1.390000000e-02	2.678668605e-01	-4.329528588e-04	1.022587735e-11
-1.400000000e-02	2.678668608e-01	-4.302394456e-04	4.956012979e-12
-1.410000000e-02	2.678668611e-01	-4.275260325e-04	2.162513091e-11
-1.420000000e-02	2.678668613e-01	-4.248126194e-04	2.517226587e-11
-1.430000000e-02	2.678668614e-01	-4.220992065e-04	3.049160875e-11
-1.440000000e-02	2.678668614e-01	-4.193857936e-04	9.879110245e-11
-1.450000000e-02	2.678668613e-01	-4.166723809e-04	4.682536161e-12
-1.460000000e-02	2.678668612e-01	-4.139589682e-04	3.132795900e-11
-1.470000000e-02	2.678668609e-01	-4.112455557e-04	4.932157139e-11
-1.480000000e-02	2.678668606e-01	-4.085321433e-04	3.017245020e-12
-1.490000000e-02	2.678668602e-01	-4.058187310e-04	2.126562966e-11
-1.500000000e-02	2.678668597e-01	-4.031053188e-04	1.579205979e-11
-1.510000000e-02	2.678668591e-01	-4.003919068e-04	9.870840106e-12
-1.520000000e-02	2.678668585e-01	-3.976784949e-04	1.324958293e-11
-1.530000000e-02	2.678668578e-01	-3.949650831e-04	3.642896851e-11
-1.540000000e-02	2.678668569e-01	-3.922516715e-04	4.411542540e-12
-1.550000000e-02	2.678668560e-01	-3.895382600e-04	1.783607916e-11
-1.560000000e-02	2.678668551e-01	-3.868248486e-04	7.751091992e-12
-1.570000000e-02	2.678668540e-01	-3.841114374e-04	1.386197030e-11
-1.580000000e-02	2.678668529e-01	-3.813980264e-04	3.024959399e-11
-1.590000000e-02	2.678668516e-01	-3.786846156e-04	2.934817294e-11
-1.600000000e-02	2.678668503e-01	-3.759712049e-04	1.886020047e-11
-1.610000000e-02	2.678668489e-01	-3.732577943e-04	8.169653757e-12
-1.620000000e-02	2.678668475e-01	-3.705443840e-04	3.787079208e-12
-1.630000000e-02	2.678668459e-01	-3.678309738e-04	1.062204223e-11
-1.640000000e-02	2.678668443e-01	-3.651175638e-04	2.267426512e-11
-1.650000000e-02	2.678668425e-01	-3.624041540e-04	1.514338141e-11
-1.660000000e-02	2.678668407e-01	-3.596907444e-04	3.306174740e-11
-1.670000000e-02	2.678668388e-01	-3.569773350e-04	4.558294975e-12
-1.680000000e-02	2.678668369e-01	-3.542639258e-04	4.867538206e-11
-1.690000000e-02	2.678668348e-01	-3.515505168e-04	4.169200601e-11
-1.700000000e-02	2.678668327e-01	-3.488371080e-04	3.292600483e-11
-1.710000000e-02	2.678668305e-01	-3.461236994e-04	1.942723598e-11
-1.720000000e-02	2.678668282e-01	-3.434102910e-04	1.176999871e-11
-1.730000000e-02	2.678668258e-01	-3.406968829e-04	2.994907381e-11
-1.740000000e-02	2.678668233e-01	-3.379834749e-04	6.101724110e-12
-1.750000000e-02	2.678668208e-01	-3.352700672e-04	3.201005476e-11
-1.760000000e-02	2.678668182e-01	-3.325566598e-04	1.279038627e-11
-1.770000000e-02	2.678668155e-01	-3.298432525e-04	1.663276465e-11
-1.780000000e-02	2.678668127e-01	-3.271298455e-04	1.626665278e-11
-1.790000000e-02	2.678668098e-01	-3.244164388e-04	2.173040687e-11
-1.800000000e-02	2.678668068e-01	-3.217030323e-04	3.483942691e-12
-1.810000000e-02	2.678668038e-01	-3.189896261e-04	3.187478079e-11
-1.820000000e-02	2.678668007e-01	-3.162762201e-04	1.058245418e-11
-1.830000000e-02	2.678667975e-01	-3.135628144e-04	2.394683141e-11
-1.840000000e-02	2.678667942e-01	-3.108494089e-04	6.245075551e-11
-1.850000000e-02	2.678667908e-01	-3.081360037e-04	1.333865636e-11
-1.860000000e-02	2.678667873e-01	-3.054225988e-04	3.495283800e-11
-1.870000000e-02	2.678667838e-01	-3.027091942e-04	1.507683622e-11
-1.880000000e-02	2.678667802e-01	-2.999957898e-04	1.060017979e-11
-1.890000000e-02	2.678667765e-01	-2.972823858e-04	7.827818532e-12
-1.900000000e-02	2.678667727e-01	-2.945689820e-04	6.740044548e-12
-1.910000000e-02	2.678667689e-01	-2.918555785e-04	7.422509434e-12
-1.920000000e-02	2.678667649e-01	-2.891421754e-04	1.565272307e-11
-1.930000000e-02	2.678667609e-01	-2.864287725e-04	2.504576191e-11
-1.940000000e-02	2.678667568e-01	-2.837153699e-04	8.897066467e-12
-1.950000000e-02	2.678667526e-01	-2.810019677e-04	2.134494020e-11
-1.960000000e-02	2.678667483e-01	-2.782885658e-04	4.802635153e-12
-1.970000000e-02	2.678667439e-01	-2.755751641e-04	2.804336229e-11
-1.980000000e-02	2.678667395e-01	-2.728617629e-04	1.693205524e-11
-1.990000000e-02	2.678667350e-01	-2.701483619e-04	7.916363717e-12
-2.000000000e-02	2.678667304e-01	-2.674349613e-04	6.307300693e-11
-2.010000000e-02	2.678667257e-01	-2.647215610e-04	9.600369350e-12
-2.020000000e-02	2.678667209e-01	-2.620081611e-04	5.443810031e-12
-2.030000000e-02	2.678667160e-01	-2.592947615e-04	2.127431998e-11
-2.040000000e-02	2.678667111e-01	-2.565813622e-04	4.018125953e-12
-2.050000000e-02	2.678667061e-01	-2.538679633e-04	1.083483566e-11
-2.060000000e-02	2.678667010e-01	-2.511545648e-04	3.074425407e-11
-2.070000000e-02	2.678666958e-01	-2.484411666e-04	1.146504121e-11
-2.080000000e-02	2.678666905e-01	-2.457277688e-04	1.276578938e-11
-2.090000000e-02	2.678666852e-01	-2.430143713e-04	1.781186156e-12
-2.100000000e-02	2.678666798e-01	-2.403009743e-04	1.144631296e-11
-2.110000000e-02	2.678666743e-01	-2.375875776e-04	8.394909433e-12
-2.120000000e-02	2.678666687e-01	-2.348741813e-04	1.171089227e-12
-2.130000000e-02	2.678666630e-01	-2.321607854e-04	1.855608459e-11
-2.140000000e-02	2.678666572e-01	-2.294473899e-04	2.101788906e-11
-2.150000000e-02	2.678666514e-01	-2.267339947e-04	1.523428407e-11
-2.160000000e-02	2.678666455e-01	-2.240206000e-04	4.091890277e-11
-2.170000000e-02	2.678666394e-01	-2.213072057e-04	1.932125668e-11
-2.180000000e-02	2.678666334e-01	-2.185938118e-04	1.573244891e-11
-2.190000000e-02	2.678666272e-01	-2.158804183e-04	4.774226309e-12
-2.200000000e-02	2.678666209e-01	-2.131670252e-04	1.459596812e-11
-2.210000000e-02	2.678666146e-01	-2.104536325e-04	1.539412425e-11
-2.220000000e-02	2.678666082e-01	-2.077402403e-04	1.444038246e-11
-2.230000000e-02	2.678666017e-01	-2.050268485e-04	2.921166632e-11
-2.240000000e-02	2.678665951e-01	-2.023134571e-04	7.394432857e-12
-2.250000000e-02	2.678665884e-01	-1.996000662e-04	1.620938079e-11
-2.260000000e-02	2.678665817e-01	-1.968866757e-04	6.641183890e-12
-2.270000000e-02	2.678665748e-01	-1.941732856e-04	4.930198342e-12
-2.280000000e-02	2.678665679e-01	-1.914598960e-04	6.155401682e-12
-2.290000000e-02	2.678665609e-01	-1.887465069e-04	1.504585711e-11
-2.300000000e-02	2.678665538e-01	-1.860331182e-04	1.852289512e-11
-2.310000000e-02	2.678665467e-01	-1.833197300e-04	8.013460157e-12
-2.320000000e-02	2.678665394e-01	-1.806063422e-04	1.416653181e-11
-2.330000000e-02	2.678665321e-01	-1.778929549e-04	2.759774267e-11
-2.340000000e-02	2.678665247e-01	-1.751795681e-04	1.108351440e-11
-2.350000000e-02	2.678665172e-01	-1.724661818e-04	3.149408681e-11
-2.360000000e-02	2.678665096e-01	-1.697527959e-04	1.078101872e-11
-2.370000000e-02	2.678665020e-01	-1.670394105e-04	1.209162949e-12
-2.380000000e-02	2.678664942e-01	-1.643260257e-04	1.879105819e-11
-2.390000000e-02	2.678664864e-01	-1.616126413e-04	1.299169203e-11
-2.400000000e-02	2.678664785e-01	-1.588992574e-04	1.120520847e-11
-2.410000000e-02	2.678664705e-01	-1.561858740e-04	2.561643500e-12
-2.420000000e-02	2.678664625e-01	-1.534724912e-04	2.646905945e-11
-2.430000000e-02	2.678664543e-01	-1.507591088e-04	2.354736262e-11
-2.440000000e-02	2.678664461e-01	-1.480457270e-04	5.827195536e-11
-2.450000000e-02	2.678664378e-01	-1.453323457e-04	2.800492319e-11
-2.460000000e-02	2.678664294e-01	-1.426189649e-04	2.483926465e-11
-2.470000000e-02	2.678664209e-01	-1.399055846e-04	1.160142167e-10
-2.480000000e-02	2.678664123e-01	-1.371922049e-04	1.106546544e-11
-2.490000000e-02	2.678664037e-01	-1.344788257e-04	1.783537098e-11
-2.500000000e-02	2.678663950e-01	-1.317654471e-04	1.389279509e-11
-2.510000000e-02	2.678663861e-01	-1.290520690e-04	1.134639828e-11
-2.520000000e-02	2.678663773e-01	-1.263386914e-04	8.014413258e-12
-2.530000000e-02	2.678663683e-01	-1.236253144e-04	1.653098375e-11
-2.540000000e-02	2.678663592e-01	-1.209119380e-04	1.645353612e-11
-2.550000000e-02	2.678663501e-01	-1.181985621e-04	2.651881784e-11
-2.560000000e-02	2.678663409e-01	-1.154851868e-04	2.189795607e-12
-2.570000000e-02	2.678663316e-01	-1.127718120e-04	1.967364358e-11
-2.580000000e-02	2.678663222e-01	-1.100584379e-04	4.076454434e-12
-2.590000000e-02	2.678663127e-01	-1.073450643e-04	1.987238151e-11
-2.600000000e-02	2.678663031e-01	-1.046316913e-04	2.481441827e-11
-2.610000000e-02	2.678662935e-01	-1.019183189e-04	8.136660141e-12
-2.620000000e-02	2.678662838e-01	-9.920494705e-05	1.934047215e-11
-2.630000000e-02	2.678662740e-01	-9.649157583e-05	1.871181175e-11
-2.640000000e-02	2.678662641e-01	-9.377820520e-05	8.331118670e-12
-2.650000000e-02	2.678662542e-01	-9.106483518e-05	5.227809893e-12
-2.660000000e-02	2.678662441e-01	-8.835146577e-05	1.780761003e-11
-2.670000000e-02	2.678662340e-01	-8.563809697e-05	1.430145133e-11
-2.680000000e-02	2.678662238e-01	-8.292472878e-05	2.246328242e-11
-2.690000000e-02	2.678662135e-01	-8.021136122e-05	1.662420213e-11
-2.700000000e-02	2.678662031e-01	-7.749799428e-05	5.798588692e-11
-2.710000000e-02	2.678661926e-01	-7.478462798e-05	6.414325360e-12
-2.720000000e-02	2.678661821e-01	-7.207126230e-05	7.490727785e-12
-2.730000000e-02	2.678661715e-01	-6.935789726e-05	1.570796620e-11
-2.740000000e-02	2.678661608e-01	-6.664453287e-05	5.314649419e-11
-2.750000000e-02	2.678661500e-01	-6.393116912e-05	1.237901561e-11
-2.760000000e-02	2.678661391e-01	-6.121780602e-05	3.770270235e-12
-2.770000000e-02	2.678661282e-01	-5.850444358e-05	1.520836647e-11
-2.780000000e-02	2.678661171e-01	-5.579108179e-05	1.977604157e-11
-2.790000000e-02	2.678661060e-01	-5.307772067e-05	1.230787257e-11
-2.800000000e-02	2.678660948e-01	-5.036436021e-05	3.301783180e-11
-2.810000000e-02	2.678660835e-01	-4.765100043e-05	4.356749691e-12
-2.820000000e-02	2.678660722e-01	-4.493764132e-05	7.233986674e-12
-2.830000000e-02	2.678660607e-01	-4.222428289e-05	1.258640927e-11
-2.840000000e-02	2.678660492e-01	-3.951092514e-05	1.258590248e-11
-2.850000000e-02	2.678660376e-01	-3.679756808e-05	1.839223508e-11
-2.860000000e-02	2.678660259e-01	-3.408421171e-05	6.774539674e-12
-2.870000000e-02	2.678660141e-01	-3.137085604e-05	5.474850228e-12
-2.880000000e-02	2.678660022e-01	-2.865750107e-05	1.747662640e-11
-2.890000000e-02	2.678659903e-01	-2.594414680e-05	1.869695584e-11
-2.900000000e-02	2.678659783e-01	-2.323079324e-05	4.505034410e-12
-2.910000000e-02	2.678659662e-01	-2.051744040e-05	1.682053576e-11
-2.920000000e-02	2.678659540e-01	-1.780408827e-05	9.731787488e-12
-2.930000000e-02	2.678659417e-01	-1.509073686e-05	2.349034058e-11
-2.940000000e-02	2.678659293e-01	-1.237738618e-05	2.212161788e-11
-2.950000000e-02	2.678659169e-01	-9.664036223e-06	4.371798013e-12
-2.960000000e-02	2.678659044e-01	-6.950687004e-06	9.360508447e-12
-2.970000000e-02	2.678658918e-01	-4.237338522e-06	3.047486540e-11
-2.980000000e-02	2.678658791e-01	-1.523990782e-06	9.626167088e-12
-2.990000000e-02	2.678658663e-01	1.189356211e-06	6.185274551e-12
-3.000000000e-02	2.678658535e-01	3.902702455e-06	8.343416455e-12
