# Im(epsi1)     Re(omega/c)      Im(omega/c)      Eq(det).Opt det CON kz, R=0.5 \mum, mu_c=0.3, Re(epsi1)=3.90solve_det_conkz_vs_kz.py
0.000000000e+00	2.678524652e-01	-8.100570998e-04	6.466596355e-12
-1.000000000e-04	2.678524770e-01	-8.073438227e-04	7.969008378e-12
-2.000000000e-04	2.678524887e-01	-8.046305451e-04	9.792127568e-12
-3.000000000e-04	2.678525003e-01	-8.019172670e-04	1.672048435e-11
-4.000000000e-04	2.678525119e-01	-7.992039884e-04	2.921520400e-11
-5.000000000e-04	2.678525233e-01	-7.964907094e-04	2.964399840e-11
-6.000000000e-04	2.678525347e-01	-7.937774298e-04	1.074210400e-11
-7.000000000e-04	2.678525460e-01	-7.910641498e-04	3.791083591e-11
-8.000000000e-04	2.678525572e-01	-7.883508693e-04	1.229213328e-11
-9.000000000e-04	2.678525684e-01	-7.856375884e-04	3.804553756e-11
-1.000000000e-03	2.678525794e-01	-7.829243070e-04	8.157817476e-12
-1.100000000e-03	2.678525904e-01	-7.802110251e-04	1.327370392e-11
-1.200000000e-03	2.678526013e-01	-7.774977428e-04	3.319583090e-12
-1.300000000e-03	2.678526121e-01	-7.747844601e-04	1.304001207e-11
-1.400000000e-03	2.678526228e-01	-7.720711769e-04	9.534688018e-12
-1.500000000e-03	2.678526334e-01	-7.693578933e-04	1.052012299e-11
-1.600000000e-03	2.678526440e-01	-7.666446092e-04	2.742809000e-11
-1.700000000e-03	2.678526545e-01	-7.639313247e-04	8.473865614e-12
-1.800000000e-03	2.678526649e-01	-7.612180398e-04	1.560034523e-11
-1.900000000e-03	2.678526752e-01	-7.585047544e-04	8.089740680e-12
-2.000000000e-03	2.678526854e-01	-7.557914687e-04	2.727700658e-11
-2.100000000e-03	2.678526956e-01	-7.530781825e-04	9.909518224e-12
-2.200000000e-03	2.678527056e-01	-7.503648959e-04	3.810770669e-11
-2.300000000e-03	2.678527156e-01	-7.476516089e-04	1.161249877e-11
-2.400000000e-03	2.678527255e-01	-7.449383215e-04	1.827253529e-11
-2.500000000e-03	2.678527353e-01	-7.422250337e-04	1.150644062e-11
-2.600000000e-03	2.678527451e-01	-7.395117455e-04	1.892467266e-11
-2.700000000e-03	2.678527547e-01	-7.367984570e-04	9.519615767e-12
-2.800000000e-03	2.678527643e-01	-7.340851680e-04	9.239850584e-12
-2.900000000e-03	2.678527738e-01	-7.313718787e-04	1.617408456e-11
-3.000000000e-03	2.678527832e-01	-7.286585890e-04	2.101887506e-11
-3.100000000e-03	2.678527925e-01	-7.259452989e-04	2.568412690e-11
-3.200000000e-03	2.678528017e-01	-7.232320084e-04	7.499722895e-12
-3.300000000e-03	2.678528109e-01	-7.205187176e-04	5.619142477e-12
-3.400000000e-03	2.678528200e-01	-7.178054264e-04	2.029958766e-11
-3.500000000e-03	2.678528290e-01	-7.150921349e-04	1.461077283e-11
-3.600000000e-03	2.678528379e-01	-7.123788430e-04	1.880231002e-11
-3.700000000e-03	2.678528467e-01	-7.096655508e-04	2.590844899e-11
-3.800000000e-03	2.678528555e-01	-7.069522582e-04	1.079037605e-11
-3.900000000e-03	2.678528641e-01	-7.042389653e-04	1.447125369e-11
-4.000000000e-03	2.678528727e-01	-7.015256721e-04	1.740738696e-11
-4.100000000e-03	2.678528812e-01	-6.988123785e-04	1.853863678e-11
-4.200000000e-03	2.678528896e-01	-6.960990846e-04	1.153655916e-11
-4.300000000e-03	2.678528979e-01	-6.933857904e-04	7.919104877e-12
-4.400000000e-03	2.678529062e-01	-6.906724959e-04	6.848663814e-12
-4.500000000e-03	2.678529144e-01	-6.879592010e-04	2.219615872e-11
-4.600000000e-03	2.678529224e-01	-6.852459058e-04	1.672053383e-11
-4.700000000e-03	2.678529305e-01	-6.825326104e-04	7.719584286e-12
-4.800000000e-03	2.678529384e-01	-6.798193146e-04	9.889967525e-12
-4.900000000e-03	2.678529462e-01	-6.771060186e-04	1.245495689e-11
-5.000000000e-03	2.678529540e-01	-6.743927222e-04	7.407730107e-12
-5.100000000e-03	2.678529616e-01	-6.716794256e-04	2.596174782e-11
-5.200000000e-03	2.678529692e-01	-6.689661286e-04	1.822736822e-11
-5.300000000e-03	2.678529767e-01	-6.662528314e-04	1.491608814e-11
-5.400000000e-03	2.678529842e-01	-6.635395339e-04	1.352288258e-11
-5.500000000e-03	2.678529915e-01	-6.608262362e-04	3.102159052e-10
-5.600000000e-03	2.678529988e-01	-6.581129382e-04	8.727593971e-12
-5.700000000e-03	2.678530060e-01	-6.553996399e-04	1.244882603e-11
-5.800000000e-03	2.678530131e-01	-6.526863413e-04	1.327661295e-11
-5.900000000e-03	2.678530201e-01	-6.499730425e-04	8.843070013e-12
-6.000000000e-03	2.678530270e-01	-6.472597435e-04	1.723494958e-11
-6.100000000e-03	2.678530339e-01	-6.445464442e-04	6.748934745e-12
-6.200000000e-03	2.678530406e-01	-6.418331446e-04	1.300010082e-11
-6.300000000e-03	2.678530473e-01	-6.391198449e-04	7.666587317e-12
-6.400000000e-03	2.678530539e-01	-6.364065448e-04	7.438538215e-12
-6.500000000e-03	2.678530604e-01	-6.336932446e-04	9.377493376e-12
-6.600000000e-03	2.678530669e-01	-6.309799441e-04	2.121218196e-11
-6.700000000e-03	2.678530732e-01	-6.282666434e-04	4.677392019e-12
-6.800000000e-03	2.678530795e-01	-6.255533425e-04	1.887198474e-11
-6.900000000e-03	2.678530857e-01	-6.228400414e-04	9.231443662e-12
-7.000000000e-03	2.678530918e-01	-6.201267401e-04	1.781187602e-11
-7.100000000e-03	2.678530978e-01	-6.174134386e-04	1.184235826e-11
-7.200000000e-03	2.678531038e-01	-6.147001368e-04	1.454109081e-11
-7.300000000e-03	2.678531096e-01	-6.119868349e-04	1.034734516e-10
-7.400000000e-03	2.678531154e-01	-6.092735328e-04	2.036276969e-11
-7.500000000e-03	2.678531211e-01	-6.065602304e-04	8.871036030e-12
-7.600000000e-03	2.678531267e-01	-6.038469279e-04	1.314796418e-11
-7.700000000e-03	2.678531322e-01	-6.011336253e-04	3.523710036e-12
-7.800000000e-03	2.678531377e-01	-5.984203224e-04	4.164231396e-11
-7.900000000e-03	2.678531431e-01	-5.957070194e-04	1.841615407e-11
-8.000000000e-03	2.678531483e-01	-5.929937162e-04	4.704557322e-11
-8.100000000e-03	2.678531535e-01	-5.902804128e-04	4.877848917e-11
-8.200000000e-03	2.678531587e-01	-5.875671093e-04	1.924021712e-11
-8.300000000e-03	2.678531637e-01	-5.848538057e-04	1.313019850e-11
-8.400000000e-03	2.678531687e-01	-5.821405018e-04	1.637738067e-11
-8.500000000e-03	2.678531735e-01	-5.794271979e-04	5.128495704e-11
-8.600000000e-03	2.678531783e-01	-5.767138938e-04	7.550292073e-11
-8.700000000e-03	2.678531830e-01	-5.740005895e-04	2.537727191e-11
-8.800000000e-03	2.678531876e-01	-5.712872851e-04	1.463802072e-11
-8.900000000e-03	2.678531922e-01	-5.685739806e-04	1.800538047e-11
-9.000000000e-03	2.678531966e-01	-5.658606760e-04	6.982296946e-11
-9.100000000e-03	2.678532010e-01	-5.631473712e-04	7.797910214e-12
-9.200000000e-03	2.678532053e-01	-5.604340664e-04	9.496825770e-12
-9.300000000e-03	2.678532095e-01	-5.577207614e-04	3.152599584e-11
-9.400000000e-03	2.678532137e-01	-5.550074563e-04	1.357137654e-11
-9.500000000e-03	2.678532177e-01	-5.522941511e-04	1.424811227e-11
-9.600000000e-03	2.678532217e-01	-5.495808458e-04	2.411757786e-11
-9.700000000e-03	2.678532256e-01	-5.468675404e-04	1.975057120e-11
-9.800000000e-03	2.678532294e-01	-5.441542349e-04	9.384331835e-12
-9.900000000e-03	2.678532331e-01	-5.414409293e-04	4.534844427e-12
-1.000000000e-02	2.678532367e-01	-5.387276236e-04	7.469609986e-12
-1.010000000e-02	2.678532403e-01	-5.360143179e-04	1.011440508e-11
-1.020000000e-02	2.678532437e-01	-5.333010121e-04	1.429494804e-11
-1.030000000e-02	2.678532471e-01	-5.305877062e-04	1.653557257e-11
-1.040000000e-02	2.678532504e-01	-5.278744002e-04	3.292838556e-11
-1.050000000e-02	2.678532537e-01	-5.251610942e-04	1.386411808e-11
-1.060000000e-02	2.678532568e-01	-5.224477881e-04	1.567062379e-11
-1.070000000e-02	2.678532599e-01	-5.197344820e-04	8.370633587e-12
-1.080000000e-02	2.678532628e-01	-5.170211758e-04	2.135331451e-11
-1.090000000e-02	2.678532657e-01	-5.143078696e-04	3.698854615e-11
-1.100000000e-02	2.678532685e-01	-5.115945633e-04	2.576876789e-11
-1.110000000e-02	2.678532713e-01	-5.088812570e-04	3.040610957e-11
-1.120000000e-02	2.678532739e-01	-5.061679506e-04	1.089929153e-11
-1.130000000e-02	2.678532765e-01	-5.034546443e-04	6.418426701e-12
-1.140000000e-02	2.678532790e-01	-5.007413379e-04	5.384419656e-11
-1.150000000e-02	2.678532814e-01	-4.980280314e-04	1.354797275e-11
-1.160000000e-02	2.678532837e-01	-4.953147250e-04	1.450260554e-11
-1.170000000e-02	2.678532859e-01	-4.926014185e-04	1.218355222e-11
-1.180000000e-02	2.678532881e-01	-4.898881121e-04	7.898721076e-12
-1.190000000e-02	2.678532901e-01	-4.871748056e-04	1.451762087e-11
-1.200000000e-02	2.678532921e-01	-4.844614991e-04	1.268549237e-11
-1.210000000e-02	2.678532940e-01	-4.817481927e-04	2.078816042e-11
-1.220000000e-02	2.678532958e-01	-4.790348862e-04	6.517912606e-12
-1.230000000e-02	2.678532976e-01	-4.763215798e-04	1.950061313e-11
-1.240000000e-02	2.678532992e-01	-4.736082734e-04	1.724747391e-11
-1.250000000e-02	2.678533008e-01	-4.708949669e-04	3.192112522e-11
-1.260000000e-02	2.678533023e-01	-4.681816606e-04	1.470757531e-11
-1.270000000e-02	2.678533037e-01	-4.654683542e-04	1.296274447e-11
-1.280000000e-02	2.678533050e-01	-4.627550479e-04	2.010993051e-11
-1.290000000e-02	2.678533063e-01	-4.600417416e-04	1.646313287e-11
-1.300000000e-02	2.678533074e-01	-4.573284354e-04	1.381435164e-11
-1.310000000e-02	2.678533085e-01	-4.546151292e-04	1.025108580e-11
-1.320000000e-02	2.678533095e-01	-4.519018230e-04	2.767476507e-11
-1.330000000e-02	2.678533104e-01	-4.491885169e-04	2.915489137e-11
-1.340000000e-02	2.678533113e-01	-4.464752109e-04	5.818215202e-12
-1.350000000e-02	2.678533120e-01	-4.437619049e-04	1.200997605e-11
-1.360000000e-02	2.678533127e-01	-4.410485990e-04	2.552164354e-11
-1.370000000e-02	2.678533133e-01	-4.383352932e-04	1.319570630e-11
-1.380000000e-02	2.678533138e-01	-4.356219874e-04	1.932302561e-12
-1.390000000e-02	2.678533142e-01	-4.329086817e-04	1.249203906e-11
-1.400000000e-02	2.678533145e-01	-4.301953761e-04	1.357930237e-11
-1.410000000e-02	2.678533148e-01	-4.274820706e-04	3.123227116e-11
-1.420000000e-02	2.678533150e-01	-4.247687652e-04	8.751092502e-12
-1.430000000e-02	2.678533151e-01	-4.220554598e-04	5.729482987e-11
-1.440000000e-02	2.678533151e-01	-4.193421546e-04	1.070097882e-11
-1.450000000e-02	2.678533150e-01	-4.166288495e-04	2.618412951e-11
-1.460000000e-02	2.678533148e-01	-4.139155445e-04	1.005335220e-11
-1.470000000e-02	2.678533146e-01	-4.112022396e-04	1.001873372e-11
-1.480000000e-02	2.678533143e-01	-4.084889348e-04	3.751768199e-11
-1.490000000e-02	2.678533139e-01	-4.057756301e-04	9.939167477e-12
-1.500000000e-02	2.678533134e-01	-4.030623256e-04	1.194365378e-11
-1.510000000e-02	2.678533128e-01	-4.003490211e-04	8.705494768e-12
-1.520000000e-02	2.678533122e-01	-3.976357169e-04	1.696840046e-11
-1.530000000e-02	2.678533114e-01	-3.949224127e-04	2.635285853e-11
-1.540000000e-02	2.678533106e-01	-3.922091087e-04	7.890899205e-12
-1.550000000e-02	2.678533097e-01	-3.894958049e-04	6.352827573e-11
-1.560000000e-02	2.678533087e-01	-3.867825011e-04	1.648973871e-11
-1.570000000e-02	2.678533077e-01	-3.840691976e-04	3.622638394e-11
-1.580000000e-02	2.678533065e-01	-3.813558942e-04	1.166883083e-11
-1.590000000e-02	2.678533053e-01	-3.786425910e-04	1.494021590e-11
-1.600000000e-02	2.678533040e-01	-3.759292879e-04	1.768297809e-11
-1.610000000e-02	2.678533026e-01	-3.732159850e-04	2.249332802e-11
-1.620000000e-02	2.678533011e-01	-3.705026823e-04	8.386188930e-12
-1.630000000e-02	2.678532996e-01	-3.677893797e-04	5.901815582e-11
-1.640000000e-02	2.678532979e-01	-3.650760774e-04	1.433354318e-11
-1.650000000e-02	2.678532962e-01	-3.623627752e-04	2.237384705e-11
-1.660000000e-02	2.678532944e-01	-3.596494732e-04	1.295043302e-11
-1.670000000e-02	2.678532925e-01	-3.569361714e-04	1.086304256e-11
-1.680000000e-02	2.678532906e-01	-3.542228698e-04	2.244132257e-11
-1.690000000e-02	2.678532885e-01	-3.515095685e-04	1.377286279e-11
-1.700000000e-02	2.678532864e-01	-3.487962673e-04	1.364267888e-11
-1.710000000e-02	2.678532841e-01	-3.460829663e-04	2.276811068e-11
-1.720000000e-02	2.678532818e-01	-3.433696656e-04	2.317243818e-11
-1.730000000e-02	2.678532795e-01	-3.406563650e-04	1.580663057e-11
-1.740000000e-02	2.678532770e-01	-3.379430647e-04	1.141321695e-11
-1.750000000e-02	2.678532745e-01	-3.352297647e-04	3.012693074e-11
-1.760000000e-02	2.678532718e-01	-3.325164648e-04	2.324294777e-11
-1.770000000e-02	2.678532691e-01	-3.298031652e-04	1.304750166e-11
-1.780000000e-02	2.678532663e-01	-3.270898659e-04	1.286846467e-11
-1.790000000e-02	2.678532634e-01	-3.243765667e-04	5.238767435e-11
-1.800000000e-02	2.678532605e-01	-3.216632679e-04	9.419839957e-12
-1.810000000e-02	2.678532574e-01	-3.189499693e-04	8.279524154e-12
-1.820000000e-02	2.678532543e-01	-3.162366709e-04	8.397755139e-12
-1.830000000e-02	2.678532511e-01	-3.135233728e-04	7.454737618e-12
-1.840000000e-02	2.678532478e-01	-3.108100750e-04	1.104720684e-11
-1.850000000e-02	2.678532445e-01	-3.080967774e-04	2.965495700e-11
-1.860000000e-02	2.678532410e-01	-3.053834802e-04	1.103515862e-11
-1.870000000e-02	2.678532375e-01	-3.026701832e-04	2.672502560e-11
-1.880000000e-02	2.678532339e-01	-2.999568864e-04	9.730799019e-12
-1.890000000e-02	2.678532302e-01	-2.972435900e-04	1.250131940e-11
-1.900000000e-02	2.678532264e-01	-2.945302939e-04	1.048991141e-11
-1.910000000e-02	2.678532225e-01	-2.918169980e-04	9.424606627e-12
-1.920000000e-02	2.678532186e-01	-2.891037025e-04	9.532257315e-12
-1.930000000e-02	2.678532145e-01	-2.863904072e-04	2.137015438e-11
-1.940000000e-02	2.678532104e-01	-2.836771123e-04	2.049926750e-11
-1.950000000e-02	2.678532062e-01	-2.809638177e-04	6.851322216e-11
-1.960000000e-02	2.678532019e-01	-2.782505234e-04	6.981751254e-12
-1.970000000e-02	2.678531976e-01	-2.755372294e-04	2.377911115e-11
-1.980000000e-02	2.678531931e-01	-2.728239357e-04	3.069084215e-11
-1.990000000e-02	2.678531886e-01	-2.701106424e-04	1.109054090e-11
-2.000000000e-02	2.678531840e-01	-2.673973494e-04	7.649132663e-12
-2.010000000e-02	2.678531793e-01	-2.646840568e-04	8.555960633e-12
-2.020000000e-02	2.678531745e-01	-2.619707645e-04	1.769541027e-11
-2.030000000e-02	2.678531697e-01	-2.592574725e-04	7.145681529e-12
-2.040000000e-02	2.678531648e-01	-2.565441809e-04	1.354624678e-11
-2.050000000e-02	2.678531597e-01	-2.538308896e-04	3.005196596e-11
-2.060000000e-02	2.678531546e-01	-2.511175987e-04	1.448834285e-11
-2.070000000e-02	2.678531495e-01	-2.484043081e-04	1.216098885e-11
-2.080000000e-02	2.678531442e-01	-2.456910180e-04	3.185466529e-11
-2.090000000e-02	2.678531388e-01	-2.429777282e-04	3.844812179e-11
-2.100000000e-02	2.678531334e-01	-2.402644387e-04	1.004197844e-11
-2.110000000e-02	2.678531279e-01	-2.375511497e-04	7.754251873e-12
-2.120000000e-02	2.678531223e-01	-2.348378610e-04	1.233437568e-11
-2.130000000e-02	2.678531166e-01	-2.321245727e-04	8.379558084e-11
-2.140000000e-02	2.678531109e-01	-2.294112848e-04	1.027221253e-11
-2.150000000e-02	2.678531050e-01	-2.266979973e-04	1.409131319e-11
-2.160000000e-02	2.678530991e-01	-2.239847102e-04	2.556719336e-11
-2.170000000e-02	2.678530931e-01	-2.212714235e-04	7.545669724e-12
-2.180000000e-02	2.678530870e-01	-2.185581372e-04	2.653530077e-11
-2.190000000e-02	2.678530808e-01	-2.158448514e-04	9.866483143e-12
-2.200000000e-02	2.678530746e-01	-2.131315659e-04	1.234130135e-11
-2.210000000e-02	2.678530682e-01	-2.104182809e-04	1.049534743e-11
-2.220000000e-02	2.678530618e-01	-2.077049963e-04	7.217486441e-12
-2.230000000e-02	2.678530553e-01	-2.049917121e-04	1.107941120e-11
-2.240000000e-02	2.678530487e-01	-2.022784283e-04	1.802123926e-11
-2.250000000e-02	2.678530420e-01	-1.995651450e-04	1.153448567e-11
-2.260000000e-02	2.678530353e-01	-1.968518622e-04	9.894726395e-12
-2.270000000e-02	2.678530285e-01	-1.941385797e-04	2.651523572e-11
-2.280000000e-02	2.678530215e-01	-1.914252978e-04	1.934088689e-11
-2.290000000e-02	2.678530146e-01	-1.887120162e-04	6.475356476e-12
-2.300000000e-02	2.678530075e-01	-1.859987352e-04	2.413553916e-11
-2.310000000e-02	2.678530003e-01	-1.832854546e-04	1.243860474e-11
-2.320000000e-02	2.678529931e-01	-1.805721745e-04	5.848553997e-11
-2.330000000e-02	2.678529857e-01	-1.778588948e-04	3.176072065e-11
-2.340000000e-02	2.678529783e-01	-1.751456156e-04	8.500557303e-12
-2.350000000e-02	2.678529708e-01	-1.724323369e-04	1.747009575e-11
-2.360000000e-02	2.678529633e-01	-1.697190587e-04	7.236296840e-12
-2.370000000e-02	2.678529556e-01	-1.670057809e-04	3.763633205e-11
-2.380000000e-02	2.678529479e-01	-1.642925037e-04	6.006277142e-12
-2.390000000e-02	2.678529400e-01	-1.615792270e-04	1.033838067e-11
-2.400000000e-02	2.678529321e-01	-1.588659507e-04	4.869104617e-12
-2.410000000e-02	2.678529242e-01	-1.561526750e-04	6.316135002e-12
-2.420000000e-02	2.678529161e-01	-1.534393997e-04	6.600401375e-12
-2.430000000e-02	2.678529079e-01	-1.507261250e-04	8.979054215e-12
-2.440000000e-02	2.678528997e-01	-1.480128508e-04	3.295389917e-11
-2.450000000e-02	2.678528914e-01	-1.452995771e-04	1.222752274e-11
-2.460000000e-02	2.678528830e-01	-1.425863040e-04	4.996989711e-11
-2.470000000e-02	2.678528745e-01	-1.398730313e-04	2.600720888e-11
-2.480000000e-02	2.678528659e-01	-1.371597592e-04	6.599438512e-12
-2.490000000e-02	2.678528573e-01	-1.344464877e-04	9.196691327e-12
-2.500000000e-02	2.678528486e-01	-1.317332167e-04	9.363650389e-12
-2.510000000e-02	2.678528398e-01	-1.290199462e-04	7.317675923e-12
-2.520000000e-02	2.678528309e-01	-1.263066763e-04	3.623859425e-12
-2.530000000e-02	2.678528219e-01	-1.235934069e-04	1.678176872e-11
-2.540000000e-02	2.678528128e-01	-1.208801381e-04	1.532339746e-11
-2.550000000e-02	2.678528037e-01	-1.181668698e-04	1.394568437e-11
-2.560000000e-02	2.678527945e-01	-1.154536022e-04	1.410365536e-11
-2.570000000e-02	2.678527852e-01	-1.127403350e-04	7.747770935e-12
-2.580000000e-02	2.678527758e-01	-1.100270685e-04	2.945199740e-11
-2.590000000e-02	2.678527663e-01	-1.073138026e-04	7.439608665e-12
-2.600000000e-02	2.678527568e-01	-1.046005372e-04	4.883358766e-12
-2.610000000e-02	2.678527471e-01	-1.018872724e-04	2.069720238e-11
-2.620000000e-02	2.678527374e-01	-9.917400822e-05	2.671943342e-11
-2.630000000e-02	2.678527276e-01	-9.646074462e-05	7.097055898e-12
-2.640000000e-02	2.678527177e-01	-9.374748162e-05	3.658405204e-11
-2.650000000e-02	2.678527078e-01	-9.103421923e-05	8.976119723e-12
-2.660000000e-02	2.678526977e-01	-8.832095745e-05	1.953506893e-11
-2.670000000e-02	2.678526876e-01	-8.560769628e-05	1.453517042e-11
-2.680000000e-02	2.678526774e-01	-8.289443573e-05	8.630060798e-12
-2.690000000e-02	2.678526671e-01	-8.018117580e-05	1.052297964e-11
-2.700000000e-02	2.678526567e-01	-7.746791649e-05	2.465653014e-11
-2.710000000e-02	2.678526462e-01	-7.475465781e-05	1.253088129e-11
-2.720000000e-02	2.678526357e-01	-7.204139977e-05	1.978492614e-11
-2.730000000e-02	2.678526251e-01	-6.932814236e-05	3.876776175e-11
-2.740000000e-02	2.678526144e-01	-6.661488560e-05	5.951800296e-12
-2.750000000e-02	2.678526036e-01	-6.390162948e-05	7.781666074e-12
-2.760000000e-02	2.678525927e-01	-6.118837401e-05	1.034619292e-11
-2.770000000e-02	2.678525818e-01	-5.847511919e-05	1.267162190e-11
-2.780000000e-02	2.678525707e-01	-5.576186504e-05	9.589888078e-12
-2.790000000e-02	2.678525596e-01	-5.304861155e-05	2.779100665e-11
-2.800000000e-02	2.678525484e-01	-5.033535872e-05	1.041465371e-11
-2.810000000e-02	2.678525371e-01	-4.762210657e-05	8.791592941e-11
-2.820000000e-02	2.678525258e-01	-4.490885509e-05	1.304430234e-11
-2.830000000e-02	2.678525143e-01	-4.219560429e-05	2.424502974e-11
-2.840000000e-02	2.678525028e-01	-3.948235417e-05	2.255688521e-11
-2.850000000e-02	2.678524912e-01	-3.676910474e-05	5.823137868e-12
-2.860000000e-02	2.678524795e-01	-3.405585600e-05	1.109303810e-11
-2.870000000e-02	2.678524677e-01	-3.134260796e-05	1.563859089e-11
-2.880000000e-02	2.678524558e-01	-2.862936062e-05	4.776052859e-11
-2.890000000e-02	2.678524439e-01	-2.591611398e-05	2.137036499e-11
-2.900000000e-02	2.678524319e-01	-2.320286806e-05	1.030487495e-11
-2.910000000e-02	2.678524198e-01	-2.048962284e-05	4.119841920e-12
-2.920000000e-02	2.678524076e-01	-1.777637834e-05	2.231392981e-11
-2.930000000e-02	2.678523953e-01	-1.506313457e-05	1.357205725e-11
-2.940000000e-02	2.678523829e-01	-1.234989152e-05	1.907568269e-11
-2.950000000e-02	2.678523705e-01	-9.636649193e-06	1.342227303e-11
-2.960000000e-02	2.678523580e-01	-6.923407604e-06	7.111446709e-12
-2.970000000e-02	2.678523454e-01	-4.210166755e-06	3.426293938e-11
-2.980000000e-02	2.678523327e-01	-1.496926645e-06	1.241168411e-11
-2.990000000e-02	2.678523199e-01	1.216312718e-06	1.149338937e-11
-3.000000000e-02	2.678523071e-01	3.929551330e-06	1.233996169e-11
