# Im(epsi1)     Re(omega/c)      Im(omega/c)      Eq(det).Opt det CON kz, R=0.5 \mum, mu_c=0.3, Re(epsi1)=3.90solve_det_conkz_vs_kz.py
0.000000000e+00	2.678472097e-01	-8.100341576e-04	5.413273789e-12
-1.000000000e-04	2.678472215e-01	-8.073209223e-04	2.132353370e-11
-2.000000000e-04	2.678472332e-01	-8.046076864e-04	1.140469870e-11
-3.000000000e-04	2.678472449e-01	-8.018944501e-04	9.907632741e-12
-4.000000000e-04	2.678472564e-01	-7.991812132e-04	3.947882013e-12
-5.000000000e-04	2.678472679e-01	-7.964679759e-04	1.175963843e-11
-6.000000000e-04	2.678472793e-01	-7.937547381e-04	3.355152280e-11
-7.000000000e-04	2.678472906e-01	-7.910414999e-04	8.535528330e-12
-8.000000000e-04	2.678473018e-01	-7.883282612e-04	6.015484780e-12
-9.000000000e-04	2.678473129e-01	-7.856150220e-04	1.251020648e-11
-1.000000000e-03	2.678473240e-01	-7.829017823e-04	7.407876478e-12
-1.100000000e-03	2.678473349e-01	-7.801885422e-04	1.310192668e-11
-1.200000000e-03	2.678473458e-01	-7.774753017e-04	1.045031306e-11
-1.300000000e-03	2.678473566e-01	-7.747620607e-04	3.221022365e-11
-1.400000000e-03	2.678473673e-01	-7.720488192e-04	1.373759688e-11
-1.500000000e-03	2.678473780e-01	-7.693355773e-04	3.971697450e-11
-1.600000000e-03	2.678473885e-01	-7.666223350e-04	1.433013638e-11
-1.700000000e-03	2.678473990e-01	-7.639090923e-04	1.451164530e-11
-1.800000000e-03	2.678474094e-01	-7.611958491e-04	1.024859132e-11
-1.900000000e-03	2.678474197e-01	-7.584826055e-04	2.186853648e-11
-2.000000000e-03	2.678474300e-01	-7.557693615e-04	6.153560047e-12
-2.100000000e-03	2.678474401e-01	-7.530561170e-04	9.186037187e-11
-2.200000000e-03	2.678474502e-01	-7.503428722e-04	7.397797977e-12
-2.300000000e-03	2.678474601e-01	-7.476296270e-04	9.452587398e-12
-2.400000000e-03	2.678474700e-01	-7.449163813e-04	3.291965641e-11
-2.500000000e-03	2.678474799e-01	-7.422031353e-04	6.198537056e-11
-2.600000000e-03	2.678474896e-01	-7.394898889e-04	2.243152744e-11
-2.700000000e-03	2.678474992e-01	-7.367766420e-04	1.469201317e-11
-2.800000000e-03	2.678475088e-01	-7.340633948e-04	1.257580318e-11
-2.900000000e-03	2.678475183e-01	-7.313501472e-04	1.242839288e-11
-3.000000000e-03	2.678475277e-01	-7.286368993e-04	3.546388081e-11
-3.100000000e-03	2.678475370e-01	-7.259236510e-04	8.893153537e-11
-3.200000000e-03	2.678475463e-01	-7.232104022e-04	1.649778969e-11
-3.300000000e-03	2.678475554e-01	-7.204971532e-04	1.368388578e-11
-3.400000000e-03	2.678475645e-01	-7.177839038e-04	9.704270215e-12
-3.500000000e-03	2.678475735e-01	-7.150706540e-04	7.726812149e-11
-3.600000000e-03	2.678475824e-01	-7.123574039e-04	6.629066009e-12
-3.700000000e-03	2.678475912e-01	-7.096441534e-04	1.287526864e-11
-3.800000000e-03	2.678476000e-01	-7.069309026e-04	1.190195931e-11
-3.900000000e-03	2.678476086e-01	-7.042176514e-04	1.252955736e-11
-4.000000000e-03	2.678476172e-01	-7.015043999e-04	1.139250738e-11
-4.100000000e-03	2.678476257e-01	-6.987911481e-04	2.602982103e-11
-4.200000000e-03	2.678476341e-01	-6.960778959e-04	1.330045599e-11
-4.300000000e-03	2.678476425e-01	-6.933646435e-04	7.299174305e-12
-4.400000000e-03	2.678476507e-01	-6.906513907e-04	1.170870531e-11
-4.500000000e-03	2.678476589e-01	-6.879381376e-04	1.050998009e-11
-4.600000000e-03	2.678476670e-01	-6.852248842e-04	1.577017569e-11
-4.700000000e-03	2.678476750e-01	-6.825116305e-04	2.326907951e-11
-4.800000000e-03	2.678476829e-01	-6.797983765e-04	1.249148812e-11
-4.900000000e-03	2.678476907e-01	-6.770851221e-04	2.379808271e-11
-5.000000000e-03	2.678476985e-01	-6.743718675e-04	1.177542340e-10
-5.100000000e-03	2.678477062e-01	-6.716586126e-04	1.781602555e-11
-5.200000000e-03	2.678477138e-01	-6.689453575e-04	4.812114598e-12
-5.300000000e-03	2.678477213e-01	-6.662321020e-04	5.942364924e-11
-5.400000000e-03	2.678477287e-01	-6.635188463e-04	8.953966329e-12
-5.500000000e-03	2.678477360e-01	-6.608055903e-04	1.499009361e-11
-5.600000000e-03	2.678477433e-01	-6.580923340e-04	1.027338680e-11
-5.700000000e-03	2.678477505e-01	-6.553790775e-04	9.434365246e-12
-5.800000000e-03	2.678477576e-01	-6.526658207e-04	1.167106805e-11
-5.900000000e-03	2.678477646e-01	-6.499525636e-04	2.111047866e-11
-6.000000000e-03	2.678477715e-01	-6.472393063e-04	1.803454989e-11
-6.100000000e-03	2.678477784e-01	-6.445260488e-04	1.214716537e-11
-6.200000000e-03	2.678477851e-01	-6.418127910e-04	2.799284117e-11
-6.300000000e-03	2.678477918e-01	-6.390995330e-04	1.774414737e-11
-6.400000000e-03	2.678477984e-01	-6.363862747e-04	8.132829496e-12
-6.500000000e-03	2.678478049e-01	-6.336730162e-04	2.917757588e-11
-6.600000000e-03	2.678478114e-01	-6.309597575e-04	2.772713488e-11
-6.700000000e-03	2.678478177e-01	-6.282464985e-04	1.239194518e-11
-6.800000000e-03	2.678478240e-01	-6.255332394e-04	1.881259785e-11
-6.900000000e-03	2.678478302e-01	-6.228199800e-04	1.182479213e-11
-7.000000000e-03	2.678478363e-01	-6.201067204e-04	1.440943609e-11
-7.100000000e-03	2.678478423e-01	-6.173934607e-04	1.126357155e-11
-7.200000000e-03	2.678478483e-01	-6.146802007e-04	1.075252575e-11
-7.300000000e-03	2.678478541e-01	-6.119669405e-04	1.135009021e-11
-7.400000000e-03	2.678478599e-01	-6.092536801e-04	1.220061250e-11
-7.500000000e-03	2.678478656e-01	-6.065404196e-04	5.694287596e-12
-7.600000000e-03	2.678478712e-01	-6.038271588e-04	1.518855319e-11
-7.700000000e-03	2.678478768e-01	-6.011138979e-04	8.174406044e-11
-7.800000000e-03	2.678478822e-01	-5.984006368e-04	7.386307425e-12
-7.900000000e-03	2.678478876e-01	-5.956873755e-04	2.087111085e-11
-8.000000000e-03	2.678478929e-01	-5.929741141e-04	1.262881719e-11
-8.100000000e-03	2.678478981e-01	-5.902608525e-04	6.281092986e-12
-8.200000000e-03	2.678479032e-01	-5.875475907e-04	1.369248056e-11
-8.300000000e-03	2.678479082e-01	-5.848343288e-04	2.183094148e-11
-8.400000000e-03	2.678479132e-01	-5.821210667e-04	2.304233989e-11
-8.500000000e-03	2.678479180e-01	-5.794078045e-04	2.229090302e-11
-8.600000000e-03	2.678479228e-01	-5.766945421e-04	2.498931368e-11
-8.700000000e-03	2.678479275e-01	-5.739812796e-04	4.877297908e-11
-8.800000000e-03	2.678479322e-01	-5.712680170e-04	4.653138831e-12
-8.900000000e-03	2.678479367e-01	-5.685547543e-04	1.135254299e-11
-9.000000000e-03	2.678479412e-01	-5.658414914e-04	3.535357078e-12
-9.100000000e-03	2.678479455e-01	-5.631282284e-04	9.634522990e-12
-9.200000000e-03	2.678479498e-01	-5.604149652e-04	9.392617169e-12
-9.300000000e-03	2.678479540e-01	-5.577017020e-04	7.689024669e-12
-9.400000000e-03	2.678479582e-01	-5.549884387e-04	7.306452537e-11
-9.500000000e-03	2.678479622e-01	-5.522751752e-04	1.067748845e-11
-9.600000000e-03	2.678479662e-01	-5.495619117e-04	8.303983394e-12
-9.700000000e-03	2.678479701e-01	-5.468486480e-04	7.169570586e-11
-9.800000000e-03	2.678479739e-01	-5.441353843e-04	1.414125569e-11
-9.900000000e-03	2.678479776e-01	-5.414221204e-04	5.577596451e-11
-1.000000000e-02	2.678479812e-01	-5.387088565e-04	1.267070565e-11
-1.010000000e-02	2.678479848e-01	-5.359955925e-04	1.498245672e-11
-1.020000000e-02	2.678479882e-01	-5.332823285e-04	3.582858281e-11
-1.030000000e-02	2.678479916e-01	-5.305690643e-04	2.274596216e-11
-1.040000000e-02	2.678479949e-01	-5.278558001e-04	1.492008808e-11
-1.050000000e-02	2.678479982e-01	-5.251425358e-04	1.062233571e-11
-1.060000000e-02	2.678480013e-01	-5.224292715e-04	2.003407874e-11
-1.070000000e-02	2.678480044e-01	-5.197160071e-04	2.701167672e-11
-1.080000000e-02	2.678480073e-01	-5.170027427e-04	1.020433581e-11
-1.090000000e-02	2.678480102e-01	-5.142894782e-04	1.308419858e-11
-1.100000000e-02	2.678480130e-01	-5.115762137e-04	3.196308699e-11
-1.110000000e-02	2.678480158e-01	-5.088629491e-04	1.970579310e-11
-1.120000000e-02	2.678480184e-01	-5.061496845e-04	3.312412151e-11
-1.130000000e-02	2.678480210e-01	-5.034364199e-04	1.965556468e-11
-1.140000000e-02	2.678480235e-01	-5.007231553e-04	7.862398404e-12
-1.150000000e-02	2.678480258e-01	-4.980098906e-04	3.396400087e-11
-1.160000000e-02	2.678480282e-01	-4.952966259e-04	9.209042821e-12
-1.170000000e-02	2.678480304e-01	-4.925833612e-04	1.144617190e-11
-1.180000000e-02	2.678480326e-01	-4.898700965e-04	1.475736759e-11
-1.190000000e-02	2.678480346e-01	-4.871568318e-04	1.208811047e-11
-1.200000000e-02	2.678480366e-01	-4.844435671e-04	1.425005848e-11
-1.210000000e-02	2.678480385e-01	-4.817303024e-04	1.671700801e-11
-1.220000000e-02	2.678480403e-01	-4.790170376e-04	1.733735413e-11
-1.230000000e-02	2.678480421e-01	-4.763037730e-04	8.923516085e-12
-1.240000000e-02	2.678480437e-01	-4.735905083e-04	6.985949838e-12
-1.250000000e-02	2.678480453e-01	-4.708772436e-04	8.106536339e-12
-1.260000000e-02	2.678480468e-01	-4.681639790e-04	1.225523991e-11
-1.270000000e-02	2.678480482e-01	-4.654507144e-04	1.835543502e-11
-1.280000000e-02	2.678480495e-01	-4.627374498e-04	6.418893723e-12
-1.290000000e-02	2.678480508e-01	-4.600241853e-04	1.739904821e-11
-1.300000000e-02	2.678480519e-01	-4.573109208e-04	1.969802835e-11
-1.310000000e-02	2.678480530e-01	-4.545976564e-04	1.080823982e-11
-1.320000000e-02	2.678480540e-01	-4.518843920e-04	1.102083363e-11
-1.330000000e-02	2.678480549e-01	-4.491711276e-04	4.551441762e-11
-1.340000000e-02	2.678480558e-01	-4.464578633e-04	1.278090157e-11
-1.350000000e-02	2.678480565e-01	-4.437445991e-04	1.026982428e-11
-1.360000000e-02	2.678480572e-01	-4.410313349e-04	7.521861708e-12
-1.370000000e-02	2.678480578e-01	-4.383180709e-04	6.537121743e-11
-1.380000000e-02	2.678480583e-01	-4.356048068e-04	1.044874231e-11
-1.390000000e-02	2.678480587e-01	-4.328915429e-04	8.660570089e-12
-1.400000000e-02	2.678480590e-01	-4.301782791e-04	9.415566842e-12
-1.410000000e-02	2.678480593e-01	-4.274650153e-04	5.336698275e-12
-1.420000000e-02	2.678480595e-01	-4.247517516e-04	3.217740144e-11
-1.430000000e-02	2.678480595e-01	-4.220384881e-04	7.041385843e-12
-1.440000000e-02	2.678480596e-01	-4.193252246e-04	1.600040891e-11
-1.450000000e-02	2.678480595e-01	-4.166119612e-04	1.709449456e-11
-1.460000000e-02	2.678480593e-01	-4.138986979e-04	2.271781198e-11
-1.470000000e-02	2.678480591e-01	-4.111854348e-04	1.048267035e-11
-1.480000000e-02	2.678480588e-01	-4.084721717e-04	2.863089298e-11
-1.490000000e-02	2.678480584e-01	-4.057589088e-04	1.627857964e-11
-1.500000000e-02	2.678480579e-01	-4.030456460e-04	1.613570688e-11
-1.510000000e-02	2.678480573e-01	-4.003323834e-04	1.198913627e-11
-1.520000000e-02	2.678480567e-01	-3.976191208e-04	1.185262344e-11
-1.530000000e-02	2.678480559e-01	-3.949058585e-04	1.522776937e-11
-1.540000000e-02	2.678480551e-01	-3.921925962e-04	1.568226297e-11
-1.550000000e-02	2.678480542e-01	-3.894793341e-04	5.852208020e-11
-1.560000000e-02	2.678480532e-01	-3.867660721e-04	6.265588364e-12
-1.570000000e-02	2.678480522e-01	-3.840528103e-04	9.277258596e-12
-1.580000000e-02	2.678480510e-01	-3.813395487e-04	4.046962418e-11
-1.590000000e-02	2.678480498e-01	-3.786262872e-04	4.176169528e-11
-1.600000000e-02	2.678480485e-01	-3.759130259e-04	2.106148121e-11
-1.610000000e-02	2.678480471e-01	-3.731997647e-04	1.526409842e-11
-1.620000000e-02	2.678480456e-01	-3.704865038e-04	4.847992964e-12
-1.630000000e-02	2.678480441e-01	-3.677732430e-04	1.691273103e-11
-1.640000000e-02	2.678480424e-01	-3.650599824e-04	9.223814509e-12
-1.650000000e-02	2.678480407e-01	-3.623467220e-04	5.296381825e-11
-1.660000000e-02	2.678480389e-01	-3.596334617e-04	2.640715430e-11
-1.670000000e-02	2.678480370e-01	-3.569202017e-04	1.728730920e-11
-1.680000000e-02	2.678480350e-01	-3.542069419e-04	7.955200305e-12
-1.690000000e-02	2.678480330e-01	-3.514936822e-04	7.547798638e-12
-1.700000000e-02	2.678480308e-01	-3.487804228e-04	1.442587612e-11
-1.710000000e-02	2.678480286e-01	-3.460671636e-04	3.597162211e-11
-1.720000000e-02	2.678480263e-01	-3.433539046e-04	1.070740164e-11
-1.730000000e-02	2.678480239e-01	-3.406406458e-04	1.193173894e-11
-1.740000000e-02	2.678480215e-01	-3.379273873e-04	6.769828385e-12
-1.750000000e-02	2.678480189e-01	-3.352141289e-04	1.189769554e-11
-1.760000000e-02	2.678480163e-01	-3.325008709e-04	1.105416755e-10
-1.770000000e-02	2.678480136e-01	-3.297876130e-04	1.648971793e-11
-1.780000000e-02	2.678480108e-01	-3.270743554e-04	2.265458153e-11
-1.790000000e-02	2.678480079e-01	-3.243610980e-04	8.404991553e-12
-1.800000000e-02	2.678480050e-01	-3.216478409e-04	1.133218746e-11
-1.810000000e-02	2.678480019e-01	-3.189345841e-04	6.060005146e-12
-1.820000000e-02	2.678479988e-01	-3.162213275e-04	1.734164413e-11
-1.830000000e-02	2.678479956e-01	-3.135080711e-04	4.909853916e-12
-1.840000000e-02	2.678479923e-01	-3.107948150e-04	2.757142488e-11
-1.850000000e-02	2.678479889e-01	-3.080815592e-04	1.267657158e-11
-1.860000000e-02	2.678479855e-01	-3.053683037e-04	8.166118545e-12
-1.870000000e-02	2.678479819e-01	-3.026550485e-04	6.641452722e-12
-1.880000000e-02	2.678479783e-01	-2.999417935e-04	7.207902236e-12
-1.890000000e-02	2.678479746e-01	-2.972285388e-04	1.207549042e-11
-1.900000000e-02	2.678479708e-01	-2.945152844e-04	7.675246979e-12
-1.910000000e-02	2.678479670e-01	-2.918020303e-04	1.146500100e-11
-1.920000000e-02	2.678479630e-01	-2.890887766e-04	9.301762241e-12
-1.930000000e-02	2.678479590e-01	-2.863755231e-04	1.552842634e-11
-1.940000000e-02	2.678479549e-01	-2.836622699e-04	3.484989092e-11
-1.950000000e-02	2.678479507e-01	-2.809490170e-04	7.622473378e-12
-1.960000000e-02	2.678479464e-01	-2.782357645e-04	1.537391686e-11
-1.970000000e-02	2.678479421e-01	-2.755225122e-04	5.397346026e-12
-1.980000000e-02	2.678479376e-01	-2.728092603e-04	1.187837541e-11
-1.990000000e-02	2.678479331e-01	-2.700960088e-04	5.692751247e-12
-2.000000000e-02	2.678479285e-01	-2.673827575e-04	2.506523068e-11
-2.010000000e-02	2.678479238e-01	-2.646695066e-04	5.153175476e-12
-2.020000000e-02	2.678479190e-01	-2.619562561e-04	7.668844105e-12
-2.030000000e-02	2.678479142e-01	-2.592430058e-04	2.468721396e-11
-2.040000000e-02	2.678479092e-01	-2.565297560e-04	1.240566298e-11
-2.050000000e-02	2.678479042e-01	-2.538165065e-04	1.486246067e-11
-2.060000000e-02	2.678478991e-01	-2.511032573e-04	2.183870795e-11
-2.070000000e-02	2.678478939e-01	-2.483900085e-04	1.002382632e-11
-2.080000000e-02	2.678478887e-01	-2.456767601e-04	1.215802360e-11
-2.090000000e-02	2.678478833e-01	-2.429635120e-04	1.201133565e-11
-2.100000000e-02	2.678478779e-01	-2.402502643e-04	2.434406705e-11
-2.110000000e-02	2.678478724e-01	-2.375370170e-04	1.171001332e-11
-2.120000000e-02	2.678478668e-01	-2.348237701e-04	1.298960876e-11
-2.130000000e-02	2.678478611e-01	-2.321105236e-04	1.283788032e-11
-2.140000000e-02	2.678478553e-01	-2.293972774e-04	1.191612070e-11
-2.150000000e-02	2.678478495e-01	-2.266840317e-04	5.103901578e-11
-2.160000000e-02	2.678478436e-01	-2.239707864e-04	1.567186254e-11
-2.170000000e-02	2.678478375e-01	-2.212575414e-04	2.290912736e-11
-2.180000000e-02	2.678478315e-01	-2.185442969e-04	7.031954685e-12
-2.190000000e-02	2.678478253e-01	-2.158310528e-04	1.408400078e-11
-2.200000000e-02	2.678478190e-01	-2.131178091e-04	3.093776186e-11
-2.210000000e-02	2.678478127e-01	-2.104045658e-04	1.328690031e-11
-2.220000000e-02	2.678478063e-01	-2.076913229e-04	5.354991358e-12
-2.230000000e-02	2.678477998e-01	-2.049780805e-04	8.575345654e-12
-2.240000000e-02	2.678477932e-01	-2.022648385e-04	9.127367424e-12
-2.250000000e-02	2.678477865e-01	-1.995515969e-04	4.011735040e-11
-2.260000000e-02	2.678477798e-01	-1.968383558e-04	1.795125490e-11
-2.270000000e-02	2.678477729e-01	-1.941251152e-04	2.890921205e-11
-2.280000000e-02	2.678477660e-01	-1.914118749e-04	1.579229324e-11
-2.290000000e-02	2.678477590e-01	-1.886986352e-04	2.681216389e-11
-2.300000000e-02	2.678477519e-01	-1.859853959e-04	1.542818750e-11
-2.310000000e-02	2.678477448e-01	-1.832721570e-04	1.384060776e-11
-2.320000000e-02	2.678477375e-01	-1.805589186e-04	1.630948870e-11
-2.330000000e-02	2.678477302e-01	-1.778456807e-04	5.903547460e-12
-2.340000000e-02	2.678477228e-01	-1.751324433e-04	6.446110353e-12
-2.350000000e-02	2.678477153e-01	-1.724192064e-04	2.072647209e-11
-2.360000000e-02	2.678477077e-01	-1.697059699e-04	1.833754145e-11
-2.370000000e-02	2.678477001e-01	-1.669927339e-04	1.370818923e-11
-2.380000000e-02	2.678476923e-01	-1.642794984e-04	9.839012474e-12
-2.390000000e-02	2.678476845e-01	-1.615662634e-04	1.147288043e-11
-2.400000000e-02	2.678476766e-01	-1.588530289e-04	1.210074693e-11
-2.410000000e-02	2.678476686e-01	-1.561397949e-04	2.083938399e-11
-2.420000000e-02	2.678476606e-01	-1.534265615e-04	1.922474181e-11
-2.430000000e-02	2.678476524e-01	-1.507133285e-04	1.599832127e-11
-2.440000000e-02	2.678476442e-01	-1.480000960e-04	1.268899246e-11
-2.450000000e-02	2.678476358e-01	-1.452868641e-04	8.454130651e-12
-2.460000000e-02	2.678476275e-01	-1.425736327e-04	1.210735459e-11
-2.470000000e-02	2.678476190e-01	-1.398604018e-04	1.643457329e-11
-2.480000000e-02	2.678476104e-01	-1.371471715e-04	3.669478815e-11
-2.490000000e-02	2.678476018e-01	-1.344339417e-04	9.661065577e-12
-2.500000000e-02	2.678475930e-01	-1.317207124e-04	1.582418309e-11
-2.510000000e-02	2.678475842e-01	-1.290074837e-04	1.950601311e-11
-2.520000000e-02	2.678475753e-01	-1.262942555e-04	8.743672158e-12
-2.530000000e-02	2.678475664e-01	-1.235810279e-04	3.287534200e-11
-2.540000000e-02	2.678475573e-01	-1.208678008e-04	6.335122458e-12
-2.550000000e-02	2.678475482e-01	-1.181545743e-04	1.312070559e-10
-2.560000000e-02	2.678475389e-01	-1.154413484e-04	7.197634572e-12
-2.570000000e-02	2.678475296e-01	-1.127281231e-04	1.272200007e-11
-2.580000000e-02	2.678475202e-01	-1.100148983e-04	1.651084580e-11
-2.590000000e-02	2.678475108e-01	-1.073016741e-04	3.185499372e-11
-2.600000000e-02	2.678475012e-01	-1.045884505e-04	4.961444382e-12
-2.610000000e-02	2.678474916e-01	-1.018752274e-04	1.165791841e-11
-2.620000000e-02	2.678474819e-01	-9.916200500e-05	6.459493491e-12
-2.630000000e-02	2.678474721e-01	-9.644878316e-05	1.283991317e-11
-2.640000000e-02	2.678474622e-01	-9.373556192e-05	1.979238578e-11
-2.650000000e-02	2.678474522e-01	-9.102234128e-05	1.548251331e-11
-2.660000000e-02	2.678474422e-01	-8.830912125e-05	5.531180305e-11
-2.670000000e-02	2.678474320e-01	-8.559590183e-05	7.911709408e-12
-2.680000000e-02	2.678474218e-01	-8.288268303e-05	2.021090495e-11
-2.690000000e-02	2.678474115e-01	-8.016946485e-05	3.216570744e-11
-2.700000000e-02	2.678474012e-01	-7.745624730e-05	1.110866589e-11
-2.710000000e-02	2.678473907e-01	-7.474303038e-05	1.189988202e-11
-2.720000000e-02	2.678473802e-01	-7.202981409e-05	4.883208364e-12
-2.730000000e-02	2.678473695e-01	-6.931659843e-05	1.111601848e-11
-2.740000000e-02	2.678473588e-01	-6.660338342e-05	1.455857479e-11
-2.750000000e-02	2.678473480e-01	-6.389016906e-05	4.908978878e-12
-2.760000000e-02	2.678473372e-01	-6.117695534e-05	4.995444555e-12
-2.770000000e-02	2.678473262e-01	-5.846374228e-05	2.261653749e-11
-2.780000000e-02	2.678473152e-01	-5.575052988e-05	1.828821193e-11
-2.790000000e-02	2.678473041e-01	-5.303731814e-05	1.706134890e-11
-2.800000000e-02	2.678472929e-01	-5.032410707e-05	3.702384949e-12
-2.810000000e-02	2.678472816e-01	-4.761089667e-05	2.333641849e-11
-2.820000000e-02	2.678472702e-01	-4.489768694e-05	5.888044154e-12
-2.830000000e-02	2.678472588e-01	-4.218447789e-05	7.366151009e-12
-2.840000000e-02	2.678472472e-01	-3.947126953e-05	2.613354031e-11
-2.850000000e-02	2.678472356e-01	-3.675806185e-05	1.657349554e-11
-2.860000000e-02	2.678472239e-01	-3.404485487e-05	3.560854605e-11
-2.870000000e-02	2.678472121e-01	-3.133164858e-05	7.596160427e-12
-2.880000000e-02	2.678472003e-01	-2.861844300e-05	6.193577823e-12
-2.890000000e-02	2.678471883e-01	-2.590523811e-05	6.484355250e-12
-2.900000000e-02	2.678471763e-01	-2.319203394e-05	2.360319624e-11
-2.910000000e-02	2.678471642e-01	-2.047883048e-05	1.223687783e-11
-2.920000000e-02	2.678471520e-01	-1.776562773e-05	1.964158318e-11
-2.930000000e-02	2.678471397e-01	-1.505242571e-05	1.478693712e-11
-2.940000000e-02	2.678471274e-01	-1.233922441e-05	1.403333924e-11
-2.950000000e-02	2.678471150e-01	-9.626023843e-06	9.058206274e-12
-2.960000000e-02	2.678471024e-01	-6.912824008e-06	1.595065258e-11
-2.970000000e-02	2.678470898e-01	-4.199624911e-06	9.120425559e-12
-2.980000000e-02	2.678470771e-01	-1.486426555e-06	2.148317195e-11
-2.990000000e-02	2.678470644e-01	1.226771053e-06	4.767393760e-12
-3.000000000e-02	2.678470515e-01	3.939967911e-06	1.572377249e-11
