# Im(epsi1)     Re(omega/c)      Im(omega/c)      Eq(det).Opt det CON kz, R=0.5 \mum, mu_c=0.3, Re(epsi1)=3.90solve_det_conkz_vs_kz.py
0.000000000e+00	2.678487609e-01	-8.100409290e-04	9.852794397e-12
-1.000000000e-04	2.678487727e-01	-8.073276813e-04	4.537491579e-11
-2.000000000e-04	2.678487844e-01	-8.046144331e-04	9.263321548e-12
-3.000000000e-04	2.678487960e-01	-8.019011844e-04	2.333897155e-11
-4.000000000e-04	2.678488076e-01	-7.991879353e-04	1.409449167e-11
-5.000000000e-04	2.678488190e-01	-7.964746857e-04	1.670198852e-12
-6.000000000e-04	2.678488304e-01	-7.937614356e-04	6.336436163e-12
-7.000000000e-04	2.678488417e-01	-7.910481850e-04	1.168770823e-11
-8.000000000e-04	2.678488529e-01	-7.883349339e-04	5.720834072e-12
-9.000000000e-04	2.678488641e-01	-7.856216824e-04	1.645811691e-11
-1.000000000e-03	2.678488751e-01	-7.829084304e-04	1.055606928e-11
-1.100000000e-03	2.678488861e-01	-7.801951780e-04	2.230879572e-11
-1.200000000e-03	2.678488970e-01	-7.774819251e-04	7.564977502e-12
-1.300000000e-03	2.678489078e-01	-7.747686718e-04	1.214344781e-11
-1.400000000e-03	2.678489185e-01	-7.720554180e-04	1.285002558e-11
-1.500000000e-03	2.678489291e-01	-7.693421638e-04	8.674906509e-12
-1.600000000e-03	2.678489397e-01	-7.666289092e-04	3.653636972e-11
-1.700000000e-03	2.678489502e-01	-7.639156541e-04	9.080472219e-12
-1.800000000e-03	2.678489606e-01	-7.612023986e-04	8.339156479e-12
-1.900000000e-03	2.678489709e-01	-7.584891427e-04	1.102037710e-11
-2.000000000e-03	2.678489811e-01	-7.557758864e-04	1.649650116e-11
-2.100000000e-03	2.678489913e-01	-7.530626296e-04	1.879578493e-11
-2.200000000e-03	2.678490013e-01	-7.503493725e-04	1.114128763e-11
-2.300000000e-03	2.678490113e-01	-7.476361149e-04	1.287239867e-11
-2.400000000e-03	2.678490212e-01	-7.449228569e-04	1.763176915e-11
-2.500000000e-03	2.678490310e-01	-7.422095986e-04	8.862761260e-12
-2.600000000e-03	2.678490408e-01	-7.394963398e-04	3.277033256e-11
-2.700000000e-03	2.678490504e-01	-7.367830807e-04	1.444397516e-11
-2.800000000e-03	2.678490600e-01	-7.340698212e-04	1.877810040e-11
-2.900000000e-03	2.678490695e-01	-7.313565612e-04	2.357541299e-11
-3.000000000e-03	2.678490789e-01	-7.286433010e-04	1.450901521e-11
-3.100000000e-03	2.678490882e-01	-7.259300403e-04	4.627314390e-12
-3.200000000e-03	2.678490974e-01	-7.232167793e-04	1.112541126e-11
-3.300000000e-03	2.678491066e-01	-7.205035179e-04	8.334737120e-12
-3.400000000e-03	2.678491157e-01	-7.177902562e-04	6.408484489e-12
-3.500000000e-03	2.678491247e-01	-7.150769941e-04	7.337181751e-12
-3.600000000e-03	2.678491336e-01	-7.123637316e-04	2.875572620e-11
-3.700000000e-03	2.678491424e-01	-7.096504688e-04	1.312266261e-11
-3.800000000e-03	2.678491511e-01	-7.069372057e-04	9.619917363e-12
-3.900000000e-03	2.678491598e-01	-7.042239422e-04	2.876100312e-11
-4.000000000e-03	2.678491684e-01	-7.015106784e-04	1.005333925e-11
-4.100000000e-03	2.678491769e-01	-6.987974142e-04	1.985703475e-11
-4.200000000e-03	2.678491853e-01	-6.960841498e-04	1.299031441e-11
-4.300000000e-03	2.678491936e-01	-6.933708850e-04	1.351301287e-11
-4.400000000e-03	2.678492019e-01	-6.906576199e-04	5.650099123e-12
-4.500000000e-03	2.678492100e-01	-6.879443544e-04	1.816106351e-11
-4.600000000e-03	2.678492181e-01	-6.852310887e-04	1.124343420e-11
-4.700000000e-03	2.678492261e-01	-6.825178227e-04	7.936462757e-12
-4.800000000e-03	2.678492341e-01	-6.798045563e-04	1.534348615e-11
-4.900000000e-03	2.678492419e-01	-6.770912897e-04	1.117488042e-11
-5.000000000e-03	2.678492497e-01	-6.743780228e-04	1.334016949e-11
-5.100000000e-03	2.678492573e-01	-6.716647555e-04	3.140569222e-12
-5.200000000e-03	2.678492649e-01	-6.689514880e-04	1.423045074e-11
-5.300000000e-03	2.678492724e-01	-6.662382203e-04	1.414858450e-11
-5.400000000e-03	2.678492799e-01	-6.635249522e-04	2.202815499e-11
-5.500000000e-03	2.678492872e-01	-6.608116839e-04	8.269668148e-12
-5.600000000e-03	2.678492945e-01	-6.580984153e-04	6.135688545e-12
-5.700000000e-03	2.678493016e-01	-6.553851464e-04	2.939355308e-11
-5.800000000e-03	2.678493087e-01	-6.526718773e-04	3.598461717e-12
-5.900000000e-03	2.678493158e-01	-6.499586079e-04	1.464143044e-10
-6.000000000e-03	2.678493227e-01	-6.472453383e-04	9.376741342e-12
-6.100000000e-03	2.678493295e-01	-6.445320685e-04	2.490830672e-11
-6.200000000e-03	2.678493363e-01	-6.418187983e-04	1.639948816e-11
-6.300000000e-03	2.678493430e-01	-6.391055280e-04	1.469535138e-11
-6.400000000e-03	2.678493496e-01	-6.363922574e-04	6.575520466e-12
-6.500000000e-03	2.678493561e-01	-6.336789866e-04	3.565566809e-11
-6.600000000e-03	2.678493625e-01	-6.309657156e-04	2.772236498e-11
-6.700000000e-03	2.678493689e-01	-6.282524443e-04	1.950602151e-11
-6.800000000e-03	2.678493752e-01	-6.255391728e-04	7.324562486e-12
-6.900000000e-03	2.678493814e-01	-6.228259011e-04	1.344273459e-11
-7.000000000e-03	2.678493875e-01	-6.201126292e-04	2.420795112e-11
-7.100000000e-03	2.678493935e-01	-6.173993571e-04	1.875217007e-11
-7.200000000e-03	2.678493994e-01	-6.146860848e-04	5.423427827e-12
-7.300000000e-03	2.678494053e-01	-6.119728123e-04	3.358427406e-11
-7.400000000e-03	2.678494111e-01	-6.092595396e-04	8.113076369e-12
-7.500000000e-03	2.678494168e-01	-6.065462667e-04	2.424344648e-11
-7.600000000e-03	2.678494224e-01	-6.038329936e-04	1.132045149e-11
-7.700000000e-03	2.678494279e-01	-6.011197204e-04	2.870846937e-11
-7.800000000e-03	2.678494334e-01	-5.984064470e-04	8.290219422e-12
-7.900000000e-03	2.678494387e-01	-5.956931734e-04	1.029906016e-11
-8.000000000e-03	2.678494440e-01	-5.929798996e-04	2.044538403e-11
-8.100000000e-03	2.678494492e-01	-5.902666257e-04	1.013953081e-11
-8.200000000e-03	2.678494543e-01	-5.875533516e-04	8.557714924e-12
-8.300000000e-03	2.678494594e-01	-5.848400774e-04	1.530083001e-11
-8.400000000e-03	2.678494643e-01	-5.821268030e-04	1.677093463e-11
-8.500000000e-03	2.678494692e-01	-5.794135284e-04	1.194823885e-11
-8.600000000e-03	2.678494740e-01	-5.767002538e-04	5.849357800e-11
-8.700000000e-03	2.678494787e-01	-5.739869789e-04	8.038567916e-12
-8.800000000e-03	2.678494833e-01	-5.712737040e-04	1.129325136e-11
-8.900000000e-03	2.678494879e-01	-5.685604289e-04	1.259839577e-11
-9.000000000e-03	2.678494923e-01	-5.658471537e-04	1.389302176e-11
-9.100000000e-03	2.678494967e-01	-5.631338784e-04	5.429572358e-11
-9.200000000e-03	2.678495010e-01	-5.604206029e-04	2.223001459e-11
-9.300000000e-03	2.678495052e-01	-5.577073274e-04	1.916290081e-11
-9.400000000e-03	2.678495093e-01	-5.549940517e-04	1.246648418e-11
-9.500000000e-03	2.678495134e-01	-5.522807759e-04	2.965203708e-11
-9.600000000e-03	2.678495173e-01	-5.495675000e-04	6.118352683e-12
-9.700000000e-03	2.678495212e-01	-5.468542241e-04	1.278724410e-11
-9.800000000e-03	2.678495250e-01	-5.441409480e-04	6.229432245e-12
-9.900000000e-03	2.678495287e-01	-5.414276719e-04	1.363193287e-11
-1.000000000e-02	2.678495324e-01	-5.387143956e-04	1.398922915e-11
-1.010000000e-02	2.678495359e-01	-5.360011193e-04	5.336309445e-12
-1.020000000e-02	2.678495394e-01	-5.332878429e-04	3.394382352e-11
-1.030000000e-02	2.678495428e-01	-5.305745665e-04	1.451036009e-11
-1.040000000e-02	2.678495461e-01	-5.278612899e-04	6.309939097e-12
-1.050000000e-02	2.678495493e-01	-5.251480133e-04	1.425126131e-11
-1.060000000e-02	2.678495525e-01	-5.224347367e-04	7.268336435e-12
-1.070000000e-02	2.678495555e-01	-5.197214600e-04	2.276847172e-11
-1.080000000e-02	2.678495585e-01	-5.170081832e-04	2.919031287e-11
-1.090000000e-02	2.678495614e-01	-5.142949064e-04	2.933522592e-11
-1.100000000e-02	2.678495642e-01	-5.115816296e-04	1.041487062e-11
-1.110000000e-02	2.678495669e-01	-5.088683527e-04	1.449579604e-11
-1.120000000e-02	2.678495696e-01	-5.061550758e-04	8.046984038e-12
-1.130000000e-02	2.678495721e-01	-5.034417988e-04	1.277240612e-11
-1.140000000e-02	2.678495746e-01	-5.007285218e-04	9.036972656e-12
-1.150000000e-02	2.678495770e-01	-4.980152449e-04	1.201719229e-11
-1.160000000e-02	2.678495793e-01	-4.953019678e-04	6.840406010e-12
-1.170000000e-02	2.678495816e-01	-4.925886908e-04	2.109398253e-11
-1.180000000e-02	2.678495837e-01	-4.898754138e-04	3.528859191e-11
-1.190000000e-02	2.678495858e-01	-4.871621367e-04	1.477656109e-11
-1.200000000e-02	2.678495878e-01	-4.844488597e-04	1.299076404e-11
-1.210000000e-02	2.678495897e-01	-4.817355827e-04	1.346481247e-11
-1.220000000e-02	2.678495915e-01	-4.790223056e-04	1.385536573e-11
-1.230000000e-02	2.678495932e-01	-4.763090286e-04	8.645812259e-12
-1.240000000e-02	2.678495949e-01	-4.735957516e-04	4.090911697e-12
-1.250000000e-02	2.678495965e-01	-4.708824747e-04	1.471799024e-11
-1.260000000e-02	2.678495980e-01	-4.681691977e-04	6.409561234e-12
-1.270000000e-02	2.678495994e-01	-4.654559208e-04	3.796184959e-11
-1.280000000e-02	2.678496007e-01	-4.627426439e-04	3.438494466e-11
-1.290000000e-02	2.678496019e-01	-4.600293670e-04	1.598800444e-11
-1.300000000e-02	2.678496031e-01	-4.573160902e-04	2.923233874e-10
-1.310000000e-02	2.678496042e-01	-4.546028134e-04	1.152832238e-11
-1.320000000e-02	2.678496052e-01	-4.518895367e-04	1.965125444e-11
-1.330000000e-02	2.678496061e-01	-4.491762601e-04	1.604288586e-11
-1.340000000e-02	2.678496069e-01	-4.464629834e-04	6.952415699e-12
-1.350000000e-02	2.678496077e-01	-4.437497069e-04	8.603154868e-12
-1.360000000e-02	2.678496083e-01	-4.410364304e-04	1.712885967e-11
-1.370000000e-02	2.678496089e-01	-4.383231540e-04	2.862103452e-11
-1.380000000e-02	2.678496094e-01	-4.356098777e-04	1.068659908e-11
-1.390000000e-02	2.678496099e-01	-4.328966014e-04	1.849925790e-11
-1.400000000e-02	2.678496102e-01	-4.301833252e-04	1.641082604e-11
-1.410000000e-02	2.678496105e-01	-4.274700492e-04	7.127576996e-12
-1.420000000e-02	2.678496106e-01	-4.247567732e-04	5.672564811e-12
-1.430000000e-02	2.678496107e-01	-4.220434973e-04	1.894062586e-11
-1.440000000e-02	2.678496107e-01	-4.193302215e-04	6.630901367e-11
-1.450000000e-02	2.678496107e-01	-4.166169458e-04	1.398673885e-11
-1.460000000e-02	2.678496105e-01	-4.139036702e-04	1.156904551e-11
-1.470000000e-02	2.678496103e-01	-4.111903947e-04	1.129123459e-11
-1.480000000e-02	2.678496099e-01	-4.084771193e-04	9.150386927e-12
-1.490000000e-02	2.678496095e-01	-4.057638441e-04	2.439766278e-11
-1.500000000e-02	2.678496090e-01	-4.030505690e-04	2.449823756e-11
-1.510000000e-02	2.678496085e-01	-4.003372940e-04	1.003550885e-11
-1.520000000e-02	2.678496078e-01	-3.976240192e-04	6.119925199e-12
-1.530000000e-02	2.678496071e-01	-3.949107444e-04	1.468897409e-11
-1.540000000e-02	2.678496063e-01	-3.921974699e-04	1.462177189e-11
-1.550000000e-02	2.678496054e-01	-3.894841954e-04	3.945409770e-12
-1.560000000e-02	2.678496044e-01	-3.867709212e-04	1.419758483e-11
-1.570000000e-02	2.678496033e-01	-3.840576470e-04	1.332704039e-11
-1.580000000e-02	2.678496022e-01	-3.813443731e-04	1.038199823e-11
-1.590000000e-02	2.678496010e-01	-3.786310993e-04	9.116344105e-12
-1.600000000e-02	2.678495997e-01	-3.759178256e-04	1.219992008e-11
-1.610000000e-02	2.678495983e-01	-3.732045521e-04	1.220819611e-11
-1.620000000e-02	2.678495968e-01	-3.704912789e-04	3.282339509e-11
-1.630000000e-02	2.678495952e-01	-3.677780057e-04	6.108115477e-11
-1.640000000e-02	2.678495936e-01	-3.650647328e-04	1.119703811e-11
-1.650000000e-02	2.678495919e-01	-3.623514601e-04	1.008673609e-11
-1.660000000e-02	2.678495901e-01	-3.596381875e-04	9.328496753e-12
-1.670000000e-02	2.678495882e-01	-3.569249151e-04	1.075465604e-11
-1.680000000e-02	2.678495862e-01	-3.542116430e-04	1.316858834e-10
-1.690000000e-02	2.678495842e-01	-3.514983710e-04	2.352561058e-11
-1.700000000e-02	2.678495820e-01	-3.487850993e-04	1.262769338e-11
-1.710000000e-02	2.678495798e-01	-3.460718278e-04	1.541806898e-11
-1.720000000e-02	2.678495775e-01	-3.433585564e-04	6.814697986e-12
-1.730000000e-02	2.678495751e-01	-3.406452853e-04	1.849315218e-11
-1.740000000e-02	2.678495727e-01	-3.379320145e-04	2.791980964e-11
-1.750000000e-02	2.678495701e-01	-3.352187438e-04	8.217670252e-12
-1.760000000e-02	2.678495675e-01	-3.325054734e-04	1.363173066e-11
-1.770000000e-02	2.678495648e-01	-3.297922032e-04	1.754899389e-11
-1.780000000e-02	2.678495620e-01	-3.270789333e-04	1.272863523e-10
-1.790000000e-02	2.678495591e-01	-3.243656636e-04	8.665532555e-12
-1.800000000e-02	2.678495561e-01	-3.216523942e-04	1.271050166e-11
-1.810000000e-02	2.678495531e-01	-3.189391250e-04	3.041236380e-12
-1.820000000e-02	2.678495500e-01	-3.162258561e-04	1.460677640e-11
-1.830000000e-02	2.678495468e-01	-3.135125874e-04	4.354194565e-11
-1.840000000e-02	2.678495435e-01	-3.107993190e-04	1.419949104e-11
-1.850000000e-02	2.678495401e-01	-3.080860509e-04	1.661035012e-11
-1.860000000e-02	2.678495367e-01	-3.053727830e-04	8.521324795e-12
-1.870000000e-02	2.678495331e-01	-3.026595155e-04	1.869349176e-11
-1.880000000e-02	2.678495295e-01	-2.999462482e-04	1.194270675e-11
-1.890000000e-02	2.678495258e-01	-2.972329812e-04	9.172260949e-12
-1.900000000e-02	2.678495220e-01	-2.945197145e-04	1.397217284e-11
-1.910000000e-02	2.678495182e-01	-2.918064481e-04	1.253802695e-11
-1.920000000e-02	2.678495142e-01	-2.890931819e-04	1.131258517e-11
-1.930000000e-02	2.678495102e-01	-2.863799161e-04	1.314347772e-11
-1.940000000e-02	2.678495061e-01	-2.836666506e-04	3.787061105e-11
-1.950000000e-02	2.678495019e-01	-2.809533854e-04	4.184751033e-11
-1.960000000e-02	2.678494976e-01	-2.782401206e-04	6.935379221e-12
-1.970000000e-02	2.678494932e-01	-2.755268560e-04	6.184977862e-12
-1.980000000e-02	2.678494888e-01	-2.728135918e-04	2.325926228e-11
-1.990000000e-02	2.678494843e-01	-2.701003279e-04	9.951210369e-12
-2.000000000e-02	2.678494797e-01	-2.673870643e-04	7.602155368e-11
-2.010000000e-02	2.678494750e-01	-2.646738011e-04	2.449728456e-11
-2.020000000e-02	2.678494702e-01	-2.619605382e-04	8.231812718e-12
-2.030000000e-02	2.678494653e-01	-2.592472757e-04	1.452491831e-11
-2.040000000e-02	2.678494604e-01	-2.565340135e-04	9.243800594e-12
-2.050000000e-02	2.678494554e-01	-2.538207516e-04	1.384659849e-11
-2.060000000e-02	2.678494503e-01	-2.511074902e-04	1.025385242e-11
-2.070000000e-02	2.678494451e-01	-2.483942290e-04	7.305344089e-11
-2.080000000e-02	2.678494398e-01	-2.456809683e-04	1.804721683e-11
-2.090000000e-02	2.678494345e-01	-2.429677079e-04	1.846824467e-11
-2.100000000e-02	2.678494291e-01	-2.402544479e-04	4.615585239e-11
-2.110000000e-02	2.678494235e-01	-2.375411883e-04	7.021624461e-12
-2.120000000e-02	2.678494179e-01	-2.348279290e-04	8.649403915e-12
-2.130000000e-02	2.678494123e-01	-2.321146702e-04	7.086517206e-11
-2.140000000e-02	2.678494065e-01	-2.294014117e-04	7.603764877e-12
-2.150000000e-02	2.678494007e-01	-2.266881537e-04	5.656743430e-12
-2.160000000e-02	2.678493947e-01	-2.239748960e-04	8.645792701e-12
-2.170000000e-02	2.678493887e-01	-2.212616387e-04	7.266152164e-12
-2.180000000e-02	2.678493826e-01	-2.185483819e-04	4.891454889e-12
-2.190000000e-02	2.678493765e-01	-2.158351254e-04	4.788141671e-11
-2.200000000e-02	2.678493702e-01	-2.131218694e-04	8.745288207e-12
-2.210000000e-02	2.678493639e-01	-2.104086138e-04	4.403144913e-12
-2.220000000e-02	2.678493574e-01	-2.076953586e-04	1.208023748e-11
-2.230000000e-02	2.678493509e-01	-2.049821039e-04	1.289552826e-11
-2.240000000e-02	2.678493444e-01	-2.022688495e-04	3.257265952e-11
-2.250000000e-02	2.678493377e-01	-1.995555957e-04	1.170192773e-11
-2.260000000e-02	2.678493309e-01	-1.968423422e-04	1.859213034e-11
-2.270000000e-02	2.678493241e-01	-1.941290892e-04	6.146591501e-12
-2.280000000e-02	2.678493172e-01	-1.914158367e-04	1.269571934e-11
-2.290000000e-02	2.678493102e-01	-1.887025846e-04	6.718772505e-12
-2.300000000e-02	2.678493031e-01	-1.859893330e-04	6.051823990e-12
-2.310000000e-02	2.678492960e-01	-1.832760818e-04	1.789666863e-11
-2.320000000e-02	2.678492887e-01	-1.805628311e-04	1.571834524e-11
-2.330000000e-02	2.678492814e-01	-1.778495809e-04	2.782364221e-11
-2.340000000e-02	2.678492740e-01	-1.751363311e-04	1.004979688e-11
-2.350000000e-02	2.678492665e-01	-1.724230818e-04	6.370119687e-12
-2.360000000e-02	2.678492589e-01	-1.697098331e-04	9.969504199e-12
-2.370000000e-02	2.678492512e-01	-1.669965847e-04	1.771334391e-11
-2.380000000e-02	2.678492435e-01	-1.642833369e-04	1.043768103e-11
-2.390000000e-02	2.678492357e-01	-1.615700896e-04	1.315718291e-11
-2.400000000e-02	2.678492278e-01	-1.588568428e-04	2.676617364e-11
-2.410000000e-02	2.678492198e-01	-1.561435965e-04	5.423841924e-12
-2.420000000e-02	2.678492117e-01	-1.534303507e-04	2.506165572e-11
-2.430000000e-02	2.678492036e-01	-1.507171054e-04	1.350827548e-11
-2.440000000e-02	2.678491953e-01	-1.480038606e-04	2.535934360e-11
-2.450000000e-02	2.678491870e-01	-1.452906164e-04	1.598158240e-11
-2.460000000e-02	2.678491786e-01	-1.425773726e-04	1.460716386e-11
-2.470000000e-02	2.678491701e-01	-1.398641294e-04	1.574260146e-11
-2.480000000e-02	2.678491616e-01	-1.371508868e-04	8.293515051e-12
-2.490000000e-02	2.678491529e-01	-1.344376446e-04	9.315980948e-12
-2.500000000e-02	2.678491442e-01	-1.317244030e-04	1.104455960e-10
-2.510000000e-02	2.678491354e-01	-1.290111620e-04	9.325148682e-12
-2.520000000e-02	2.678491265e-01	-1.262979215e-04	1.601807483e-11
-2.530000000e-02	2.678491175e-01	-1.235846816e-04	9.215978611e-12
-2.540000000e-02	2.678491085e-01	-1.208714422e-04	2.006213852e-11
-2.550000000e-02	2.678490993e-01	-1.181582034e-04	2.282349351e-11
-2.560000000e-02	2.678490901e-01	-1.154449651e-04	5.385483279e-11
-2.570000000e-02	2.678490808e-01	-1.127317274e-04	2.434673898e-11
-2.580000000e-02	2.678490714e-01	-1.100184903e-04	4.066748023e-11
-2.590000000e-02	2.678490619e-01	-1.073052538e-04	7.679162203e-12
-2.600000000e-02	2.678490524e-01	-1.045920179e-04	4.946372217e-11
-2.610000000e-02	2.678490428e-01	-1.018787825e-04	9.961153132e-11
-2.620000000e-02	2.678490330e-01	-9.916554776e-05	7.663885017e-12
-2.630000000e-02	2.678490232e-01	-9.645231359e-05	8.952645027e-12
-2.640000000e-02	2.678490134e-01	-9.373908003e-05	1.215207971e-11
-2.650000000e-02	2.678490034e-01	-9.102584707e-05	1.106639607e-11
-2.660000000e-02	2.678489933e-01	-8.831261472e-05	4.658135792e-11
-2.670000000e-02	2.678489832e-01	-8.559938297e-05	1.281823708e-11
-2.680000000e-02	2.678489730e-01	-8.288615185e-05	2.871165900e-11
-2.690000000e-02	2.678489627e-01	-8.017292135e-05	1.398125404e-11
-2.700000000e-02	2.678489523e-01	-7.745969147e-05	1.627242396e-11
-2.710000000e-02	2.678489419e-01	-7.474646223e-05	2.284631722e-11
-2.720000000e-02	2.678489313e-01	-7.203323361e-05	1.839175258e-11
-2.730000000e-02	2.678489207e-01	-6.932000564e-05	1.276780434e-11
-2.740000000e-02	2.678489100e-01	-6.660677830e-05	6.438784340e-12
-2.750000000e-02	2.678488992e-01	-6.389355161e-05	1.567803315e-11
-2.760000000e-02	2.678488883e-01	-6.118032557e-05	3.668284890e-12
-2.770000000e-02	2.678488774e-01	-5.846710019e-05	7.611173893e-12
-2.780000000e-02	2.678488664e-01	-5.575387546e-05	8.738544652e-11
-2.790000000e-02	2.678488552e-01	-5.304065140e-05	1.231705175e-11
-2.800000000e-02	2.678488440e-01	-5.032742801e-05	1.167891413e-11
-2.810000000e-02	2.678488328e-01	-4.761420528e-05	1.656723311e-11
-2.820000000e-02	2.678488214e-01	-4.490098323e-05	1.826586527e-11
-2.830000000e-02	2.678488099e-01	-4.218776186e-05	6.700954638e-11
-2.840000000e-02	2.678487984e-01	-3.947454117e-05	1.278046608e-11
-2.850000000e-02	2.678487868e-01	-3.676132118e-05	1.198477193e-11
-2.860000000e-02	2.678487751e-01	-3.404810187e-05	2.107264747e-11
-2.870000000e-02	2.678487633e-01	-3.133488326e-05	3.579370390e-11
-2.880000000e-02	2.678487515e-01	-2.862166535e-05	7.584664671e-12
-2.890000000e-02	2.678487395e-01	-2.590844814e-05	8.436193662e-12
-2.900000000e-02	2.678487275e-01	-2.319523164e-05	8.595003980e-12
-2.910000000e-02	2.678487154e-01	-2.048201586e-05	2.489398313e-11
-2.920000000e-02	2.678487032e-01	-1.776880079e-05	3.272219605e-11
-2.930000000e-02	2.678486909e-01	-1.505558644e-05	3.610136325e-11
-2.940000000e-02	2.678486786e-01	-1.234237283e-05	4.783893724e-11
-2.950000000e-02	2.678486661e-01	-9.629159932e-06	8.760091415e-12
-2.960000000e-02	2.678486536e-01	-6.915947773e-06	8.954929464e-12
-2.970000000e-02	2.678486410e-01	-4.202736352e-06	1.799342825e-11
-2.980000000e-02	2.678486283e-01	-1.489525674e-06	7.283580165e-12
-2.990000000e-02	2.678486156e-01	1.223684259e-06	2.993226623e-11
-3.000000000e-02	2.678486027e-01	3.936893441e-06	4.755699360e-12
