# Im(epsi1)     Re(omega/c)      Im(omega/c)      Eq(det).Opt det CON kz, R=0.5 \mum, mu_c=0.3, Re(epsi1)=3.90solve_det_conkz_vs_kz.py
0.000000000e+00	2.678529788e-01	-8.100593420e-04	1.543389433e-11
-1.000000000e-04	2.678529906e-01	-8.073460608e-04	1.922798642e-11
-2.000000000e-04	2.678530023e-01	-8.046327791e-04	1.385371965e-11
-3.000000000e-04	2.678530139e-01	-8.019194970e-04	2.056611017e-11
-4.000000000e-04	2.678530255e-01	-7.992062143e-04	1.142416055e-11
-5.000000000e-04	2.678530370e-01	-7.964929312e-04	1.444929631e-11
-6.000000000e-04	2.678530483e-01	-7.937796475e-04	6.183988162e-12
-7.000000000e-04	2.678530596e-01	-7.910663635e-04	6.094530834e-12
-8.000000000e-04	2.678530709e-01	-7.883530789e-04	3.152112202e-11
-9.000000000e-04	2.678530820e-01	-7.856397939e-04	1.383533352e-11
-1.000000000e-03	2.678530930e-01	-7.829265084e-04	1.728148524e-11
-1.100000000e-03	2.678531040e-01	-7.802132225e-04	7.722072446e-12
-1.200000000e-03	2.678531149e-01	-7.774999361e-04	1.117254786e-11
-1.300000000e-03	2.678531257e-01	-7.747866492e-04	1.735139956e-11
-1.400000000e-03	2.678531364e-01	-7.720733620e-04	1.365305032e-11
-1.500000000e-03	2.678531471e-01	-7.693600743e-04	1.547349199e-11
-1.600000000e-03	2.678531576e-01	-7.666467861e-04	1.047220099e-11
-1.700000000e-03	2.678531681e-01	-7.639334975e-04	1.003119710e-11
-1.800000000e-03	2.678531785e-01	-7.612202085e-04	1.232153477e-11
-1.900000000e-03	2.678531888e-01	-7.585069191e-04	1.583573558e-11
-2.000000000e-03	2.678531990e-01	-7.557936293e-04	8.064658147e-12
-2.100000000e-03	2.678532092e-01	-7.530803390e-04	1.018618243e-11
-2.200000000e-03	2.678532193e-01	-7.503670483e-04	8.861577457e-12
-2.300000000e-03	2.678532292e-01	-7.476537573e-04	2.692247226e-11
-2.400000000e-03	2.678532391e-01	-7.449404658e-04	1.340916650e-11
-2.500000000e-03	2.678532490e-01	-7.422271739e-04	1.518530730e-11
-2.600000000e-03	2.678532587e-01	-7.395138816e-04	2.370347095e-11
-2.700000000e-03	2.678532683e-01	-7.368005890e-04	5.244702800e-12
-2.800000000e-03	2.678532779e-01	-7.340872960e-04	7.673651622e-12
-2.900000000e-03	2.678532874e-01	-7.313740025e-04	7.618353565e-12
-3.000000000e-03	2.678532968e-01	-7.286607088e-04	8.663447794e-12
-3.100000000e-03	2.678533061e-01	-7.259474146e-04	7.289691288e-12
-3.200000000e-03	2.678533154e-01	-7.232341201e-04	1.915450137e-11
-3.300000000e-03	2.678533245e-01	-7.205208252e-04	1.439021518e-11
-3.400000000e-03	2.678533336e-01	-7.178075299e-04	6.619940379e-12
-3.500000000e-03	2.678533426e-01	-7.150942343e-04	2.791344553e-11
-3.600000000e-03	2.678533515e-01	-7.123809383e-04	2.395826382e-11
-3.700000000e-03	2.678533603e-01	-7.096676420e-04	1.184741729e-11
-3.800000000e-03	2.678533691e-01	-7.069543454e-04	7.928222771e-12
-3.900000000e-03	2.678533777e-01	-7.042410484e-04	9.241892122e-12
-4.000000000e-03	2.678533863e-01	-7.015277511e-04	9.790451857e-13
-4.100000000e-03	2.678533948e-01	-6.988144534e-04	5.807955379e-11
-4.200000000e-03	2.678534032e-01	-6.961011554e-04	1.770264309e-11
-4.300000000e-03	2.678534116e-01	-6.933878571e-04	9.083577118e-12
-4.400000000e-03	2.678534198e-01	-6.906745585e-04	6.004428238e-12
-4.500000000e-03	2.678534280e-01	-6.879612596e-04	1.833442599e-11
-4.600000000e-03	2.678534361e-01	-6.852479604e-04	2.053224755e-11
-4.700000000e-03	2.678534441e-01	-6.825346608e-04	1.621377028e-11
-4.800000000e-03	2.678534520e-01	-6.798213610e-04	7.457975665e-12
-4.900000000e-03	2.678534598e-01	-6.771080608e-04	6.503390600e-12
-5.000000000e-03	2.678534676e-01	-6.743947604e-04	8.547789682e-12
-5.100000000e-03	2.678534753e-01	-6.716814597e-04	1.823868534e-11
-5.200000000e-03	2.678534829e-01	-6.689681587e-04	1.935119683e-11
-5.300000000e-03	2.678534904e-01	-6.662548574e-04	4.247757284e-11
-5.400000000e-03	2.678534978e-01	-6.635415558e-04	1.892847578e-11
-5.500000000e-03	2.678535051e-01	-6.608282540e-04	1.154990414e-11
-5.600000000e-03	2.678535124e-01	-6.581149519e-04	7.546809223e-12
-5.700000000e-03	2.678535196e-01	-6.554016495e-04	8.188237107e-12
-5.800000000e-03	2.678535267e-01	-6.526883469e-04	7.151390684e-11
-5.900000000e-03	2.678535337e-01	-6.499750440e-04	1.355695157e-11
-6.000000000e-03	2.678535406e-01	-6.472617409e-04	3.400738715e-11
-6.100000000e-03	2.678535475e-01	-6.445484375e-04	1.658195528e-11
-6.200000000e-03	2.678535542e-01	-6.418351339e-04	1.016092613e-11
-6.300000000e-03	2.678535609e-01	-6.391218300e-04	1.400078404e-11
-6.400000000e-03	2.678535675e-01	-6.364085259e-04	1.536626889e-11
-6.500000000e-03	2.678535741e-01	-6.336952216e-04	1.268343003e-11
-6.600000000e-03	2.678535805e-01	-6.309819170e-04	2.475630792e-11
-6.700000000e-03	2.678535869e-01	-6.282686123e-04	6.233781250e-12
-6.800000000e-03	2.678535931e-01	-6.255553073e-04	7.051890852e-12
-6.900000000e-03	2.678535993e-01	-6.228420021e-04	1.270122156e-11
-7.000000000e-03	2.678536054e-01	-6.201286967e-04	2.098169689e-11
-7.100000000e-03	2.678536114e-01	-6.174153910e-04	4.419068828e-11
-7.200000000e-03	2.678536174e-01	-6.147020852e-04	3.187415899e-12
-7.300000000e-03	2.678536233e-01	-6.119887792e-04	1.351254839e-11
-7.400000000e-03	2.678536290e-01	-6.092754730e-04	1.752142250e-11
-7.500000000e-03	2.678536347e-01	-6.065621666e-04	1.511654595e-11
-7.600000000e-03	2.678536403e-01	-6.038488600e-04	1.957286542e-11
-7.700000000e-03	2.678536459e-01	-6.011355533e-04	6.312732442e-12
-7.800000000e-03	2.678536513e-01	-5.984222464e-04	9.267808204e-12
-7.900000000e-03	2.678536567e-01	-5.957089392e-04	2.218834173e-11
-8.000000000e-03	2.678536620e-01	-5.929956320e-04	1.673961982e-11
-8.100000000e-03	2.678536672e-01	-5.902823245e-04	5.892627754e-12
-8.200000000e-03	2.678536723e-01	-5.875690169e-04	6.966111195e-12
-8.300000000e-03	2.678536773e-01	-5.848557092e-04	1.132183203e-11
-8.400000000e-03	2.678536823e-01	-5.821424013e-04	1.624114952e-11
-8.500000000e-03	2.678536872e-01	-5.794290932e-04	1.090146371e-11
-8.600000000e-03	2.678536919e-01	-5.767157851e-04	7.850650719e-12
-8.700000000e-03	2.678536967e-01	-5.740024767e-04	2.965481675e-12
-8.800000000e-03	2.678537013e-01	-5.712891683e-04	6.079395778e-12
-8.900000000e-03	2.678537058e-01	-5.685758597e-04	9.980865001e-12
-9.000000000e-03	2.678537103e-01	-5.658625510e-04	3.596672988e-11
-9.100000000e-03	2.678537147e-01	-5.631492421e-04	2.285484980e-11
-9.200000000e-03	2.678537189e-01	-5.604359332e-04	1.886034217e-11
-9.300000000e-03	2.678537232e-01	-5.577226241e-04	7.639487321e-12
-9.400000000e-03	2.678537273e-01	-5.550093149e-04	6.404080554e-12
-9.500000000e-03	2.678537313e-01	-5.522960056e-04	1.355124217e-10
-9.600000000e-03	2.678537353e-01	-5.495826963e-04	2.263243747e-11
-9.700000000e-03	2.678537392e-01	-5.468693868e-04	8.910792060e-12
-9.800000000e-03	2.678537430e-01	-5.441560772e-04	4.489230428e-12
-9.900000000e-03	2.678537467e-01	-5.414427675e-04	2.126068362e-11
-1.000000000e-02	2.678537503e-01	-5.387294578e-04	1.141060956e-11
-1.010000000e-02	2.678537539e-01	-5.360161480e-04	1.925685091e-11
-1.020000000e-02	2.678537574e-01	-5.333028381e-04	4.836972472e-11
-1.030000000e-02	2.678537608e-01	-5.305895281e-04	1.493800311e-11
-1.040000000e-02	2.678537641e-01	-5.278762181e-04	6.564005062e-12
-1.050000000e-02	2.678537673e-01	-5.251629080e-04	1.082034017e-11
-1.060000000e-02	2.678537704e-01	-5.224495978e-04	2.735810367e-11
-1.070000000e-02	2.678537735e-01	-5.197362876e-04	1.216107369e-11
-1.080000000e-02	2.678537765e-01	-5.170229773e-04	1.145831060e-11
-1.090000000e-02	2.678537793e-01	-5.143096670e-04	1.657956559e-11
-1.100000000e-02	2.678537822e-01	-5.115963567e-04	2.054950532e-11
-1.110000000e-02	2.678537849e-01	-5.088830463e-04	1.144532712e-11
-1.120000000e-02	2.678537875e-01	-5.061697358e-04	1.325705667e-11
-1.130000000e-02	2.678537901e-01	-5.034564254e-04	5.337840053e-11
-1.140000000e-02	2.678537926e-01	-5.007431149e-04	2.050736990e-11
-1.150000000e-02	2.678537950e-01	-4.980298044e-04	2.420683749e-11
-1.160000000e-02	2.678537973e-01	-4.953164939e-04	1.545751240e-11
-1.170000000e-02	2.678537995e-01	-4.926031833e-04	2.696868042e-11
-1.180000000e-02	2.678538017e-01	-4.898898728e-04	9.831247044e-12
-1.190000000e-02	2.678538038e-01	-4.871765622e-04	2.941755411e-12
-1.200000000e-02	2.678538057e-01	-4.844632517e-04	9.327365527e-12
-1.210000000e-02	2.678538076e-01	-4.817499412e-04	2.118700677e-11
-1.220000000e-02	2.678538095e-01	-4.790366306e-04	1.193423685e-11
-1.230000000e-02	2.678538112e-01	-4.763233201e-04	1.509483013e-11
-1.240000000e-02	2.678538129e-01	-4.736100096e-04	9.569988988e-12
-1.250000000e-02	2.678538144e-01	-4.708966991e-04	3.503037822e-11
-1.260000000e-02	2.678538159e-01	-4.681833886e-04	6.483218314e-11
-1.270000000e-02	2.678538173e-01	-4.654700782e-04	1.208159090e-11
-1.280000000e-02	2.678538187e-01	-4.627567678e-04	1.115980360e-11
-1.290000000e-02	2.678538199e-01	-4.600434574e-04	1.109795297e-11
-1.300000000e-02	2.678538211e-01	-4.573301471e-04	7.083082696e-12
-1.310000000e-02	2.678538222e-01	-4.546168368e-04	1.396685862e-11
-1.320000000e-02	2.678538232e-01	-4.519035266e-04	1.037662716e-11
-1.330000000e-02	2.678538241e-01	-4.491902164e-04	1.189525420e-11
-1.340000000e-02	2.678538249e-01	-4.464769063e-04	2.950653356e-11
-1.350000000e-02	2.678538257e-01	-4.437635962e-04	9.141581202e-12
-1.360000000e-02	2.678538263e-01	-4.410502863e-04	9.373954583e-12
-1.370000000e-02	2.678538269e-01	-4.383369763e-04	1.045479310e-11
-1.380000000e-02	2.678538274e-01	-4.356236665e-04	4.051023229e-11
-1.390000000e-02	2.678538278e-01	-4.329103567e-04	1.420687406e-11
-1.400000000e-02	2.678538282e-01	-4.301970470e-04	2.050184175e-11
-1.410000000e-02	2.678538284e-01	-4.274837375e-04	1.258413769e-11
-1.420000000e-02	2.678538286e-01	-4.247704279e-04	1.021181146e-11
-1.430000000e-02	2.678538287e-01	-4.220571185e-04	6.878971064e-11
-1.440000000e-02	2.678538287e-01	-4.193438092e-04	1.222564673e-11
-1.450000000e-02	2.678538286e-01	-4.166305000e-04	1.318790065e-11
-1.460000000e-02	2.678538285e-01	-4.139171909e-04	6.804889820e-12
-1.470000000e-02	2.678538282e-01	-4.112038819e-04	2.809859310e-11
-1.480000000e-02	2.678538279e-01	-4.084905731e-04	1.659563885e-11
-1.490000000e-02	2.678538275e-01	-4.057772643e-04	2.001392330e-11
-1.500000000e-02	2.678538270e-01	-4.030639557e-04	9.612895569e-12
-1.510000000e-02	2.678538265e-01	-4.003506472e-04	9.059077989e-12
-1.520000000e-02	2.678538258e-01	-3.976373388e-04	1.350074816e-11
-1.530000000e-02	2.678538251e-01	-3.949240306e-04	1.589545084e-11
-1.540000000e-02	2.678538243e-01	-3.922107225e-04	8.614741414e-12
-1.550000000e-02	2.678538234e-01	-3.894974146e-04	1.758244850e-11
-1.560000000e-02	2.678538224e-01	-3.867841068e-04	7.185412356e-11
-1.570000000e-02	2.678538213e-01	-3.840707992e-04	1.800872152e-11
-1.580000000e-02	2.678538202e-01	-3.813574917e-04	2.798289062e-12
-1.590000000e-02	2.678538189e-01	-3.786441844e-04	9.329309543e-12
-1.600000000e-02	2.678538176e-01	-3.759308772e-04	2.629498649e-11
-1.610000000e-02	2.678538162e-01	-3.732175702e-04	2.052234111e-11
-1.620000000e-02	2.678538148e-01	-3.705042634e-04	2.499443677e-11
-1.630000000e-02	2.678538132e-01	-3.677909568e-04	5.531386819e-11
-1.640000000e-02	2.678538116e-01	-3.650776504e-04	7.607866946e-12
-1.650000000e-02	2.678538098e-01	-3.623643441e-04	2.125158622e-11
-1.660000000e-02	2.678538080e-01	-3.596510381e-04	1.873697459e-11
-1.670000000e-02	2.678538062e-01	-3.569377322e-04	9.134734074e-12
-1.680000000e-02	2.678538042e-01	-3.542244265e-04	1.849617400e-11
-1.690000000e-02	2.678538021e-01	-3.515111211e-04	3.289501428e-11
-1.700000000e-02	2.678538000e-01	-3.487978158e-04	9.692820637e-12
-1.710000000e-02	2.678537978e-01	-3.460845108e-04	1.942407239e-12
-1.720000000e-02	2.678537955e-01	-3.433712059e-04	4.537426001e-11
-1.730000000e-02	2.678537931e-01	-3.406579013e-04	2.203688102e-11
-1.740000000e-02	2.678537906e-01	-3.379445969e-04	1.821336615e-11
-1.750000000e-02	2.678537881e-01	-3.352312928e-04	3.573618064e-12
-1.760000000e-02	2.678537855e-01	-3.325179889e-04	1.327272489e-11
-1.770000000e-02	2.678537827e-01	-3.298046852e-04	3.457841395e-11
-1.780000000e-02	2.678537800e-01	-3.270913817e-04	8.628439116e-12
-1.790000000e-02	2.678537771e-01	-3.243780785e-04	1.248296130e-11
-1.800000000e-02	2.678537741e-01	-3.216647756e-04	2.026036251e-11
-1.810000000e-02	2.678537711e-01	-3.189514729e-04	1.210405253e-11
-1.820000000e-02	2.678537680e-01	-3.162381705e-04	1.272381260e-11
-1.830000000e-02	2.678537647e-01	-3.135248683e-04	2.675864562e-11
-1.840000000e-02	2.678537615e-01	-3.108115664e-04	1.072650543e-11
-1.850000000e-02	2.678537581e-01	-3.080982647e-04	3.443115405e-11
-1.860000000e-02	2.678537546e-01	-3.053849634e-04	1.018599568e-11
-1.870000000e-02	2.678537511e-01	-3.026716623e-04	6.542849362e-12
-1.880000000e-02	2.678537475e-01	-2.999583615e-04	2.043828440e-11
-1.890000000e-02	2.678537438e-01	-2.972450610e-04	3.465806452e-11
-1.900000000e-02	2.678537400e-01	-2.945317608e-04	1.007849472e-11
-1.910000000e-02	2.678537361e-01	-2.918184609e-04	3.628021108e-11
-1.920000000e-02	2.678537322e-01	-2.891051612e-04	3.349990076e-11
-1.930000000e-02	2.678537282e-01	-2.863918619e-04	6.888718495e-12
-1.940000000e-02	2.678537240e-01	-2.836785629e-04	1.194023994e-12
-1.950000000e-02	2.678537199e-01	-2.809652642e-04	1.330064507e-11
-1.960000000e-02	2.678537156e-01	-2.782519658e-04	1.271227109e-11
-1.970000000e-02	2.678537112e-01	-2.755386677e-04	5.009553734e-11
-1.980000000e-02	2.678537068e-01	-2.728253700e-04	2.610746040e-11
-1.990000000e-02	2.678537022e-01	-2.701120726e-04	2.358367229e-11
-2.000000000e-02	2.678536976e-01	-2.673987755e-04	1.034819557e-10
-2.010000000e-02	2.678536930e-01	-2.646854788e-04	2.213934782e-11
-2.020000000e-02	2.678536882e-01	-2.619721824e-04	8.671667618e-12
-2.030000000e-02	2.678536833e-01	-2.592588863e-04	4.676020730e-11
-2.040000000e-02	2.678536784e-01	-2.565455906e-04	2.660919700e-11
-2.050000000e-02	2.678536734e-01	-2.538322953e-04	3.024094386e-11
-2.060000000e-02	2.678536683e-01	-2.511190003e-04	6.913922208e-12
-2.070000000e-02	2.678536631e-01	-2.484057057e-04	9.122065885e-12
-2.080000000e-02	2.678536578e-01	-2.456924114e-04	3.260301210e-12
-2.090000000e-02	2.678536525e-01	-2.429791175e-04	9.684940477e-12
-2.100000000e-02	2.678536470e-01	-2.402658240e-04	1.489627745e-11
-2.110000000e-02	2.678536415e-01	-2.375525309e-04	6.879364201e-12
-2.120000000e-02	2.678536359e-01	-2.348392381e-04	1.031673417e-11
-2.130000000e-02	2.678536303e-01	-2.321259458e-04	9.054594488e-12
-2.140000000e-02	2.678536245e-01	-2.294126538e-04	1.006233611e-11
-2.150000000e-02	2.678536186e-01	-2.266993622e-04	8.543475046e-12
-2.160000000e-02	2.678536127e-01	-2.239860710e-04	3.483289813e-11
-2.170000000e-02	2.678536067e-01	-2.212727803e-04	1.348750577e-11
-2.180000000e-02	2.678536006e-01	-2.185594899e-04	1.214720321e-11
-2.190000000e-02	2.678535944e-01	-2.158461999e-04	1.830949526e-11
-2.200000000e-02	2.678535882e-01	-2.131329104e-04	1.350894409e-11
-2.210000000e-02	2.678535819e-01	-2.104196213e-04	6.233889376e-11
-2.220000000e-02	2.678535754e-01	-2.077063326e-04	1.371828900e-11
-2.230000000e-02	2.678535689e-01	-2.049930443e-04	1.269041075e-11
-2.240000000e-02	2.678535623e-01	-2.022797565e-04	1.814541989e-11
-2.250000000e-02	2.678535557e-01	-1.995664691e-04	1.181226108e-11
-2.260000000e-02	2.678535489e-01	-1.968531822e-04	1.389883979e-11
-2.270000000e-02	2.678535421e-01	-1.941398957e-04	1.730547048e-12
-2.280000000e-02	2.678535352e-01	-1.914266096e-04	8.506080128e-12
-2.290000000e-02	2.678535282e-01	-1.887133240e-04	1.501955493e-11
-2.300000000e-02	2.678535211e-01	-1.860000389e-04	1.240737759e-11
-2.310000000e-02	2.678535139e-01	-1.832867542e-04	6.760593581e-12
-2.320000000e-02	2.678535067e-01	-1.805734700e-04	3.831862994e-12
-2.330000000e-02	2.678534994e-01	-1.778601862e-04	2.235460891e-11
-2.340000000e-02	2.678534920e-01	-1.751469030e-04	4.823667984e-12
-2.350000000e-02	2.678534845e-01	-1.724336202e-04	1.642703112e-11
-2.360000000e-02	2.678534769e-01	-1.697203379e-04	3.922785448e-11
-2.370000000e-02	2.678534692e-01	-1.670070561e-04	1.248542691e-11
-2.380000000e-02	2.678534615e-01	-1.642937747e-04	1.353449723e-11
-2.390000000e-02	2.678534537e-01	-1.615804939e-04	4.671466770e-11
-2.400000000e-02	2.678534458e-01	-1.588672136e-04	8.902701408e-12
-2.410000000e-02	2.678534378e-01	-1.561539338e-04	1.476509024e-11
-2.420000000e-02	2.678534297e-01	-1.534406544e-04	1.240277811e-11
-2.430000000e-02	2.678534216e-01	-1.507273756e-04	5.780623561e-11
-2.440000000e-02	2.678534133e-01	-1.480140974e-04	1.156578882e-11
-2.450000000e-02	2.678534050e-01	-1.453008196e-04	6.794687699e-12
-2.460000000e-02	2.678533966e-01	-1.425875423e-04	9.808032498e-12
-2.470000000e-02	2.678533881e-01	-1.398742656e-04	3.617473604e-11
-2.480000000e-02	2.678533796e-01	-1.371609895e-04	1.117038456e-11
-2.490000000e-02	2.678533709e-01	-1.344477138e-04	1.660509756e-11
-2.500000000e-02	2.678533622e-01	-1.317344387e-04	9.809394489e-12
-2.510000000e-02	2.678533534e-01	-1.290211642e-04	2.212639340e-11
-2.520000000e-02	2.678533445e-01	-1.263078902e-04	4.415521120e-11
-2.530000000e-02	2.678533355e-01	-1.235946167e-04	1.311030791e-11
-2.540000000e-02	2.678533265e-01	-1.208813438e-04	7.669337378e-12
-2.550000000e-02	2.678533173e-01	-1.181680715e-04	3.165217445e-11
-2.560000000e-02	2.678533081e-01	-1.154547997e-04	4.705937166e-11
-2.570000000e-02	2.678532988e-01	-1.127415286e-04	1.168646061e-11
-2.580000000e-02	2.678532894e-01	-1.100282579e-04	6.132913865e-12
-2.590000000e-02	2.678532799e-01	-1.073149879e-04	2.015754919e-12
-2.600000000e-02	2.678532704e-01	-1.046017185e-04	3.181099894e-11
-2.610000000e-02	2.678532608e-01	-1.018884496e-04	8.443339895e-12
-2.620000000e-02	2.678532510e-01	-9.917518131e-05	1.234726429e-11
-2.630000000e-02	2.678532412e-01	-9.646191364e-05	1.297373161e-11
-2.640000000e-02	2.678532314e-01	-9.374864656e-05	2.780389187e-11
-2.650000000e-02	2.678532214e-01	-9.103538009e-05	1.204943407e-11
-2.660000000e-02	2.678532113e-01	-8.832211423e-05	1.223855927e-11
-2.670000000e-02	2.678532012e-01	-8.560884897e-05	2.473242426e-11
-2.680000000e-02	2.678531910e-01	-8.289558434e-05	1.261569204e-11
-2.690000000e-02	2.678531807e-01	-8.018232033e-05	8.216498065e-12
-2.700000000e-02	2.678531703e-01	-7.746905694e-05	7.243425846e-12
-2.710000000e-02	2.678531599e-01	-7.475579418e-05	2.716504748e-11
-2.720000000e-02	2.678531493e-01	-7.204253206e-05	5.805323799e-12
-2.730000000e-02	2.678531387e-01	-6.932927057e-05	7.665808944e-12
-2.740000000e-02	2.678531280e-01	-6.661600972e-05	3.437332664e-11
-2.750000000e-02	2.678531172e-01	-6.390274952e-05	1.091593305e-11
-2.760000000e-02	2.678531063e-01	-6.118948998e-05	4.640751288e-11
-2.770000000e-02	2.678530954e-01	-5.847623108e-05	1.232819531e-11
-2.780000000e-02	2.678530844e-01	-5.576297284e-05	1.031479399e-11
-2.790000000e-02	2.678530732e-01	-5.304971527e-05	1.318327700e-11
-2.800000000e-02	2.678530620e-01	-5.033645837e-05	1.218269685e-10
-2.810000000e-02	2.678530508e-01	-4.762320213e-05	2.721905355e-11
-2.820000000e-02	2.678530394e-01	-4.490994657e-05	8.324940934e-12
-2.830000000e-02	2.678530279e-01	-4.219669169e-05	5.925569661e-11
-2.840000000e-02	2.678530164e-01	-3.948343749e-05	1.116053324e-11
-2.850000000e-02	2.678530048e-01	-3.677018398e-05	3.482758751e-11
-2.860000000e-02	2.678529931e-01	-3.405693116e-05	9.192800644e-12
-2.870000000e-02	2.678529813e-01	-3.134367904e-05	1.665186762e-11
-2.880000000e-02	2.678529695e-01	-2.863042762e-05	2.137559181e-11
-2.890000000e-02	2.678529575e-01	-2.591717690e-05	1.020570594e-11
-2.900000000e-02	2.678529455e-01	-2.320392689e-05	1.562532771e-11
-2.910000000e-02	2.678529334e-01	-2.049067760e-05	2.914406287e-11
-2.920000000e-02	2.678529212e-01	-1.777742902e-05	1.775206059e-11
-2.930000000e-02	2.678529089e-01	-1.506418116e-05	1.174223694e-11
-2.940000000e-02	2.678528966e-01	-1.235093403e-05	6.376065590e-11
-2.950000000e-02	2.678528841e-01	-9.637687625e-06	1.434657889e-11
-2.960000000e-02	2.678528716e-01	-6.924441957e-06	1.573445985e-11
-2.970000000e-02	2.678528590e-01	-4.211197024e-06	5.857905532e-12
-2.980000000e-02	2.678528463e-01	-1.497952835e-06	2.301558696e-11
-2.990000000e-02	2.678528336e-01	1.215290609e-06	1.966934053e-11
-3.000000000e-02	2.678528207e-01	3.928533302e-06	1.002297569e-11
