# Im(epsi1)     Re(omega/c)      Im(omega/c)      Eq(det).Opt det CON kz, R=0.5 \mum, mu_c=0.3, Re(epsi1)=3.90solve_det_conkz_vs_kz.py
0.000000000e+00	2.678516545e-01	-8.100535608e-04	5.144210204e-11
-1.000000000e-04	2.678516663e-01	-8.073402901e-04	5.948931595e-12
-2.000000000e-04	2.678516780e-01	-8.046270189e-04	1.088546233e-11
-3.000000000e-04	2.678516896e-01	-8.019137473e-04	1.003902822e-11
-4.000000000e-04	2.678517012e-01	-7.992004751e-04	2.753925650e-11
-5.000000000e-04	2.678517126e-01	-7.964872025e-04	1.036158901e-11
-6.000000000e-04	2.678517240e-01	-7.937739294e-04	1.797317388e-11
-7.000000000e-04	2.678517353e-01	-7.910606558e-04	2.787312519e-11
-8.000000000e-04	2.678517465e-01	-7.883473818e-04	1.697554816e-11
-9.000000000e-04	2.678517577e-01	-7.856341073e-04	6.680848343e-12
-1.000000000e-03	2.678517687e-01	-7.829208324e-04	1.585334714e-11
-1.100000000e-03	2.678517797e-01	-7.802075569e-04	3.371323173e-11
-1.200000000e-03	2.678517906e-01	-7.774942811e-04	1.747799122e-11
-1.300000000e-03	2.678518014e-01	-7.747810048e-04	1.015635462e-11
-1.400000000e-03	2.678518121e-01	-7.720677280e-04	9.820672204e-12
-1.500000000e-03	2.678518228e-01	-7.693544508e-04	1.251092557e-11
-1.600000000e-03	2.678518333e-01	-7.666411732e-04	2.050662786e-11
-1.700000000e-03	2.678518438e-01	-7.639278951e-04	2.340323697e-11
-1.800000000e-03	2.678518542e-01	-7.612146166e-04	2.092611456e-11
-1.900000000e-03	2.678518645e-01	-7.585013377e-04	1.004964479e-11
-2.000000000e-03	2.678518747e-01	-7.557880584e-04	1.270731307e-11
-2.100000000e-03	2.678518849e-01	-7.530747787e-04	3.538866556e-12
-2.200000000e-03	2.678518949e-01	-7.503614985e-04	2.339922577e-11
-2.300000000e-03	2.678519049e-01	-7.476482180e-04	1.149930945e-11
-2.400000000e-03	2.678519148e-01	-7.449349370e-04	8.186420148e-12
-2.500000000e-03	2.678519246e-01	-7.422216557e-04	5.309784270e-12
-2.600000000e-03	2.678519344e-01	-7.395083739e-04	1.108203131e-11
-2.700000000e-03	2.678519440e-01	-7.367950918e-04	1.280419007e-11
-2.800000000e-03	2.678519536e-01	-7.340818093e-04	1.543501132e-11
-2.900000000e-03	2.678519631e-01	-7.313685264e-04	1.391044474e-11
-3.000000000e-03	2.678519725e-01	-7.286552431e-04	6.990161642e-12
-3.100000000e-03	2.678519818e-01	-7.259419595e-04	8.381334169e-12
-3.200000000e-03	2.678519910e-01	-7.232286755e-04	8.778138012e-12
-3.300000000e-03	2.678520002e-01	-7.205153911e-04	8.183794894e-12
-3.400000000e-03	2.678520093e-01	-7.178021064e-04	1.410347411e-11
-3.500000000e-03	2.678520183e-01	-7.150888213e-04	1.094377615e-11
-3.600000000e-03	2.678520272e-01	-7.123755358e-04	3.357859532e-11
-3.700000000e-03	2.678520360e-01	-7.096622501e-04	1.260730789e-11
-3.800000000e-03	2.678520448e-01	-7.069489639e-04	2.131095991e-11
-3.900000000e-03	2.678520534e-01	-7.042356775e-04	1.743725028e-11
-4.000000000e-03	2.678520620e-01	-7.015223907e-04	1.927243979e-11
-4.100000000e-03	2.678520705e-01	-6.988091035e-04	1.504130953e-11
-4.200000000e-03	2.678520789e-01	-6.960958161e-04	1.127233281e-11
-4.300000000e-03	2.678520872e-01	-6.933825283e-04	7.882901616e-12
-4.400000000e-03	2.678520955e-01	-6.906692402e-04	6.989269504e-12
-4.500000000e-03	2.678521037e-01	-6.879559518e-04	1.250156128e-11
-4.600000000e-03	2.678521118e-01	-6.852426631e-04	1.100075481e-10
-4.700000000e-03	2.678521198e-01	-6.825293740e-04	7.630817842e-12
-4.800000000e-03	2.678521277e-01	-6.798160847e-04	9.081055492e-12
-4.900000000e-03	2.678521355e-01	-6.771027951e-04	1.921369219e-11
-5.000000000e-03	2.678521433e-01	-6.743895052e-04	8.016203580e-12
-5.100000000e-03	2.678521509e-01	-6.716762150e-04	4.078894814e-11
-5.200000000e-03	2.678521585e-01	-6.689629245e-04	9.115445107e-12
-5.300000000e-03	2.678521660e-01	-6.662496337e-04	8.818419887e-12
-5.400000000e-03	2.678521735e-01	-6.635363427e-04	1.332939639e-11
-5.500000000e-03	2.678521808e-01	-6.608230514e-04	2.269975380e-11
-5.600000000e-03	2.678521881e-01	-6.581097598e-04	2.279901880e-11
-5.700000000e-03	2.678521953e-01	-6.553964679e-04	1.700670401e-11
-5.800000000e-03	2.678522024e-01	-6.526831758e-04	2.649839079e-11
-5.900000000e-03	2.678522094e-01	-6.499698835e-04	1.230592533e-11
-6.000000000e-03	2.678522163e-01	-6.472565909e-04	3.566330308e-12
-6.100000000e-03	2.678522232e-01	-6.445432980e-04	3.340077164e-11
-6.200000000e-03	2.678522299e-01	-6.418300049e-04	9.767979250e-12
-6.300000000e-03	2.678522366e-01	-6.391167116e-04	1.057477350e-11
-6.400000000e-03	2.678522432e-01	-6.364034180e-04	5.858970280e-12
-6.500000000e-03	2.678522497e-01	-6.336901242e-04	2.170265871e-11
-6.600000000e-03	2.678522562e-01	-6.309768302e-04	7.833603432e-12
-6.700000000e-03	2.678522625e-01	-6.282635359e-04	2.430798805e-11
-6.800000000e-03	2.678522688e-01	-6.255502414e-04	1.100725382e-11
-6.900000000e-03	2.678522750e-01	-6.228369468e-04	4.188467332e-11
-7.000000000e-03	2.678522811e-01	-6.201236519e-04	1.904990858e-11
-7.100000000e-03	2.678522871e-01	-6.174103568e-04	8.185516986e-12
-7.200000000e-03	2.678522931e-01	-6.146970615e-04	4.735690757e-11
-7.300000000e-03	2.678522989e-01	-6.119837660e-04	1.538680621e-11
-7.400000000e-03	2.678523047e-01	-6.092704703e-04	2.161392118e-11
-7.500000000e-03	2.678523104e-01	-6.065571744e-04	1.667483870e-11
-7.600000000e-03	2.678523160e-01	-6.038438784e-04	1.317605543e-11
-7.700000000e-03	2.678523215e-01	-6.011305821e-04	7.337654472e-12
-7.800000000e-03	2.678523270e-01	-5.984172857e-04	1.141463900e-11
-7.900000000e-03	2.678523324e-01	-5.957039891e-04	9.722514946e-12
-8.000000000e-03	2.678523376e-01	-5.929906924e-04	1.989502858e-11
-8.100000000e-03	2.678523428e-01	-5.902773955e-04	1.400079371e-11
-8.200000000e-03	2.678523480e-01	-5.875640984e-04	1.883346748e-11
-8.300000000e-03	2.678523530e-01	-5.848508012e-04	6.877357796e-12
-8.400000000e-03	2.678523580e-01	-5.821375038e-04	1.849943068e-11
-8.500000000e-03	2.678523628e-01	-5.794242063e-04	4.487543412e-11
-8.600000000e-03	2.678523676e-01	-5.767109086e-04	1.105855825e-11
-8.700000000e-03	2.678523723e-01	-5.739976108e-04	6.224916789e-12
-8.800000000e-03	2.678523769e-01	-5.712843129e-04	2.264414280e-11
-8.900000000e-03	2.678523815e-01	-5.685710148e-04	3.231936702e-11
-9.000000000e-03	2.678523859e-01	-5.658577166e-04	5.479966576e-11
-9.100000000e-03	2.678523903e-01	-5.631444183e-04	9.891452393e-12
-9.200000000e-03	2.678523946e-01	-5.604311198e-04	8.074677830e-12
-9.300000000e-03	2.678523988e-01	-5.577178213e-04	1.900370826e-11
-9.400000000e-03	2.678524030e-01	-5.550045226e-04	8.081725713e-12
-9.500000000e-03	2.678524070e-01	-5.522912239e-04	1.634870986e-11
-9.600000000e-03	2.678524110e-01	-5.495779250e-04	1.096159961e-11
-9.700000000e-03	2.678524149e-01	-5.468646261e-04	5.066676404e-12
-9.800000000e-03	2.678524187e-01	-5.441513270e-04	1.081961464e-11
-9.900000000e-03	2.678524224e-01	-5.414380279e-04	8.806872165e-12
-1.000000000e-02	2.678524260e-01	-5.387247286e-04	1.402020376e-11
-1.010000000e-02	2.678524296e-01	-5.360114293e-04	1.755823567e-11
-1.020000000e-02	2.678524330e-01	-5.332981300e-04	8.902780578e-11
-1.030000000e-02	2.678524364e-01	-5.305848305e-04	8.158194972e-12
-1.040000000e-02	2.678524397e-01	-5.278715310e-04	1.097022079e-11
-1.050000000e-02	2.678524429e-01	-5.251582314e-04	7.322325382e-12
-1.060000000e-02	2.678524461e-01	-5.224449318e-04	7.817026867e-12
-1.070000000e-02	2.678524491e-01	-5.197316321e-04	5.236631348e-12
-1.080000000e-02	2.678524521e-01	-5.170183323e-04	1.817561617e-11
-1.090000000e-02	2.678524550e-01	-5.143050325e-04	4.402246060e-11
-1.100000000e-02	2.678524578e-01	-5.115917327e-04	1.009150192e-11
-1.110000000e-02	2.678524606e-01	-5.088784328e-04	1.054270190e-11
-1.120000000e-02	2.678524632e-01	-5.061651329e-04	9.666600616e-12
-1.130000000e-02	2.678524658e-01	-5.034518330e-04	1.354625745e-11
-1.140000000e-02	2.678524682e-01	-5.007385330e-04	1.373901436e-11
-1.150000000e-02	2.678524706e-01	-4.980252331e-04	3.158079503e-11
-1.160000000e-02	2.678524730e-01	-4.953119331e-04	1.075544324e-11
-1.170000000e-02	2.678524752e-01	-4.925986330e-04	7.568253169e-12
-1.180000000e-02	2.678524774e-01	-4.898853330e-04	4.053647413e-11
-1.190000000e-02	2.678524794e-01	-4.871720330e-04	9.737274086e-12
-1.200000000e-02	2.678524814e-01	-4.844587330e-04	9.193011942e-12
-1.210000000e-02	2.678524833e-01	-4.817454329e-04	8.703797219e-12
-1.220000000e-02	2.678524851e-01	-4.790321329e-04	1.425422770e-11
-1.230000000e-02	2.678524869e-01	-4.763188329e-04	9.626158830e-12
-1.240000000e-02	2.678524885e-01	-4.736055329e-04	1.112887999e-11
-1.250000000e-02	2.678524901e-01	-4.708922330e-04	1.245618727e-11
-1.260000000e-02	2.678524916e-01	-4.681789330e-04	2.257234688e-11
-1.270000000e-02	2.678524930e-01	-4.654656331e-04	1.926343731e-11
-1.280000000e-02	2.678524943e-01	-4.627523332e-04	3.412766484e-11
-1.290000000e-02	2.678524956e-01	-4.600390334e-04	9.145005283e-12
-1.300000000e-02	2.678524967e-01	-4.573257336e-04	9.373289692e-12
-1.310000000e-02	2.678524978e-01	-4.546124338e-04	5.733747894e-12
-1.320000000e-02	2.678524988e-01	-4.518991341e-04	2.230155529e-11
-1.330000000e-02	2.678524997e-01	-4.491858345e-04	1.739343537e-11
-1.340000000e-02	2.678525006e-01	-4.464725349e-04	2.294185370e-11
-1.350000000e-02	2.678525013e-01	-4.437592353e-04	2.226168488e-11
-1.360000000e-02	2.678525020e-01	-4.410459359e-04	5.647996508e-11
-1.370000000e-02	2.678525026e-01	-4.383326365e-04	2.661858318e-11
-1.380000000e-02	2.678525031e-01	-4.356193371e-04	1.250703709e-11
-1.390000000e-02	2.678525035e-01	-4.329060379e-04	6.983460533e-12
-1.400000000e-02	2.678525038e-01	-4.301927387e-04	1.795242782e-11
-1.410000000e-02	2.678525041e-01	-4.274794397e-04	4.071672179e-12
-1.420000000e-02	2.678525043e-01	-4.247661407e-04	8.823219303e-12
-1.430000000e-02	2.678525044e-01	-4.220528418e-04	3.468393456e-11
-1.440000000e-02	2.678525044e-01	-4.193395430e-04	1.382574935e-11
-1.450000000e-02	2.678525043e-01	-4.166262443e-04	1.097496444e-11
-1.460000000e-02	2.678525041e-01	-4.139129457e-04	2.261314224e-11
-1.470000000e-02	2.678525039e-01	-4.111996473e-04	1.301931739e-11
-1.480000000e-02	2.678525036e-01	-4.084863489e-04	1.640268403e-11
-1.490000000e-02	2.678525032e-01	-4.057730507e-04	1.843254790e-11
-1.500000000e-02	2.678525027e-01	-4.030597526e-04	2.073430566e-11
-1.510000000e-02	2.678525021e-01	-4.003464546e-04	1.965851013e-11
-1.520000000e-02	2.678525015e-01	-3.976331568e-04	1.816855485e-11
-1.530000000e-02	2.678525007e-01	-3.949198591e-04	1.340871561e-11
-1.540000000e-02	2.678524999e-01	-3.922065615e-04	1.191052453e-11
-1.550000000e-02	2.678524990e-01	-3.894932641e-04	2.424845325e-11
-1.560000000e-02	2.678524980e-01	-3.867799668e-04	1.510803443e-11
-1.570000000e-02	2.678524970e-01	-3.840666697e-04	4.319858965e-12
-1.580000000e-02	2.678524958e-01	-3.813533728e-04	1.996935386e-11
-1.590000000e-02	2.678524946e-01	-3.786400760e-04	1.576562305e-11
-1.600000000e-02	2.678524933e-01	-3.759267793e-04	8.386803768e-12
-1.610000000e-02	2.678524919e-01	-3.732134829e-04	1.355977256e-11
-1.620000000e-02	2.678524904e-01	-3.705001866e-04	1.032860630e-11
-1.630000000e-02	2.678524889e-01	-3.677868905e-04	1.881928595e-11
-1.640000000e-02	2.678524872e-01	-3.650735946e-04	7.506115353e-11
-1.650000000e-02	2.678524855e-01	-3.623602988e-04	4.505929351e-12
-1.660000000e-02	2.678524837e-01	-3.596470033e-04	1.093402911e-11
-1.670000000e-02	2.678524818e-01	-3.569337080e-04	2.570993301e-11
-1.680000000e-02	2.678524798e-01	-3.542204128e-04	1.234920185e-11
-1.690000000e-02	2.678524778e-01	-3.515071179e-04	2.841372279e-11
-1.700000000e-02	2.678524757e-01	-3.487938231e-04	1.210581615e-11
-1.710000000e-02	2.678524734e-01	-3.460805286e-04	1.640508580e-11
-1.720000000e-02	2.678524711e-01	-3.433672343e-04	1.117602543e-11
-1.730000000e-02	2.678524688e-01	-3.406539402e-04	1.101675523e-11
-1.740000000e-02	2.678524663e-01	-3.379406464e-04	1.382430898e-11
-1.750000000e-02	2.678524638e-01	-3.352273527e-04	8.291571515e-12
-1.760000000e-02	2.678524611e-01	-3.325140593e-04	1.631974659e-11
-1.770000000e-02	2.678524584e-01	-3.298007662e-04	1.238377936e-11
-1.780000000e-02	2.678524556e-01	-3.270874732e-04	8.741770250e-12
-1.790000000e-02	2.678524527e-01	-3.243741806e-04	5.257156550e-11
-1.800000000e-02	2.678524498e-01	-3.216608881e-04	6.831927521e-11
-1.810000000e-02	2.678524467e-01	-3.189475960e-04	3.259799129e-11
-1.820000000e-02	2.678524436e-01	-3.162343041e-04	9.669518851e-12
-1.830000000e-02	2.678524404e-01	-3.135210124e-04	1.659352863e-11
-1.840000000e-02	2.678524371e-01	-3.108077210e-04	1.417323630e-11
-1.850000000e-02	2.678524338e-01	-3.080944299e-04	2.139172008e-11
-1.860000000e-02	2.678524303e-01	-3.053811391e-04	2.759589334e-11
-1.870000000e-02	2.678524268e-01	-3.026678485e-04	9.768249385e-12
-1.880000000e-02	2.678524231e-01	-2.999545582e-04	5.230730631e-12
-1.890000000e-02	2.678524194e-01	-2.972412682e-04	1.600171147e-11
-1.900000000e-02	2.678524157e-01	-2.945279785e-04	4.637915203e-12
-1.910000000e-02	2.678524118e-01	-2.918146891e-04	2.242221841e-11
-1.920000000e-02	2.678524079e-01	-2.891014000e-04	3.592594561e-11
-1.930000000e-02	2.678524038e-01	-2.863881112e-04	1.470913546e-11
-1.940000000e-02	2.678523997e-01	-2.836748227e-04	8.209342925e-12
-1.950000000e-02	2.678523955e-01	-2.809615346e-04	4.654046019e-12
-1.960000000e-02	2.678523912e-01	-2.782482467e-04	2.249637232e-11
-1.970000000e-02	2.678523869e-01	-2.755349592e-04	1.837960604e-11
-1.980000000e-02	2.678523824e-01	-2.728216719e-04	8.410308734e-12
-1.990000000e-02	2.678523779e-01	-2.701083851e-04	4.093260447e-11
-2.000000000e-02	2.678523733e-01	-2.673950985e-04	7.958494653e-12
-2.010000000e-02	2.678523686e-01	-2.646818123e-04	1.195330598e-11
-2.020000000e-02	2.678523638e-01	-2.619685264e-04	8.507302157e-12
-2.030000000e-02	2.678523590e-01	-2.592552409e-04	1.352013339e-11
-2.040000000e-02	2.678523541e-01	-2.565419557e-04	1.517699598e-11
-2.050000000e-02	2.678523490e-01	-2.538286709e-04	8.828905910e-12
-2.060000000e-02	2.678523439e-01	-2.511153864e-04	8.023906274e-12
-2.070000000e-02	2.678523387e-01	-2.484021023e-04	4.969559137e-12
-2.080000000e-02	2.678523335e-01	-2.456888186e-04	1.089036590e-11
-2.090000000e-02	2.678523281e-01	-2.429755352e-04	1.843464504e-11
-2.100000000e-02	2.678523227e-01	-2.402622522e-04	1.022531428e-11
-2.110000000e-02	2.678523172e-01	-2.375489696e-04	8.307791181e-12
-2.120000000e-02	2.678523116e-01	-2.348356874e-04	3.260006187e-11
-2.130000000e-02	2.678523059e-01	-2.321224055e-04	1.325234147e-11
-2.140000000e-02	2.678523002e-01	-2.294091241e-04	7.460642850e-12
-2.150000000e-02	2.678522943e-01	-2.266958430e-04	1.553171055e-11
-2.160000000e-02	2.678522884e-01	-2.239825623e-04	1.065239088e-11
-2.170000000e-02	2.678522824e-01	-2.212692821e-04	9.060742131e-12
-2.180000000e-02	2.678522763e-01	-2.185560023e-04	1.224013297e-11
-2.190000000e-02	2.678522701e-01	-2.158427228e-04	1.052854330e-11
-2.200000000e-02	2.678522639e-01	-2.131294438e-04	1.797084988e-11
-2.210000000e-02	2.678522575e-01	-2.104161652e-04	1.031093308e-11
-2.220000000e-02	2.678522511e-01	-2.077028870e-04	7.458112441e-12
-2.230000000e-02	2.678522446e-01	-2.049896093e-04	1.843722121e-11
-2.240000000e-02	2.678522380e-01	-2.022763320e-04	1.021476201e-11
-2.250000000e-02	2.678522313e-01	-1.995630551e-04	1.024784264e-10
-2.260000000e-02	2.678522246e-01	-1.968497787e-04	1.604520312e-11
-2.270000000e-02	2.678522178e-01	-1.941365027e-04	3.826722109e-11
-2.280000000e-02	2.678522108e-01	-1.914232272e-04	2.139817526e-11
-2.290000000e-02	2.678522038e-01	-1.887099521e-04	1.266342074e-11
-2.300000000e-02	2.678521968e-01	-1.859966775e-04	6.642956728e-12
-2.310000000e-02	2.678521896e-01	-1.832834033e-04	2.782286956e-11
-2.320000000e-02	2.678521824e-01	-1.805701296e-04	1.733686457e-11
-2.330000000e-02	2.678521750e-01	-1.778568564e-04	1.098030615e-11
-2.340000000e-02	2.678521676e-01	-1.751435837e-04	3.303133272e-11
-2.350000000e-02	2.678521601e-01	-1.724303114e-04	1.495456295e-11
-2.360000000e-02	2.678521526e-01	-1.697170396e-04	1.122181920e-11
-2.370000000e-02	2.678521449e-01	-1.670037683e-04	3.613051207e-12
-2.380000000e-02	2.678521372e-01	-1.642904975e-04	6.552328306e-12
-2.390000000e-02	2.678521293e-01	-1.615772272e-04	2.505302442e-11
-2.400000000e-02	2.678521214e-01	-1.588639574e-04	2.578782555e-11
-2.410000000e-02	2.678521134e-01	-1.561506881e-04	1.765354664e-11
-2.420000000e-02	2.678521054e-01	-1.534374193e-04	4.484835890e-11
-2.430000000e-02	2.678520972e-01	-1.507241510e-04	2.446228180e-11
-2.440000000e-02	2.678520890e-01	-1.480108833e-04	6.595086999e-12
-2.450000000e-02	2.678520807e-01	-1.452976160e-04	1.969631420e-11
-2.460000000e-02	2.678520723e-01	-1.425843493e-04	1.061328646e-11
-2.470000000e-02	2.678520638e-01	-1.398710831e-04	2.847922024e-11
-2.480000000e-02	2.678520552e-01	-1.371578175e-04	1.757189658e-11
-2.490000000e-02	2.678520466e-01	-1.344445524e-04	1.833648178e-11
-2.500000000e-02	2.678520379e-01	-1.317312878e-04	1.182468606e-11
-2.510000000e-02	2.678520291e-01	-1.290180237e-04	1.386981377e-11
-2.520000000e-02	2.678520202e-01	-1.263047603e-04	9.412950518e-11
-2.530000000e-02	2.678520112e-01	-1.235914973e-04	1.341285327e-11
-2.540000000e-02	2.678520021e-01	-1.208782350e-04	9.675791455e-12
-2.550000000e-02	2.678519930e-01	-1.181649732e-04	1.876500343e-11
-2.560000000e-02	2.678519838e-01	-1.154517119e-04	4.432979000e-11
-2.570000000e-02	2.678519745e-01	-1.127384513e-04	2.035863280e-11
-2.580000000e-02	2.678519651e-01	-1.100251912e-04	8.521224543e-12
-2.590000000e-02	2.678519556e-01	-1.073119316e-04	1.498665838e-11
-2.600000000e-02	2.678519460e-01	-1.045986727e-04	1.463545639e-11
-2.610000000e-02	2.678519364e-01	-1.018854144e-04	9.091505226e-12
-2.620000000e-02	2.678519267e-01	-9.917215663e-05	1.510029326e-11
-2.630000000e-02	2.678519169e-01	-9.645889947e-05	1.790105495e-11
-2.640000000e-02	2.678519070e-01	-9.374564292e-05	1.093794763e-11
-2.650000000e-02	2.678518971e-01	-9.103238697e-05	7.497194232e-12
-2.660000000e-02	2.678518870e-01	-8.831913162e-05	1.507674118e-11
-2.670000000e-02	2.678518769e-01	-8.560587690e-05	1.480524281e-11
-2.680000000e-02	2.678518667e-01	-8.289262278e-05	2.372199394e-11
-2.690000000e-02	2.678518564e-01	-8.017936929e-05	3.403756721e-11
-2.700000000e-02	2.678518460e-01	-7.746611643e-05	1.787610682e-11
-2.710000000e-02	2.678518355e-01	-7.475286419e-05	1.278382923e-11
-2.720000000e-02	2.678518250e-01	-7.203961259e-05	4.294004108e-11
-2.730000000e-02	2.678518144e-01	-6.932636162e-05	1.274981591e-11
-2.740000000e-02	2.678518037e-01	-6.661311130e-05	1.674141943e-11
-2.750000000e-02	2.678517929e-01	-6.389986162e-05	8.169629904e-12
-2.760000000e-02	2.678517820e-01	-6.118661259e-05	1.921470859e-11
-2.770000000e-02	2.678517710e-01	-5.847336422e-05	7.305305899e-12
-2.780000000e-02	2.678517600e-01	-5.576011651e-05	2.471585847e-11
-2.790000000e-02	2.678517489e-01	-5.304686945e-05	3.620552915e-11
-2.800000000e-02	2.678517377e-01	-5.033362307e-05	1.799511882e-11
-2.810000000e-02	2.678517264e-01	-4.762037735e-05	1.199356037e-11
-2.820000000e-02	2.678517150e-01	-4.490713231e-05	1.526601264e-11
-2.830000000e-02	2.678517036e-01	-4.219388796e-05	9.487699531e-12
-2.840000000e-02	2.678516921e-01	-3.948064428e-05	8.417553026e-12
-2.850000000e-02	2.678516805e-01	-3.676740129e-05	2.149187293e-11
-2.860000000e-02	2.678516688e-01	-3.405415900e-05	1.998030827e-11
-2.870000000e-02	2.678516570e-01	-3.134091740e-05	1.008329562e-11
-2.880000000e-02	2.678516451e-01	-2.862767650e-05	1.558027164e-11
-2.890000000e-02	2.678516332e-01	-2.591443630e-05	1.687951218e-11
-2.900000000e-02	2.678516212e-01	-2.320119681e-05	1.105257854e-11
-2.910000000e-02	2.678516090e-01	-2.048795804e-05	8.705661535e-12
-2.920000000e-02	2.678515969e-01	-1.777471998e-05	1.198181698e-11
-2.930000000e-02	2.678515846e-01	-1.506148265e-05	9.629247874e-12
-2.940000000e-02	2.678515722e-01	-1.234824604e-05	8.442579334e-12
-2.950000000e-02	2.678515598e-01	-9.635010155e-06	7.935168671e-12
-2.960000000e-02	2.678515473e-01	-6.921775006e-06	3.280030518e-11
-2.970000000e-02	2.678515347e-01	-4.208540597e-06	1.882097622e-11
-2.980000000e-02	2.678515220e-01	-1.495306929e-06	2.357255465e-11
-2.990000000e-02	2.678515092e-01	1.217925992e-06	2.026935625e-11
-3.000000000e-02	2.678514964e-01	3.931158164e-06	7.344540825e-12
