# Im(epsi1)     Re(omega/c)      Im(omega/c)      Eq(det).Opt det CON kz, R=0.5 \mum, mu_c=0.3, Re(epsi1)=3.90solve_det_conkz_vs_kz.py
0.000000000e+00	2.678480703e-01	-8.100379146e-04	1.121470220e-11
-1.000000000e-04	2.678480821e-01	-8.073246724e-04	1.369634823e-11
-2.000000000e-04	2.678480938e-01	-8.046114297e-04	1.735975757e-11
-3.000000000e-04	2.678481055e-01	-8.018981865e-04	9.310774863e-12
-4.000000000e-04	2.678481170e-01	-7.991849428e-04	8.576875177e-12
-5.000000000e-04	2.678481285e-01	-7.964716987e-04	1.877980311e-11
-6.000000000e-04	2.678481399e-01	-7.937584540e-04	3.059478972e-11
-7.000000000e-04	2.678481512e-01	-7.910452089e-04	9.837123253e-12
-8.000000000e-04	2.678481624e-01	-7.883319634e-04	1.268562599e-11
-9.000000000e-04	2.678481735e-01	-7.856187174e-04	2.272198643e-11
-1.000000000e-03	2.678481846e-01	-7.829054709e-04	9.949662823e-12
-1.100000000e-03	2.678481955e-01	-7.801922239e-04	2.989423318e-11
-1.200000000e-03	2.678482064e-01	-7.774789765e-04	7.245714230e-12
-1.300000000e-03	2.678482172e-01	-7.747657287e-04	1.509455782e-11
-1.400000000e-03	2.678482280e-01	-7.720524804e-04	8.433573769e-11
-1.500000000e-03	2.678482386e-01	-7.693392317e-04	3.306007501e-11
-1.600000000e-03	2.678482492e-01	-7.666259825e-04	1.376734456e-11
-1.700000000e-03	2.678482596e-01	-7.639127330e-04	1.045779863e-11
-1.800000000e-03	2.678482700e-01	-7.611994829e-04	1.663431157e-11
-1.900000000e-03	2.678482803e-01	-7.584862325e-04	1.122704958e-11
-2.000000000e-03	2.678482906e-01	-7.557729817e-04	2.322786253e-11
-2.100000000e-03	2.678483007e-01	-7.530597304e-04	1.223728763e-11
-2.200000000e-03	2.678483108e-01	-7.503464787e-04	9.470243880e-12
-2.300000000e-03	2.678483208e-01	-7.476332266e-04	1.139249595e-11
-2.400000000e-03	2.678483307e-01	-7.449199742e-04	8.766890632e-12
-2.500000000e-03	2.678483405e-01	-7.422067213e-04	1.553736869e-11
-2.600000000e-03	2.678483502e-01	-7.394934680e-04	2.440922094e-12
-2.700000000e-03	2.678483599e-01	-7.367802144e-04	2.350328134e-11
-2.800000000e-03	2.678483694e-01	-7.340669603e-04	5.643035046e-11
-2.900000000e-03	2.678483789e-01	-7.313537059e-04	1.673458771e-11
-3.000000000e-03	2.678483883e-01	-7.286404511e-04	2.679580862e-11
-3.100000000e-03	2.678483977e-01	-7.259271959e-04	1.967692312e-11
-3.200000000e-03	2.678484069e-01	-7.232139404e-04	7.530627665e-11
-3.300000000e-03	2.678484161e-01	-7.205006845e-04	9.561360489e-12
-3.400000000e-03	2.678484251e-01	-7.177874282e-04	6.927750872e-12
-3.500000000e-03	2.678484341e-01	-7.150741716e-04	1.084353475e-11
-3.600000000e-03	2.678484430e-01	-7.123609147e-04	3.167520315e-11
-3.700000000e-03	2.678484519e-01	-7.096476573e-04	2.728381413e-11
-3.800000000e-03	2.678484606e-01	-7.069343997e-04	8.870747132e-12
-3.900000000e-03	2.678484693e-01	-7.042211417e-04	1.273859070e-11
-4.000000000e-03	2.678484778e-01	-7.015078834e-04	7.982729800e-12
-4.100000000e-03	2.678484863e-01	-6.987946247e-04	3.466967107e-11
-4.200000000e-03	2.678484948e-01	-6.960813657e-04	5.031168558e-12
-4.300000000e-03	2.678485031e-01	-6.933681064e-04	1.540516338e-11
-4.400000000e-03	2.678485113e-01	-6.906548468e-04	5.776659967e-11
-4.500000000e-03	2.678485195e-01	-6.879415869e-04	2.837466804e-11
-4.600000000e-03	2.678485276e-01	-6.852283266e-04	1.453268843e-11
-4.700000000e-03	2.678485356e-01	-6.825150661e-04	1.694244752e-11
-4.800000000e-03	2.678485435e-01	-6.798018052e-04	8.884877510e-12
-4.900000000e-03	2.678485514e-01	-6.770885441e-04	1.588450694e-11
-5.000000000e-03	2.678485591e-01	-6.743752826e-04	1.765934398e-11
-5.100000000e-03	2.678485668e-01	-6.716620209e-04	2.665136156e-11
-5.200000000e-03	2.678485744e-01	-6.689487589e-04	2.908893524e-11
-5.300000000e-03	2.678485819e-01	-6.662354966e-04	1.301940400e-11
-5.400000000e-03	2.678485893e-01	-6.635222340e-04	1.420454326e-11
-5.500000000e-03	2.678485967e-01	-6.608089712e-04	9.954516637e-12
-5.600000000e-03	2.678486039e-01	-6.580957081e-04	7.932495986e-12
-5.700000000e-03	2.678486111e-01	-6.553824447e-04	1.400732088e-11
-5.800000000e-03	2.678486182e-01	-6.526691810e-04	1.256213328e-10
-5.900000000e-03	2.678486252e-01	-6.499559172e-04	6.124571182e-11
-6.000000000e-03	2.678486321e-01	-6.472426530e-04	1.604103867e-11
-6.100000000e-03	2.678486390e-01	-6.445293886e-04	1.337419342e-11
-6.200000000e-03	2.678486458e-01	-6.418161240e-04	1.445497838e-11
-6.300000000e-03	2.678486524e-01	-6.391028592e-04	7.894423664e-12
-6.400000000e-03	2.678486591e-01	-6.363895941e-04	8.737352007e-12
-6.500000000e-03	2.678486656e-01	-6.336763287e-04	1.945367350e-11
-6.600000000e-03	2.678486720e-01	-6.309630632e-04	1.667588415e-11
-6.700000000e-03	2.678486784e-01	-6.282497974e-04	1.687646579e-11
-6.800000000e-03	2.678486846e-01	-6.255365314e-04	1.306229116e-11
-6.900000000e-03	2.678486908e-01	-6.228232652e-04	1.218612119e-11
-7.000000000e-03	2.678486969e-01	-6.201099988e-04	2.731935070e-11
-7.100000000e-03	2.678487030e-01	-6.173967322e-04	2.168739365e-11
-7.200000000e-03	2.678487089e-01	-6.146834653e-04	6.640583428e-12
-7.300000000e-03	2.678487148e-01	-6.119701983e-04	3.492163773e-11
-7.400000000e-03	2.678487205e-01	-6.092569311e-04	1.647032836e-11
-7.500000000e-03	2.678487262e-01	-6.065436637e-04	1.263814664e-11
-7.600000000e-03	2.678487319e-01	-6.038303961e-04	2.832864391e-11
-7.700000000e-03	2.678487374e-01	-6.011171284e-04	1.292509246e-11
-7.800000000e-03	2.678487428e-01	-5.984038604e-04	5.733703160e-11
-7.900000000e-03	2.678487482e-01	-5.956905923e-04	1.638509244e-11
-8.000000000e-03	2.678487535e-01	-5.929773240e-04	5.553771746e-12
-8.100000000e-03	2.678487587e-01	-5.902640556e-04	1.745431867e-11
-8.200000000e-03	2.678487638e-01	-5.875507870e-04	2.337831677e-11
-8.300000000e-03	2.678487688e-01	-5.848375182e-04	8.836842004e-12
-8.400000000e-03	2.678487738e-01	-5.821242493e-04	1.337518817e-11
-8.500000000e-03	2.678487787e-01	-5.794109803e-04	1.388649545e-11
-8.600000000e-03	2.678487834e-01	-5.766977111e-04	3.834169463e-11
-8.700000000e-03	2.678487882e-01	-5.739844418e-04	7.689233132e-12
-8.800000000e-03	2.678487928e-01	-5.712711723e-04	1.402851917e-11
-8.900000000e-03	2.678487973e-01	-5.685579027e-04	8.898518308e-12
-9.000000000e-03	2.678488018e-01	-5.658446330e-04	9.912358610e-12
-9.100000000e-03	2.678488062e-01	-5.631313631e-04	4.823341289e-12
-9.200000000e-03	2.678488105e-01	-5.604180932e-04	8.235327107e-12
-9.300000000e-03	2.678488147e-01	-5.577048231e-04	2.188548351e-11
-9.400000000e-03	2.678488188e-01	-5.549915529e-04	1.199273414e-11
-9.500000000e-03	2.678488228e-01	-5.522782826e-04	1.178410027e-11
-9.600000000e-03	2.678488268e-01	-5.495650122e-04	6.704044930e-12
-9.700000000e-03	2.678488307e-01	-5.468517417e-04	1.049552905e-11
-9.800000000e-03	2.678488345e-01	-5.441384712e-04	1.078901598e-11
-9.900000000e-03	2.678488382e-01	-5.414252005e-04	6.055803757e-12
-1.000000000e-02	2.678488418e-01	-5.387119298e-04	2.046949205e-11
-1.010000000e-02	2.678488454e-01	-5.359986589e-04	9.550907551e-12
-1.020000000e-02	2.678488489e-01	-5.332853880e-04	1.794348118e-11
-1.030000000e-02	2.678488523e-01	-5.305721170e-04	9.439004362e-12
-1.040000000e-02	2.678488556e-01	-5.278588460e-04	9.102658373e-12
-1.050000000e-02	2.678488588e-01	-5.251455749e-04	1.018851077e-11
-1.060000000e-02	2.678488619e-01	-5.224323037e-04	2.388924407e-11
-1.070000000e-02	2.678488650e-01	-5.197190325e-04	3.582560320e-11
-1.080000000e-02	2.678488680e-01	-5.170057612e-04	3.329961834e-11
-1.090000000e-02	2.678488708e-01	-5.142924899e-04	8.439104947e-12
-1.100000000e-02	2.678488737e-01	-5.115792186e-04	1.755167450e-11
-1.110000000e-02	2.678488764e-01	-5.088659472e-04	1.331961121e-11
-1.120000000e-02	2.678488790e-01	-5.061526757e-04	3.875114367e-11
-1.130000000e-02	2.678488816e-01	-5.034394043e-04	4.247853023e-11
-1.140000000e-02	2.678488841e-01	-5.007261328e-04	9.084862337e-12
-1.150000000e-02	2.678488865e-01	-4.980128613e-04	1.859394046e-11
-1.160000000e-02	2.678488888e-01	-4.952995898e-04	1.150143526e-11
-1.170000000e-02	2.678488910e-01	-4.925863182e-04	1.551084880e-11
-1.180000000e-02	2.678488932e-01	-4.898730467e-04	9.864238268e-12
-1.190000000e-02	2.678488952e-01	-4.871597751e-04	2.193607736e-11
-1.200000000e-02	2.678488972e-01	-4.844465036e-04	1.688856323e-11
-1.210000000e-02	2.678488991e-01	-4.817332320e-04	8.448949461e-12
-1.220000000e-02	2.678489010e-01	-4.790199605e-04	1.034563727e-11
-1.230000000e-02	2.678489027e-01	-4.763066889e-04	6.842016899e-12
-1.240000000e-02	2.678489044e-01	-4.735934174e-04	2.058991416e-10
-1.250000000e-02	2.678489059e-01	-4.708801459e-04	1.098343363e-11
-1.260000000e-02	2.678489074e-01	-4.681668745e-04	5.363079488e-11
-1.270000000e-02	2.678489088e-01	-4.654536030e-04	1.184058347e-11
-1.280000000e-02	2.678489102e-01	-4.627403316e-04	1.421212586e-11
-1.290000000e-02	2.678489114e-01	-4.600270602e-04	8.458784882e-12
-1.300000000e-02	2.678489126e-01	-4.573137889e-04	4.987918588e-11
-1.310000000e-02	2.678489136e-01	-4.546005176e-04	1.443753513e-11
-1.320000000e-02	2.678489146e-01	-4.518872464e-04	9.481171062e-12
-1.330000000e-02	2.678489156e-01	-4.491739752e-04	8.586929953e-12
-1.340000000e-02	2.678489164e-01	-4.464607041e-04	4.043953885e-12
-1.350000000e-02	2.678489171e-01	-4.437474330e-04	1.070046092e-11
-1.360000000e-02	2.678489178e-01	-4.410341620e-04	8.320778154e-12
-1.370000000e-02	2.678489184e-01	-4.383208911e-04	1.262708812e-11
-1.380000000e-02	2.678489189e-01	-4.356076203e-04	9.634834127e-12
-1.390000000e-02	2.678489193e-01	-4.328943495e-04	2.641549708e-11
-1.400000000e-02	2.678489197e-01	-4.301810788e-04	1.731938554e-11
-1.410000000e-02	2.678489199e-01	-4.274678082e-04	1.496970279e-11
-1.420000000e-02	2.678489201e-01	-4.247545377e-04	4.245418141e-10
-1.430000000e-02	2.678489202e-01	-4.220412673e-04	2.300882640e-11
-1.440000000e-02	2.678489202e-01	-4.193279970e-04	1.911734082e-10
-1.450000000e-02	2.678489201e-01	-4.166147268e-04	7.226637603e-12
-1.460000000e-02	2.678489200e-01	-4.139014567e-04	1.100169273e-11
-1.470000000e-02	2.678489197e-01	-4.111881867e-04	2.290846503e-11
-1.480000000e-02	2.678489194e-01	-4.084749168e-04	9.213030956e-11
-1.490000000e-02	2.678489190e-01	-4.057616470e-04	3.254446337e-11
-1.500000000e-02	2.678489185e-01	-4.030483774e-04	3.120660174e-11
-1.510000000e-02	2.678489179e-01	-4.003351079e-04	9.635786131e-12
-1.520000000e-02	2.678489173e-01	-3.976218386e-04	9.543264573e-12
-1.530000000e-02	2.678489166e-01	-3.949085693e-04	2.130111233e-11
-1.540000000e-02	2.678489157e-01	-3.921953002e-04	5.374621595e-12
-1.550000000e-02	2.678489148e-01	-3.894820313e-04	1.313547541e-11
-1.560000000e-02	2.678489139e-01	-3.867687625e-04	1.342680884e-11
-1.570000000e-02	2.678489128e-01	-3.840554939e-04	1.760089899e-11
-1.580000000e-02	2.678489117e-01	-3.813422254e-04	2.933330024e-11
-1.590000000e-02	2.678489104e-01	-3.786289571e-04	1.180667842e-11
-1.600000000e-02	2.678489091e-01	-3.759156889e-04	8.691574102e-12
-1.610000000e-02	2.678489077e-01	-3.732024209e-04	2.586287991e-11
-1.620000000e-02	2.678489062e-01	-3.704891531e-04	7.476754250e-12
-1.630000000e-02	2.678489047e-01	-3.677758855e-04	1.662144213e-11
-1.640000000e-02	2.678489030e-01	-3.650626180e-04	4.437613552e-11
-1.650000000e-02	2.678489013e-01	-3.623493508e-04	8.581794199e-12
-1.660000000e-02	2.678488995e-01	-3.596360837e-04	7.286530642e-12
-1.670000000e-02	2.678488976e-01	-3.569228168e-04	1.431667043e-11
-1.680000000e-02	2.678488957e-01	-3.542095502e-04	1.481330736e-11
-1.690000000e-02	2.678488936e-01	-3.514962837e-04	1.768484437e-11
-1.700000000e-02	2.678488915e-01	-3.487830174e-04	1.581912559e-11
-1.710000000e-02	2.678488893e-01	-3.460697514e-04	2.284941601e-11
-1.720000000e-02	2.678488870e-01	-3.433564856e-04	6.631771146e-12
-1.730000000e-02	2.678488846e-01	-3.406432199e-04	7.517556644e-12
-1.740000000e-02	2.678488821e-01	-3.379299546e-04	1.008203028e-11
-1.750000000e-02	2.678488796e-01	-3.352166894e-04	7.936364329e-12
-1.760000000e-02	2.678488769e-01	-3.325034245e-04	1.295667366e-11
-1.770000000e-02	2.678488742e-01	-3.297901598e-04	1.499207252e-11
-1.780000000e-02	2.678488714e-01	-3.270768953e-04	1.229670116e-11
-1.790000000e-02	2.678488686e-01	-3.243636311e-04	4.981548775e-12
-1.800000000e-02	2.678488656e-01	-3.216503672e-04	1.257075496e-11
-1.810000000e-02	2.678488626e-01	-3.189371035e-04	1.188040516e-11
-1.820000000e-02	2.678488594e-01	-3.162238401e-04	1.301947144e-11
-1.830000000e-02	2.678488562e-01	-3.135105769e-04	1.056461726e-11
-1.840000000e-02	2.678488529e-01	-3.107973140e-04	7.668440985e-12
-1.850000000e-02	2.678488496e-01	-3.080840513e-04	1.339764232e-11
-1.860000000e-02	2.678488461e-01	-3.053707890e-04	1.994500006e-11
-1.870000000e-02	2.678488426e-01	-3.026575269e-04	4.268118171e-11
-1.880000000e-02	2.678488390e-01	-2.999442651e-04	1.168554503e-11
-1.890000000e-02	2.678488353e-01	-2.972310036e-04	1.322903264e-11
-1.900000000e-02	2.678488315e-01	-2.945177423e-04	1.042008681e-11
-1.910000000e-02	2.678488276e-01	-2.918044814e-04	9.869756885e-12
-1.920000000e-02	2.678488237e-01	-2.890912208e-04	1.488456396e-11
-1.930000000e-02	2.678488196e-01	-2.863779605e-04	1.575796736e-11
-1.940000000e-02	2.678488155e-01	-2.836647004e-04	1.851212388e-11
-1.950000000e-02	2.678488113e-01	-2.809514407e-04	1.209304987e-11
-1.960000000e-02	2.678488070e-01	-2.782381813e-04	1.574064073e-11
-1.970000000e-02	2.678488027e-01	-2.755249223e-04	6.703768503e-12
-1.980000000e-02	2.678487982e-01	-2.728116635e-04	9.370217896e-12
-1.990000000e-02	2.678487937e-01	-2.700984051e-04	1.614714875e-11
-2.000000000e-02	2.678487891e-01	-2.673851470e-04	1.627702068e-11
-2.010000000e-02	2.678487844e-01	-2.646718893e-04	8.186911879e-12
-2.020000000e-02	2.678487797e-01	-2.619586319e-04	1.280352277e-11
-2.030000000e-02	2.678487748e-01	-2.592453748e-04	4.837682804e-12
-2.040000000e-02	2.678487699e-01	-2.565321181e-04	9.384855164e-12
-2.050000000e-02	2.678487648e-01	-2.538188618e-04	8.287753593e-12
-2.060000000e-02	2.678487597e-01	-2.511056058e-04	5.781693654e-12
-2.070000000e-02	2.678487546e-01	-2.483923502e-04	1.143893161e-11
-2.080000000e-02	2.678487493e-01	-2.456790949e-04	6.981911724e-12
-2.090000000e-02	2.678487439e-01	-2.429658400e-04	1.751432901e-11
-2.100000000e-02	2.678487385e-01	-2.402525855e-04	1.702206843e-11
-2.110000000e-02	2.678487330e-01	-2.375393314e-04	9.394081872e-12
-2.120000000e-02	2.678487274e-01	-2.348260776e-04	1.334575690e-11
-2.130000000e-02	2.678487217e-01	-2.321128242e-04	3.194859676e-11
-2.140000000e-02	2.678487160e-01	-2.293995713e-04	1.654301503e-11
-2.150000000e-02	2.678487101e-01	-2.266863187e-04	2.004641126e-10
-2.160000000e-02	2.678487042e-01	-2.239730665e-04	7.432562191e-12
-2.170000000e-02	2.678486982e-01	-2.212598147e-04	5.330536296e-11
-2.180000000e-02	2.678486921e-01	-2.185465633e-04	6.770573371e-12
-2.190000000e-02	2.678486859e-01	-2.158333124e-04	1.218838275e-11
-2.200000000e-02	2.678486797e-01	-2.131200618e-04	1.043223783e-11
-2.210000000e-02	2.678486733e-01	-2.104068117e-04	1.840567267e-11
-2.220000000e-02	2.678486669e-01	-2.076935620e-04	1.394501714e-11
-2.230000000e-02	2.678486604e-01	-2.049803128e-04	1.031707907e-11
-2.240000000e-02	2.678486538e-01	-2.022670639e-04	1.275727277e-11
-2.250000000e-02	2.678486471e-01	-1.995538155e-04	5.754283604e-12
-2.260000000e-02	2.678486404e-01	-1.968405676e-04	7.658601377e-12
-2.270000000e-02	2.678486336e-01	-1.941273201e-04	9.396665533e-12
-2.280000000e-02	2.678486266e-01	-1.914140730e-04	1.934077938e-11
-2.290000000e-02	2.678486197e-01	-1.887008264e-04	1.301798446e-11
-2.300000000e-02	2.678486126e-01	-1.859875803e-04	2.814243076e-11
-2.310000000e-02	2.678486054e-01	-1.832743346e-04	1.124522406e-11
-2.320000000e-02	2.678485982e-01	-1.805610894e-04	5.232030591e-11
-2.330000000e-02	2.678485908e-01	-1.778478446e-04	7.584441085e-12
-2.340000000e-02	2.678485834e-01	-1.751346004e-04	1.465549442e-11
-2.350000000e-02	2.678485759e-01	-1.724213566e-04	1.457694791e-11
-2.360000000e-02	2.678485684e-01	-1.697081133e-04	2.021108669e-11
-2.370000000e-02	2.678485607e-01	-1.669948705e-04	1.421456490e-11
-2.380000000e-02	2.678485530e-01	-1.642816281e-04	1.936968731e-12
-2.390000000e-02	2.678485451e-01	-1.615683863e-04	1.988182837e-11
-2.400000000e-02	2.678485372e-01	-1.588551450e-04	1.193855655e-11
-2.410000000e-02	2.678485293e-01	-1.561419041e-04	1.065688725e-11
-2.420000000e-02	2.678485212e-01	-1.534286638e-04	2.015276040e-11
-2.430000000e-02	2.678485130e-01	-1.507154240e-04	1.566358997e-11
-2.440000000e-02	2.678485048e-01	-1.480021847e-04	1.893002927e-11
-2.450000000e-02	2.678484965e-01	-1.452889459e-04	6.819166595e-12
-2.460000000e-02	2.678484881e-01	-1.425757077e-04	2.079079883e-12
-2.470000000e-02	2.678484796e-01	-1.398624700e-04	4.728178821e-11
-2.480000000e-02	2.678484710e-01	-1.371492328e-04	2.011789987e-11
-2.490000000e-02	2.678484624e-01	-1.344359962e-04	2.069188690e-11
-2.500000000e-02	2.678484537e-01	-1.317227601e-04	5.673390078e-12
-2.510000000e-02	2.678484449e-01	-1.290095245e-04	2.237421401e-11
-2.520000000e-02	2.678484360e-01	-1.262962895e-04	2.493519218e-11
-2.530000000e-02	2.678484270e-01	-1.235830551e-04	9.671312285e-12
-2.540000000e-02	2.678484179e-01	-1.208698212e-04	2.462211022e-11
-2.550000000e-02	2.678484088e-01	-1.181565878e-04	9.984889991e-12
-2.560000000e-02	2.678483996e-01	-1.154433551e-04	1.366961719e-11
-2.570000000e-02	2.678483903e-01	-1.127301229e-04	3.471720240e-11
-2.580000000e-02	2.678483809e-01	-1.100168913e-04	9.893169171e-12
-2.590000000e-02	2.678483714e-01	-1.073036602e-04	1.104554024e-11
-2.600000000e-02	2.678483619e-01	-1.045904298e-04	1.394445420e-11
-2.610000000e-02	2.678483522e-01	-1.018771999e-04	2.302663392e-11
-2.620000000e-02	2.678483425e-01	-9.916397062e-05	6.251686957e-11
-2.630000000e-02	2.678483327e-01	-9.645074194e-05	2.279545877e-11
-2.640000000e-02	2.678483228e-01	-9.373751386e-05	3.595757244e-11
-2.650000000e-02	2.678483129e-01	-9.102428638e-05	1.118643604e-11
-2.660000000e-02	2.678483028e-01	-8.831105952e-05	1.589107321e-11
-2.670000000e-02	2.678482927e-01	-8.559783326e-05	9.881064936e-12
-2.680000000e-02	2.678482825e-01	-8.288460763e-05	1.059033718e-11
-2.690000000e-02	2.678482722e-01	-8.017138261e-05	1.873811973e-11
-2.700000000e-02	2.678482618e-01	-7.745815822e-05	3.907305009e-11
-2.710000000e-02	2.678482513e-01	-7.474493446e-05	1.297167337e-11
-2.720000000e-02	2.678482408e-01	-7.203171133e-05	6.667047773e-12
-2.730000000e-02	2.678482302e-01	-6.931848884e-05	2.458629390e-11
-2.740000000e-02	2.678482195e-01	-6.660526699e-05	1.177277504e-11
-2.750000000e-02	2.678482087e-01	-6.389204579e-05	1.206508905e-11
-2.760000000e-02	2.678481978e-01	-6.117882524e-05	6.410776751e-12
-2.770000000e-02	2.678481868e-01	-5.846560534e-05	2.449026238e-11
-2.780000000e-02	2.678481758e-01	-5.575238610e-05	1.986227926e-11
-2.790000000e-02	2.678481647e-01	-5.303916752e-05	5.714864433e-11
-2.800000000e-02	2.678481535e-01	-5.032594961e-05	1.514710707e-11
-2.810000000e-02	2.678481422e-01	-4.761273237e-05	7.225060011e-12
-2.820000000e-02	2.678481308e-01	-4.489951581e-05	5.991357440e-12
-2.830000000e-02	2.678481194e-01	-4.218629993e-05	1.302770867e-11
-2.840000000e-02	2.678481079e-01	-3.947308472e-05	7.729647134e-12
-2.850000000e-02	2.678480963e-01	-3.675987021e-05	1.105090927e-11
-2.860000000e-02	2.678480846e-01	-3.404665639e-05	1.847811364e-11
-2.870000000e-02	2.678480728e-01	-3.133344327e-05	1.882696047e-11
-2.880000000e-02	2.678480609e-01	-2.862023084e-05	9.160400383e-12
-2.890000000e-02	2.678480490e-01	-2.590701912e-05	6.521925527e-12
-2.900000000e-02	2.678480370e-01	-2.319380811e-05	1.446734708e-11
-2.910000000e-02	2.678480248e-01	-2.048059781e-05	1.062815057e-11
-2.920000000e-02	2.678480127e-01	-1.776738823e-05	6.210196328e-12
-2.930000000e-02	2.678480004e-01	-1.505417937e-05	1.561971348e-11
-2.940000000e-02	2.678479880e-01	-1.234097123e-05	1.082618943e-11
-2.950000000e-02	2.678479756e-01	-9.627763829e-06	3.099734503e-11
-2.960000000e-02	2.678479631e-01	-6.914557157e-06	1.708369503e-11
-2.970000000e-02	2.678479505e-01	-4.201351222e-06	8.900502208e-12
-2.980000000e-02	2.678479378e-01	-1.488146029e-06	1.710800436e-11
-2.990000000e-02	2.678479250e-01	1.225058417e-06	2.493635186e-11
-3.000000000e-02	2.678479122e-01	3.938262113e-06	1.250692245e-11
