# Im(epsi1)     Re(omega/c)      Im(omega/c)      Eq(det).Opt det CON kz, R=0.5 \mum, mu_c=0.3, Re(epsi1)=3.90solve_det_conkz_vs_kz.py
0.000000000e+00	2.678609913e-01	-8.100943207e-04	6.966200943e-11
-1.000000000e-04	2.678610031e-01	-8.073809758e-04	9.403392178e-12
-2.000000000e-04	2.678610148e-01	-8.046676305e-04	1.245594107e-11
-3.000000000e-04	2.678610264e-01	-8.019542847e-04	5.983620233e-12
-4.000000000e-04	2.678610379e-01	-7.992409384e-04	3.418601902e-11
-5.000000000e-04	2.678610494e-01	-7.965275916e-04	1.192622424e-11
-6.000000000e-04	2.678610608e-01	-7.938142443e-04	1.162812629e-11
-7.000000000e-04	2.678610721e-01	-7.911008965e-04	6.675076005e-11
-8.000000000e-04	2.678610833e-01	-7.883875483e-04	4.299412111e-11
-9.000000000e-04	2.678610945e-01	-7.856741997e-04	9.448732425e-12
-1.000000000e-03	2.678611055e-01	-7.829608505e-04	5.345841061e-12
-1.100000000e-03	2.678611165e-01	-7.802475009e-04	1.125446221e-11
-1.200000000e-03	2.678611274e-01	-7.775341509e-04	1.281439188e-11
-1.300000000e-03	2.678611382e-01	-7.748208004e-04	1.529569214e-11
-1.400000000e-03	2.678611489e-01	-7.721074495e-04	1.441174938e-11
-1.500000000e-03	2.678611595e-01	-7.693940981e-04	1.270881486e-11
-1.600000000e-03	2.678611701e-01	-7.666807463e-04	2.115246145e-12
-1.700000000e-03	2.678611806e-01	-7.639673941e-04	5.910836292e-12
-1.800000000e-03	2.678611910e-01	-7.612540414e-04	1.501964595e-11
-1.900000000e-03	2.678612013e-01	-7.585406883e-04	1.574589295e-11
-2.000000000e-03	2.678612115e-01	-7.558273348e-04	2.343649133e-12
-2.100000000e-03	2.678612217e-01	-7.531139809e-04	9.678902479e-12
-2.200000000e-03	2.678612317e-01	-7.504006266e-04	6.633530196e-12
-2.300000000e-03	2.678612417e-01	-7.476872718e-04	1.548642097e-11
-2.400000000e-03	2.678612516e-01	-7.449739167e-04	3.112960046e-11
-2.500000000e-03	2.678612614e-01	-7.422605612e-04	1.581156883e-11
-2.600000000e-03	2.678612712e-01	-7.395472053e-04	1.591169841e-11
-2.700000000e-03	2.678612808e-01	-7.368338490e-04	2.498803405e-11
-2.800000000e-03	2.678612904e-01	-7.341204923e-04	1.878163926e-11
-2.900000000e-03	2.678612999e-01	-7.314071352e-04	1.075875071e-11
-3.000000000e-03	2.678613093e-01	-7.286937777e-04	1.171721303e-11
-3.100000000e-03	2.678613186e-01	-7.259804199e-04	6.455714640e-12
-3.200000000e-03	2.678613278e-01	-7.232670617e-04	4.909030541e-11
-3.300000000e-03	2.678613370e-01	-7.205537032e-04	1.045218486e-11
-3.400000000e-03	2.678613461e-01	-7.178403443e-04	3.705821701e-12
-3.500000000e-03	2.678613551e-01	-7.151269850e-04	1.140694494e-11
-3.600000000e-03	2.678613640e-01	-7.124136254e-04	2.857892113e-11
-3.700000000e-03	2.678613728e-01	-7.097002654e-04	2.839751892e-12
-3.800000000e-03	2.678613816e-01	-7.069869051e-04	3.009733840e-11
-3.900000000e-03	2.678613902e-01	-7.042735445e-04	2.134586330e-11
-4.000000000e-03	2.678613988e-01	-7.015601835e-04	3.155441609e-11
-4.100000000e-03	2.678614073e-01	-6.988468222e-04	2.219459831e-11
-4.200000000e-03	2.678614157e-01	-6.961334606e-04	1.886068914e-11
-4.300000000e-03	2.678614241e-01	-6.934200986e-04	2.120536565e-11
-4.400000000e-03	2.678614323e-01	-6.907067363e-04	1.504248572e-11
-4.500000000e-03	2.678614405e-01	-6.879933737e-04	2.282515547e-11
-4.600000000e-03	2.678614486e-01	-6.852800108e-04	1.255368370e-11
-4.700000000e-03	2.678614566e-01	-6.825666476e-04	8.854343270e-12
-4.800000000e-03	2.678614645e-01	-6.798532841e-04	3.329759694e-11
-4.900000000e-03	2.678614723e-01	-6.771399203e-04	1.846990460e-11
-5.000000000e-03	2.678614801e-01	-6.744265562e-04	7.108686606e-12
-5.100000000e-03	2.678614878e-01	-6.717131919e-04	9.215758477e-12
-5.200000000e-03	2.678614954e-01	-6.689998272e-04	1.549010497e-11
-5.300000000e-03	2.678615029e-01	-6.662864623e-04	1.424808211e-11
-5.400000000e-03	2.678615103e-01	-6.635730970e-04	4.656836365e-11
-5.500000000e-03	2.678615176e-01	-6.608597315e-04	3.567970805e-12
-5.600000000e-03	2.678615249e-01	-6.581463658e-04	1.411054820e-11
-5.700000000e-03	2.678615321e-01	-6.554329998e-04	1.491755801e-11
-5.800000000e-03	2.678615392e-01	-6.527196335e-04	3.409067006e-11
-5.900000000e-03	2.678615462e-01	-6.500062669e-04	3.110189608e-12
-6.000000000e-03	2.678615531e-01	-6.472929001e-04	5.307557970e-12
-6.100000000e-03	2.678615600e-01	-6.445795331e-04	7.435288231e-12
-6.200000000e-03	2.678615667e-01	-6.418661658e-04	4.526333870e-12
-6.300000000e-03	2.678615734e-01	-6.391527983e-04	2.127183153e-11
-6.400000000e-03	2.678615800e-01	-6.364394306e-04	1.725190101e-11
-6.500000000e-03	2.678615866e-01	-6.337260626e-04	3.628804290e-11
-6.600000000e-03	2.678615930e-01	-6.310126944e-04	2.148023465e-11
-6.700000000e-03	2.678615994e-01	-6.282993259e-04	7.448659710e-12
-6.800000000e-03	2.678616056e-01	-6.255859573e-04	2.746066876e-11
-6.900000000e-03	2.678616118e-01	-6.228725884e-04	1.234129714e-11
-7.000000000e-03	2.678616179e-01	-6.201592194e-04	1.082529778e-11
-7.100000000e-03	2.678616240e-01	-6.174458501e-04	1.838944529e-11
-7.200000000e-03	2.678616299e-01	-6.147324806e-04	3.998317859e-11
-7.300000000e-03	2.678616358e-01	-6.120191110e-04	2.000607003e-11
-7.400000000e-03	2.678616415e-01	-6.093057411e-04	1.833632192e-11
-7.500000000e-03	2.678616472e-01	-6.065923710e-04	1.810477319e-11
-7.600000000e-03	2.678616528e-01	-6.038790008e-04	6.375878959e-12
-7.700000000e-03	2.678616584e-01	-6.011656304e-04	1.580897736e-11
-7.800000000e-03	2.678616638e-01	-5.984522598e-04	3.590730704e-12
-7.900000000e-03	2.678616692e-01	-5.957388890e-04	1.445944907e-11
-8.000000000e-03	2.678616745e-01	-5.930255181e-04	4.717217217e-10
-8.100000000e-03	2.678616797e-01	-5.903121470e-04	2.908469130e-11
-8.200000000e-03	2.678616848e-01	-5.875987758e-04	1.417370169e-11
-8.300000000e-03	2.678616898e-01	-5.848854044e-04	2.652066102e-12
-8.400000000e-03	2.678616948e-01	-5.821720328e-04	3.849192354e-12
-8.500000000e-03	2.678616997e-01	-5.794586611e-04	2.451019341e-11
-8.600000000e-03	2.678617045e-01	-5.767452892e-04	1.804190074e-11
-8.700000000e-03	2.678617092e-01	-5.740319173e-04	1.067398972e-12
-8.800000000e-03	2.678617138e-01	-5.713185451e-04	8.620670909e-12
-8.900000000e-03	2.678617183e-01	-5.686051729e-04	1.181093391e-11
-9.000000000e-03	2.678617228e-01	-5.658918005e-04	2.078876540e-11
-9.100000000e-03	2.678617272e-01	-5.631784280e-04	1.660836673e-11
-9.200000000e-03	2.678617315e-01	-5.604650554e-04	1.582136613e-11
-9.300000000e-03	2.678617357e-01	-5.577516827e-04	2.082008680e-11
-9.400000000e-03	2.678617398e-01	-5.550383098e-04	5.754803024e-12
-9.500000000e-03	2.678617439e-01	-5.523249369e-04	7.012395479e-12
-9.600000000e-03	2.678617478e-01	-5.496115639e-04	4.498935359e-12
-9.700000000e-03	2.678617517e-01	-5.468981907e-04	2.204782012e-11
-9.800000000e-03	2.678617555e-01	-5.441848175e-04	4.122086125e-11
-9.900000000e-03	2.678617592e-01	-5.414714442e-04	4.595260070e-11
-1.000000000e-02	2.678617629e-01	-5.387580708e-04	6.626995329e-12
-1.010000000e-02	2.678617664e-01	-5.360446973e-04	1.274671366e-10
-1.020000000e-02	2.678617699e-01	-5.333313237e-04	3.251462144e-11
-1.030000000e-02	2.678617733e-01	-5.306179501e-04	4.165993296e-11
-1.040000000e-02	2.678617766e-01	-5.279045764e-04	1.873115027e-12
-1.050000000e-02	2.678617798e-01	-5.251912026e-04	2.141320096e-11
-1.060000000e-02	2.678617829e-01	-5.224778288e-04	1.401287783e-11
-1.070000000e-02	2.678617860e-01	-5.197644550e-04	1.954693298e-11
-1.080000000e-02	2.678617890e-01	-5.170510810e-04	2.739279776e-11
-1.090000000e-02	2.678617919e-01	-5.143377071e-04	6.355722090e-11
-1.100000000e-02	2.678617947e-01	-5.116243330e-04	2.517404999e-11
-1.110000000e-02	2.678617974e-01	-5.089109590e-04	1.330245925e-11
-1.120000000e-02	2.678618001e-01	-5.061975849e-04	1.326299684e-11
-1.130000000e-02	2.678618026e-01	-5.034842108e-04	1.617022510e-11
-1.140000000e-02	2.678618051e-01	-5.007708367e-04	8.992646135e-12
-1.150000000e-02	2.678618075e-01	-4.980574625e-04	2.238135333e-11
-1.160000000e-02	2.678618098e-01	-4.953440883e-04	1.216230786e-12
-1.170000000e-02	2.678618121e-01	-4.926307141e-04	5.882302176e-11
-1.180000000e-02	2.678618142e-01	-4.899173399e-04	1.006954713e-12
-1.190000000e-02	2.678618163e-01	-4.872039657e-04	2.206832604e-11
-1.200000000e-02	2.678618183e-01	-4.844905915e-04	1.557784042e-11
-1.210000000e-02	2.678618202e-01	-4.817772173e-04	8.604678065e-12
-1.220000000e-02	2.678618220e-01	-4.790638431e-04	2.081947952e-11
-1.230000000e-02	2.678618237e-01	-4.763504689e-04	1.380311771e-11
-1.240000000e-02	2.678618254e-01	-4.736370948e-04	1.116635320e-11
-1.250000000e-02	2.678618270e-01	-4.709237206e-04	5.212314471e-11
-1.260000000e-02	2.678618285e-01	-4.682103465e-04	2.594729485e-11
-1.270000000e-02	2.678618299e-01	-4.654969724e-04	4.722350287e-12
-1.280000000e-02	2.678618312e-01	-4.627835983e-04	1.695755443e-11
-1.290000000e-02	2.678618324e-01	-4.600702243e-04	1.302035246e-11
-1.300000000e-02	2.678618336e-01	-4.573568503e-04	3.534684102e-11
-1.310000000e-02	2.678618347e-01	-4.546434764e-04	1.453425618e-11
-1.320000000e-02	2.678618357e-01	-4.519301025e-04	1.355306789e-11
-1.330000000e-02	2.678618366e-01	-4.492167287e-04	1.413439592e-11
-1.340000000e-02	2.678618374e-01	-4.465033549e-04	2.786909050e-11
-1.350000000e-02	2.678618382e-01	-4.437899812e-04	2.308380709e-11
-1.360000000e-02	2.678618389e-01	-4.410766075e-04	2.562262685e-11
-1.370000000e-02	2.678618394e-01	-4.383632339e-04	6.344958511e-12
-1.380000000e-02	2.678618399e-01	-4.356498604e-04	1.368009626e-11
-1.390000000e-02	2.678618404e-01	-4.329364870e-04	2.178897368e-11
-1.400000000e-02	2.678618407e-01	-4.302231137e-04	1.161116978e-11
-1.410000000e-02	2.678618410e-01	-4.275097404e-04	9.737282806e-12
-1.420000000e-02	2.678618411e-01	-4.247963673e-04	2.758751697e-11
-1.430000000e-02	2.678618412e-01	-4.220829942e-04	1.049662817e-11
-1.440000000e-02	2.678618412e-01	-4.193696212e-04	7.927317163e-12
-1.450000000e-02	2.678618412e-01	-4.166562484e-04	1.310221677e-11
-1.460000000e-02	2.678618410e-01	-4.139428756e-04	2.025262702e-12
-1.470000000e-02	2.678618408e-01	-4.112295030e-04	1.266913539e-11
-1.480000000e-02	2.678618405e-01	-4.085161304e-04	8.727988722e-12
-1.490000000e-02	2.678618401e-01	-4.058027580e-04	1.201859746e-11
-1.500000000e-02	2.678618396e-01	-4.030893857e-04	1.126253487e-11
-1.510000000e-02	2.678618390e-01	-4.003760136e-04	3.785914826e-11
-1.520000000e-02	2.678618383e-01	-3.976626416e-04	5.008677961e-11
-1.530000000e-02	2.678618376e-01	-3.949492697e-04	7.157316756e-12
-1.540000000e-02	2.678618368e-01	-3.922358979e-04	1.759212669e-11
-1.550000000e-02	2.678618359e-01	-3.895225263e-04	1.786294089e-11
-1.560000000e-02	2.678618349e-01	-3.868091549e-04	3.655943956e-11
-1.570000000e-02	2.678618339e-01	-3.840957836e-04	7.692515433e-12
-1.580000000e-02	2.678618327e-01	-3.813824124e-04	1.176534539e-11
-1.590000000e-02	2.678618315e-01	-3.786690415e-04	5.551248512e-12
-1.600000000e-02	2.678618302e-01	-3.759556707e-04	8.559116919e-12
-1.610000000e-02	2.678618288e-01	-3.732423000e-04	9.527018503e-12
-1.620000000e-02	2.678618273e-01	-3.705289296e-04	1.066471901e-11
-1.630000000e-02	2.678618258e-01	-3.678155593e-04	7.537990492e-12
-1.640000000e-02	2.678618241e-01	-3.651021892e-04	1.280471111e-11
-1.650000000e-02	2.678618224e-01	-3.623888193e-04	2.087558854e-11
-1.660000000e-02	2.678618206e-01	-3.596754495e-04	1.482671785e-11
-1.670000000e-02	2.678618187e-01	-3.569620800e-04	1.277170659e-11
-1.680000000e-02	2.678618167e-01	-3.542487107e-04	2.329097302e-11
-1.690000000e-02	2.678618147e-01	-3.515353416e-04	1.329570611e-11
-1.700000000e-02	2.678618126e-01	-3.488219726e-04	1.396091356e-11
-1.710000000e-02	2.678618103e-01	-3.461086039e-04	5.555390684e-12
-1.720000000e-02	2.678618080e-01	-3.433952355e-04	3.533539881e-11
-1.730000000e-02	2.678618057e-01	-3.406818672e-04	2.248850083e-11
-1.740000000e-02	2.678618032e-01	-3.379684991e-04	9.555201108e-12
-1.750000000e-02	2.678618006e-01	-3.352551313e-04	1.110714030e-11
-1.760000000e-02	2.678617980e-01	-3.325417637e-04	2.824282379e-11
-1.770000000e-02	2.678617953e-01	-3.298283964e-04	2.204650220e-11
-1.780000000e-02	2.678617925e-01	-3.271150293e-04	9.373740967e-12
-1.790000000e-02	2.678617896e-01	-3.244016624e-04	1.398348393e-11
-1.800000000e-02	2.678617867e-01	-3.216882958e-04	6.947676551e-11
-1.810000000e-02	2.678617836e-01	-3.189749295e-04	3.539475857e-12
-1.820000000e-02	2.678617805e-01	-3.162615634e-04	2.193694575e-11
-1.830000000e-02	2.678617773e-01	-3.135481976e-04	1.395210199e-11
-1.840000000e-02	2.678617740e-01	-3.108348320e-04	6.573403926e-11
-1.850000000e-02	2.678617707e-01	-3.081214667e-04	1.250535235e-11
-1.860000000e-02	2.678617672e-01	-3.054081017e-04	9.675871027e-12
-1.870000000e-02	2.678617637e-01	-3.026947369e-04	1.459520390e-11
-1.880000000e-02	2.678617600e-01	-2.999813725e-04	3.239434635e-12
-1.890000000e-02	2.678617563e-01	-2.972680083e-04	1.669774603e-11
-1.900000000e-02	2.678617526e-01	-2.945546444e-04	1.174304590e-11
-1.910000000e-02	2.678617487e-01	-2.918412808e-04	1.574786518e-11
-1.920000000e-02	2.678617448e-01	-2.891279176e-04	9.092207592e-12
-1.930000000e-02	2.678617407e-01	-2.864145546e-04	1.034231815e-11
-1.940000000e-02	2.678617366e-01	-2.837011919e-04	3.633737751e-12
-1.950000000e-02	2.678617324e-01	-2.809878295e-04	1.089174261e-11
-1.960000000e-02	2.678617281e-01	-2.782744675e-04	1.320771815e-11
-1.970000000e-02	2.678617238e-01	-2.755611058e-04	1.442974435e-11
-1.980000000e-02	2.678617193e-01	-2.728477444e-04	1.587224193e-11
-1.990000000e-02	2.678617148e-01	-2.701343833e-04	1.243130599e-11
-2.000000000e-02	2.678617102e-01	-2.674210226e-04	3.902793638e-11
-2.010000000e-02	2.678617055e-01	-2.647076622e-04	1.303320467e-12
-2.020000000e-02	2.678617007e-01	-2.619943021e-04	1.424993899e-11
-2.030000000e-02	2.678616959e-01	-2.592809424e-04	1.440445679e-11
-2.040000000e-02	2.678616910e-01	-2.565675830e-04	1.251008769e-11
-2.050000000e-02	2.678616859e-01	-2.538542240e-04	1.947115008e-11
-2.060000000e-02	2.678616808e-01	-2.511408654e-04	1.915145589e-11
-2.070000000e-02	2.678616757e-01	-2.484275071e-04	1.107580954e-11
-2.080000000e-02	2.678616704e-01	-2.457141492e-04	8.984341841e-12
-2.090000000e-02	2.678616650e-01	-2.430007916e-04	2.718695125e-11
-2.100000000e-02	2.678616596e-01	-2.402874345e-04	9.910325368e-12
-2.110000000e-02	2.678616541e-01	-2.375740777e-04	4.488608995e-12
-2.120000000e-02	2.678616485e-01	-2.348607213e-04	4.866858904e-12
-2.130000000e-02	2.678616428e-01	-2.321473652e-04	1.668500046e-11
-2.140000000e-02	2.678616371e-01	-2.294340096e-04	3.455508845e-11
-2.150000000e-02	2.678616312e-01	-2.267206544e-04	5.262763626e-12
-2.160000000e-02	2.678616253e-01	-2.240072995e-04	9.924648319e-12
-2.170000000e-02	2.678616193e-01	-2.212939451e-04	1.158678434e-11
-2.180000000e-02	2.678616132e-01	-2.185805911e-04	1.025132531e-11
-2.190000000e-02	2.678616070e-01	-2.158672374e-04	2.012101067e-11
-2.200000000e-02	2.678616008e-01	-2.131538842e-04	4.611074653e-11
-2.210000000e-02	2.678615944e-01	-2.104405315e-04	1.466474469e-11
-2.220000000e-02	2.678615880e-01	-2.077271791e-04	2.474290322e-11
-2.230000000e-02	2.678615815e-01	-2.050138272e-04	3.061740332e-11
-2.240000000e-02	2.678615749e-01	-2.023004757e-04	3.078070477e-11
-2.250000000e-02	2.678615683e-01	-1.995871247e-04	2.595760171e-11
-2.260000000e-02	2.678615615e-01	-1.968737740e-04	2.758386997e-11
-2.270000000e-02	2.678615547e-01	-1.941604239e-04	9.818825245e-12
-2.280000000e-02	2.678615478e-01	-1.914470742e-04	1.611638316e-11
-2.290000000e-02	2.678615408e-01	-1.887337249e-04	1.621486368e-12
-2.300000000e-02	2.678615337e-01	-1.860203761e-04	2.323525476e-11
-2.310000000e-02	2.678615265e-01	-1.833070278e-04	6.089257951e-11
-2.320000000e-02	2.678615193e-01	-1.805936799e-04	9.293126358e-12
-2.330000000e-02	2.678615120e-01	-1.778803325e-04	5.902023994e-12
-2.340000000e-02	2.678615045e-01	-1.751669856e-04	5.663993900e-12
-2.350000000e-02	2.678614971e-01	-1.724536391e-04	1.622711379e-11
-2.360000000e-02	2.678614895e-01	-1.697402932e-04	7.190476920e-12
-2.370000000e-02	2.678614818e-01	-1.670269477e-04	1.507167322e-11
-2.380000000e-02	2.678614741e-01	-1.643136027e-04	1.079222169e-11
-2.390000000e-02	2.678614663e-01	-1.616002582e-04	5.736648331e-12
-2.400000000e-02	2.678614584e-01	-1.588869142e-04	2.124371118e-11
-2.410000000e-02	2.678614504e-01	-1.561735707e-04	1.102541188e-11
-2.420000000e-02	2.678614423e-01	-1.534602278e-04	6.482139450e-11
-2.430000000e-02	2.678614342e-01	-1.507468853e-04	2.406588688e-12
-2.440000000e-02	2.678614259e-01	-1.480335433e-04	2.813786818e-11
-2.450000000e-02	2.678614176e-01	-1.453202019e-04	1.524991503e-11
-2.460000000e-02	2.678614092e-01	-1.426068610e-04	2.126339981e-11
-2.470000000e-02	2.678614007e-01	-1.398935206e-04	8.562417207e-12
-2.480000000e-02	2.678613922e-01	-1.371801808e-04	2.802333617e-12
-2.490000000e-02	2.678613835e-01	-1.344668415e-04	1.108447955e-11
-2.500000000e-02	2.678613748e-01	-1.317535027e-04	1.302618378e-11
-2.510000000e-02	2.678613660e-01	-1.290401645e-04	1.928916994e-11
-2.520000000e-02	2.678613571e-01	-1.263268269e-04	2.791250579e-11
-2.530000000e-02	2.678613481e-01	-1.236134898e-04	1.717932321e-11
-2.540000000e-02	2.678613391e-01	-1.209001532e-04	1.567440672e-11
-2.550000000e-02	2.678613299e-01	-1.181868172e-04	1.767095876e-11
-2.560000000e-02	2.678613207e-01	-1.154734818e-04	2.252815718e-11
-2.570000000e-02	2.678613114e-01	-1.127601469e-04	9.253545324e-12
-2.580000000e-02	2.678613020e-01	-1.100468127e-04	7.470394370e-11
-2.590000000e-02	2.678612925e-01	-1.073334790e-04	9.099651770e-12
-2.600000000e-02	2.678612830e-01	-1.046201459e-04	1.721194964e-11
-2.610000000e-02	2.678612733e-01	-1.019068133e-04	9.766979908e-12
-2.620000000e-02	2.678612636e-01	-9.919348140e-05	1.398970431e-11
-2.630000000e-02	2.678612538e-01	-9.648015007e-05	1.331287195e-12
-2.640000000e-02	2.678612439e-01	-9.376681933e-05	1.241609047e-11
-2.650000000e-02	2.678612340e-01	-9.105348919e-05	9.276981661e-12
-2.660000000e-02	2.678612239e-01	-8.834015967e-05	4.509906243e-12
-2.670000000e-02	2.678612138e-01	-8.562683076e-05	1.275816994e-11
-2.680000000e-02	2.678612036e-01	-8.291350246e-05	1.242756646e-11
-2.690000000e-02	2.678611933e-01	-8.020017479e-05	9.644074972e-12
-2.700000000e-02	2.678611829e-01	-7.748684774e-05	1.671767110e-11
-2.710000000e-02	2.678611725e-01	-7.477352132e-05	2.763506383e-11
-2.720000000e-02	2.678611619e-01	-7.206019553e-05	9.412489717e-12
-2.730000000e-02	2.678611513e-01	-6.934687039e-05	1.450436731e-11
-2.740000000e-02	2.678611406e-01	-6.663354588e-05	2.051487479e-11
-2.750000000e-02	2.678611298e-01	-6.392022202e-05	3.007293771e-12
-2.760000000e-02	2.678611189e-01	-6.120689881e-05	1.283203127e-11
-2.770000000e-02	2.678611080e-01	-5.849357625e-05	1.446723950e-11
-2.780000000e-02	2.678610970e-01	-5.578025435e-05	1.792496303e-11
-2.790000000e-02	2.678610858e-01	-5.306693312e-05	1.440003676e-11
-2.800000000e-02	2.678610746e-01	-5.035361255e-05	1.898709568e-11
-2.810000000e-02	2.678610633e-01	-4.764029265e-05	8.734111909e-12
-2.820000000e-02	2.678610520e-01	-4.492697343e-05	2.853458205e-11
-2.830000000e-02	2.678610405e-01	-4.221365489e-05	7.193261478e-12
-2.840000000e-02	2.678610290e-01	-3.950033703e-05	4.773075605e-12
-2.850000000e-02	2.678610174e-01	-3.678701986e-05	2.517843200e-11
-2.860000000e-02	2.678610057e-01	-3.407370338e-05	3.263581840e-12
-2.870000000e-02	2.678609939e-01	-3.136038760e-05	1.484051109e-11
-2.880000000e-02	2.678609821e-01	-2.864707251e-05	1.460097526e-11
-2.890000000e-02	2.678609701e-01	-2.593375814e-05	7.990886480e-13
-2.900000000e-02	2.678609581e-01	-2.322044447e-05	2.140390321e-12
-2.910000000e-02	2.678609460e-01	-2.050713151e-05	1.257908726e-11
-2.920000000e-02	2.678609338e-01	-1.779381927e-05	8.629897155e-12
-2.930000000e-02	2.678609215e-01	-1.508050775e-05	1.769695359e-11
-2.940000000e-02	2.678609092e-01	-1.236719695e-05	3.508678215e-11
-2.950000000e-02	2.678608967e-01	-9.653886890e-06	4.432460653e-11
-2.960000000e-02	2.678608842e-01	-6.940577559e-06	1.702500747e-11
-2.970000000e-02	2.678608716e-01	-4.227268966e-06	1.387120072e-11
-2.980000000e-02	2.678608589e-01	-1.513961114e-06	2.585208478e-12
-2.990000000e-02	2.678608462e-01	1.199345991e-06	8.887305989e-12
-3.000000000e-02	2.678608333e-01	3.912652346e-06	6.349064769e-11
