# Im(epsi1)     Re(omega/c)      Im(omega/c)      Eq(det).Opt det CON kz, R=0.5 \mum, mu_c=0.3, Re(epsi1)=3.90solve_det_conkz_vs_kz.py
0.000000000e+00	2.678504753e-01	-8.100484130e-04	6.902408949e-11
-1.000000000e-04	2.678504871e-01	-8.073351517e-04	1.336689207e-11
-2.000000000e-04	2.678504988e-01	-8.046218899e-04	1.439023560e-11
-3.000000000e-04	2.678505104e-01	-8.019086276e-04	9.099392987e-12
-4.000000000e-04	2.678505220e-01	-7.991953649e-04	5.103112372e-12
-5.000000000e-04	2.678505334e-01	-7.964821016e-04	9.376258637e-12
-6.000000000e-04	2.678505448e-01	-7.937688379e-04	1.638277812e-11
-7.000000000e-04	2.678505561e-01	-7.910555737e-04	9.874770056e-12
-8.000000000e-04	2.678505673e-01	-7.883423090e-04	3.594178526e-11
-9.000000000e-04	2.678505785e-01	-7.856290439e-04	2.825966701e-11
-1.000000000e-03	2.678505895e-01	-7.829157783e-04	2.865426666e-11
-1.100000000e-03	2.678506005e-01	-7.802025123e-04	1.199522138e-11
-1.200000000e-03	2.678506114e-01	-7.774892458e-04	7.268915982e-12
-1.300000000e-03	2.678506222e-01	-7.747759788e-04	6.488412554e-12
-1.400000000e-03	2.678506329e-01	-7.720627114e-04	5.121333474e-11
-1.500000000e-03	2.678506435e-01	-7.693494436e-04	2.219417504e-10
-1.600000000e-03	2.678506541e-01	-7.666361753e-04	1.149146663e-11
-1.700000000e-03	2.678506646e-01	-7.639229067e-04	1.410981716e-11
-1.800000000e-03	2.678506750e-01	-7.612096375e-04	2.760436705e-11
-1.900000000e-03	2.678506853e-01	-7.584963680e-04	9.497612285e-12
-2.000000000e-03	2.678506955e-01	-7.557830980e-04	4.142163843e-12
-2.100000000e-03	2.678507057e-01	-7.530698277e-04	1.207372276e-11
-2.200000000e-03	2.678507157e-01	-7.503565569e-04	4.800303300e-11
-2.300000000e-03	2.678507257e-01	-7.476432857e-04	1.578018230e-11
-2.400000000e-03	2.678507356e-01	-7.449300141e-04	1.607830361e-11
-2.500000000e-03	2.678507454e-01	-7.422167422e-04	3.976701200e-11
-2.600000000e-03	2.678507552e-01	-7.395034698e-04	6.788211940e-12
-2.700000000e-03	2.678507648e-01	-7.367901970e-04	2.408372835e-11
-2.800000000e-03	2.678507744e-01	-7.340769239e-04	2.319283704e-11
-2.900000000e-03	2.678507839e-01	-7.313636503e-04	7.766884322e-12
-3.000000000e-03	2.678507933e-01	-7.286503764e-04	4.865812965e-12
-3.100000000e-03	2.678508026e-01	-7.259371022e-04	1.302967880e-11
-3.200000000e-03	2.678508118e-01	-7.232238275e-04	4.795133733e-11
-3.300000000e-03	2.678508210e-01	-7.205105525e-04	2.311174468e-11
-3.400000000e-03	2.678508301e-01	-7.177972771e-04	1.707760055e-11
-3.500000000e-03	2.678508391e-01	-7.150840014e-04	2.413571868e-11
-3.600000000e-03	2.678508480e-01	-7.123707254e-04	1.607352152e-11
-3.700000000e-03	2.678508568e-01	-7.096574489e-04	9.283937680e-12
-3.800000000e-03	2.678508655e-01	-7.069441722e-04	3.424301257e-11
-3.900000000e-03	2.678508742e-01	-7.042308951e-04	8.547081824e-12
-4.000000000e-03	2.678508828e-01	-7.015176176e-04	3.511498867e-11
-4.100000000e-03	2.678508913e-01	-6.988043399e-04	1.799083776e-11
-4.200000000e-03	2.678508997e-01	-6.960910618e-04	2.164497457e-11
-4.300000000e-03	2.678509080e-01	-6.933777834e-04	3.234970415e-11
-4.400000000e-03	2.678509163e-01	-6.906645047e-04	8.844141077e-12
-4.500000000e-03	2.678509245e-01	-6.879512256e-04	1.502010468e-11
-4.600000000e-03	2.678509325e-01	-6.852379463e-04	9.824310297e-11
-4.700000000e-03	2.678509405e-01	-6.825246666e-04	6.149741614e-12
-4.800000000e-03	2.678509485e-01	-6.798113866e-04	1.804684702e-11
-4.900000000e-03	2.678509563e-01	-6.770981064e-04	2.119906874e-11
-5.000000000e-03	2.678509641e-01	-6.743848258e-04	1.639275116e-11
-5.100000000e-03	2.678509717e-01	-6.716715450e-04	6.895055591e-11
-5.200000000e-03	2.678509793e-01	-6.689582639e-04	1.313932098e-11
-5.300000000e-03	2.678509868e-01	-6.662449825e-04	8.030790448e-12
-5.400000000e-03	2.678509943e-01	-6.635317008e-04	1.238743330e-11
-5.500000000e-03	2.678510016e-01	-6.608184189e-04	1.930856884e-11
-5.600000000e-03	2.678510089e-01	-6.581051367e-04	9.347827420e-12
-5.700000000e-03	2.678510161e-01	-6.553918542e-04	1.853908661e-11
-5.800000000e-03	2.678510231e-01	-6.526785714e-04	6.109461207e-12
-5.900000000e-03	2.678510302e-01	-6.499652885e-04	1.015993537e-11
-6.000000000e-03	2.678510371e-01	-6.472520052e-04	1.981335260e-11
-6.100000000e-03	2.678510439e-01	-6.445387217e-04	1.126076443e-11
-6.200000000e-03	2.678510507e-01	-6.418254380e-04	7.319407664e-12
-6.300000000e-03	2.678510574e-01	-6.391121540e-04	8.172364650e-12
-6.400000000e-03	2.678510640e-01	-6.363988698e-04	9.968820841e-12
-6.500000000e-03	2.678510705e-01	-6.336855854e-04	1.020844720e-11
-6.600000000e-03	2.678510770e-01	-6.309723007e-04	2.375589452e-11
-6.700000000e-03	2.678510833e-01	-6.282590158e-04	4.308697691e-11
-6.800000000e-03	2.678510896e-01	-6.255457307e-04	8.843817451e-12
-6.900000000e-03	2.678510958e-01	-6.228324454e-04	2.987599397e-11
-7.000000000e-03	2.678511019e-01	-6.201191599e-04	7.553274153e-12
-7.100000000e-03	2.678511079e-01	-6.174058742e-04	6.106711610e-11
-7.200000000e-03	2.678511139e-01	-6.146925883e-04	9.672945868e-12
-7.300000000e-03	2.678511197e-01	-6.119793021e-04	1.877153786e-12
-7.400000000e-03	2.678511255e-01	-6.092660158e-04	1.300689408e-11
-7.500000000e-03	2.678511312e-01	-6.065527293e-04	1.804979624e-11
-7.600000000e-03	2.678511368e-01	-6.038394426e-04	1.513078948e-11
-7.700000000e-03	2.678511423e-01	-6.011261558e-04	3.338396438e-11
-7.800000000e-03	2.678511478e-01	-5.984128687e-04	2.653557817e-11
-7.900000000e-03	2.678511531e-01	-5.956995815e-04	3.363355711e-11
-8.000000000e-03	2.678511584e-01	-5.929862941e-04	2.253958285e-11
-8.100000000e-03	2.678511636e-01	-5.902730066e-04	1.187283383e-11
-8.200000000e-03	2.678511688e-01	-5.875597189e-04	1.464062383e-11
-8.300000000e-03	2.678511738e-01	-5.848464310e-04	1.027559633e-11
-8.400000000e-03	2.678511787e-01	-5.821331430e-04	7.305546423e-12
-8.500000000e-03	2.678511836e-01	-5.794198548e-04	1.610732533e-11
-8.600000000e-03	2.678511884e-01	-5.767065665e-04	1.326643573e-11
-8.700000000e-03	2.678511931e-01	-5.739932781e-04	9.005448456e-12
-8.800000000e-03	2.678511977e-01	-5.712799895e-04	2.163112833e-11
-8.900000000e-03	2.678512023e-01	-5.685667008e-04	3.286640080e-11
-9.000000000e-03	2.678512067e-01	-5.658534120e-04	2.040668363e-11
-9.100000000e-03	2.678512111e-01	-5.631401230e-04	1.061474899e-11
-9.200000000e-03	2.678512154e-01	-5.604268340e-04	1.452867574e-11
-9.300000000e-03	2.678512196e-01	-5.577135448e-04	9.244233760e-12
-9.400000000e-03	2.678512237e-01	-5.550002555e-04	1.351499167e-10
-9.500000000e-03	2.678512278e-01	-5.522869661e-04	1.220105206e-11
-9.600000000e-03	2.678512318e-01	-5.495736766e-04	4.086306937e-11
-9.700000000e-03	2.678512356e-01	-5.468603870e-04	7.743219340e-12
-9.800000000e-03	2.678512394e-01	-5.441470973e-04	6.090042747e-11
-9.900000000e-03	2.678512432e-01	-5.414338076e-04	5.917899915e-12
-1.000000000e-02	2.678512468e-01	-5.387205177e-04	1.222663839e-11
-1.010000000e-02	2.678512503e-01	-5.360072278e-04	1.763934488e-11
-1.020000000e-02	2.678512538e-01	-5.332939378e-04	2.344136476e-11
-1.030000000e-02	2.678512572e-01	-5.305806477e-04	2.844175208e-11
-1.040000000e-02	2.678512605e-01	-5.278673575e-04	1.828911929e-11
-1.050000000e-02	2.678512637e-01	-5.251540673e-04	4.082509355e-11
-1.060000000e-02	2.678512669e-01	-5.224407771e-04	7.116872681e-12
-1.070000000e-02	2.678512699e-01	-5.197274867e-04	2.047824202e-11
-1.080000000e-02	2.678512729e-01	-5.170141964e-04	1.015947666e-11
-1.090000000e-02	2.678512758e-01	-5.143009059e-04	1.115177988e-11
-1.100000000e-02	2.678512786e-01	-5.115876155e-04	1.424679335e-11
-1.110000000e-02	2.678512813e-01	-5.088743250e-04	6.411182949e-12
-1.120000000e-02	2.678512840e-01	-5.061610344e-04	6.886652575e-12
-1.130000000e-02	2.678512866e-01	-5.034477439e-04	9.072650174e-12
-1.140000000e-02	2.678512890e-01	-5.007344533e-04	1.469955158e-11
-1.150000000e-02	2.678512914e-01	-4.980211626e-04	1.674548128e-11
-1.160000000e-02	2.678512938e-01	-4.953078720e-04	1.561200917e-11
-1.170000000e-02	2.678512960e-01	-4.925945814e-04	1.328720936e-11
-1.180000000e-02	2.678512981e-01	-4.898812907e-04	3.026106750e-11
-1.190000000e-02	2.678513002e-01	-4.871680001e-04	8.209339421e-12
-1.200000000e-02	2.678513022e-01	-4.844547094e-04	3.913801562e-11
-1.210000000e-02	2.678513041e-01	-4.817414187e-04	4.404069568e-11
-1.220000000e-02	2.678513059e-01	-4.790281281e-04	1.899072451e-11
-1.230000000e-02	2.678513077e-01	-4.763148375e-04	1.682710309e-11
-1.240000000e-02	2.678513093e-01	-4.736015468e-04	1.767762842e-11
-1.250000000e-02	2.678513109e-01	-4.708882562e-04	1.452937715e-11
-1.260000000e-02	2.678513124e-01	-4.681749657e-04	1.627253972e-11
-1.270000000e-02	2.678513138e-01	-4.654616751e-04	8.149031198e-12
-1.280000000e-02	2.678513151e-01	-4.627483846e-04	1.389636363e-11
-1.290000000e-02	2.678513164e-01	-4.600350941e-04	4.671509786e-12
-1.300000000e-02	2.678513175e-01	-4.573218037e-04	2.622155764e-11
-1.310000000e-02	2.678513186e-01	-4.546085133e-04	2.455152283e-11
-1.320000000e-02	2.678513196e-01	-4.518952230e-04	2.651455872e-12
-1.330000000e-02	2.678513205e-01	-4.491819327e-04	2.456758400e-11
-1.340000000e-02	2.678513214e-01	-4.464686425e-04	9.310651271e-12
-1.350000000e-02	2.678513221e-01	-4.437553523e-04	2.330166458e-11
-1.360000000e-02	2.678513228e-01	-4.410420622e-04	1.140466389e-10
-1.370000000e-02	2.678513234e-01	-4.383287722e-04	2.805974347e-11
-1.380000000e-02	2.678513239e-01	-4.356154822e-04	8.320297468e-12
-1.390000000e-02	2.678513243e-01	-4.329021923e-04	3.261130028e-11
-1.400000000e-02	2.678513246e-01	-4.301889025e-04	6.927822563e-12
-1.410000000e-02	2.678513249e-01	-4.274756128e-04	4.785014696e-12
-1.420000000e-02	2.678513250e-01	-4.247623232e-04	1.608211632e-11
-1.430000000e-02	2.678513251e-01	-4.220490337e-04	9.128145451e-12
-1.440000000e-02	2.678513251e-01	-4.193357443e-04	1.386296418e-11
-1.450000000e-02	2.678513251e-01	-4.166224550e-04	1.084681393e-11
-1.460000000e-02	2.678513249e-01	-4.139091658e-04	1.304997210e-11
-1.470000000e-02	2.678513247e-01	-4.111958767e-04	1.054735750e-11
-1.480000000e-02	2.678513244e-01	-4.084825877e-04	2.744814453e-11
-1.490000000e-02	2.678513240e-01	-4.057692988e-04	1.353699416e-11
-1.500000000e-02	2.678513235e-01	-4.030560101e-04	1.435613341e-11
-1.510000000e-02	2.678513229e-01	-4.003427215e-04	1.361197269e-11
-1.520000000e-02	2.678513223e-01	-3.976294330e-04	9.929707716e-12
-1.530000000e-02	2.678513215e-01	-3.949161447e-04	1.075535485e-11
-1.540000000e-02	2.678513207e-01	-3.922028565e-04	2.413910635e-11
-1.550000000e-02	2.678513198e-01	-3.894895684e-04	2.260230196e-11
-1.560000000e-02	2.678513188e-01	-3.867762805e-04	5.074257946e-12
-1.570000000e-02	2.678513178e-01	-3.840629928e-04	6.465024405e-12
-1.580000000e-02	2.678513166e-01	-3.813497052e-04	9.926396203e-11
-1.590000000e-02	2.678513154e-01	-3.786364178e-04	6.678181451e-11
-1.600000000e-02	2.678513141e-01	-3.759231305e-04	7.936872004e-12
-1.610000000e-02	2.678513127e-01	-3.732098434e-04	1.618296257e-11
-1.620000000e-02	2.678513112e-01	-3.704965565e-04	1.017375795e-11
-1.630000000e-02	2.678513097e-01	-3.677832698e-04	8.527478030e-12
-1.640000000e-02	2.678513080e-01	-3.650699832e-04	1.801096239e-11
-1.650000000e-02	2.678513063e-01	-3.623566969e-04	1.313828358e-11
-1.660000000e-02	2.678513045e-01	-3.596434107e-04	9.817064577e-12
-1.670000000e-02	2.678513026e-01	-3.569301247e-04	1.163505156e-11
-1.680000000e-02	2.678513006e-01	-3.542168389e-04	2.540065223e-11
-1.690000000e-02	2.678512986e-01	-3.515035533e-04	2.418353930e-11
-1.700000000e-02	2.678512964e-01	-3.487902680e-04	1.212547158e-11
-1.710000000e-02	2.678512942e-01	-3.460769828e-04	8.544462552e-12
-1.720000000e-02	2.678512919e-01	-3.433636979e-04	7.530041343e-12
-1.730000000e-02	2.678512895e-01	-3.406504132e-04	3.096054718e-11
-1.740000000e-02	2.678512871e-01	-3.379371287e-04	1.538564973e-11
-1.750000000e-02	2.678512845e-01	-3.352238444e-04	3.278751839e-11
-1.760000000e-02	2.678512819e-01	-3.325105604e-04	1.381799430e-11
-1.770000000e-02	2.678512792e-01	-3.297972766e-04	1.443137016e-11
-1.780000000e-02	2.678512764e-01	-3.270839930e-04	4.374701711e-11
-1.790000000e-02	2.678512735e-01	-3.243707097e-04	2.020222775e-11
-1.800000000e-02	2.678512706e-01	-3.216574267e-04	9.391237410e-12
-1.810000000e-02	2.678512675e-01	-3.189441439e-04	5.459070828e-12
-1.820000000e-02	2.678512644e-01	-3.162308613e-04	1.907797135e-11
-1.830000000e-02	2.678512612e-01	-3.135175790e-04	2.368287478e-11
-1.840000000e-02	2.678512579e-01	-3.108042970e-04	2.008360867e-11
-1.850000000e-02	2.678512545e-01	-3.080910153e-04	1.400462358e-11
-1.860000000e-02	2.678512511e-01	-3.053777338e-04	4.759914483e-12
-1.870000000e-02	2.678512475e-01	-3.026644526e-04	1.132027639e-11
-1.880000000e-02	2.678512439e-01	-2.999511717e-04	4.421187224e-11
-1.890000000e-02	2.678512402e-01	-2.972378911e-04	1.020499525e-11
-1.900000000e-02	2.678512364e-01	-2.945246108e-04	1.825486313e-11
-1.910000000e-02	2.678512326e-01	-2.918113307e-04	7.924164117e-12
-1.920000000e-02	2.678512286e-01	-2.890980510e-04	1.764113480e-11
-1.930000000e-02	2.678512246e-01	-2.863847716e-04	1.124512175e-11
-1.940000000e-02	2.678512205e-01	-2.836714924e-04	9.709559683e-12
-1.950000000e-02	2.678512163e-01	-2.809582136e-04	1.004394414e-11
-1.960000000e-02	2.678512120e-01	-2.782449351e-04	2.206492319e-11
-1.970000000e-02	2.678512077e-01	-2.755316570e-04	1.062397838e-11
-1.980000000e-02	2.678512032e-01	-2.728183791e-04	1.104787978e-11
-1.990000000e-02	2.678511987e-01	-2.701051016e-04	3.911607453e-11
-2.000000000e-02	2.678511941e-01	-2.673918244e-04	1.689082487e-11
-2.010000000e-02	2.678511894e-01	-2.646785476e-04	1.308415211e-11
-2.020000000e-02	2.678511846e-01	-2.619652711e-04	1.095168879e-11
-2.030000000e-02	2.678511798e-01	-2.592519949e-04	3.789002912e-11
-2.040000000e-02	2.678511748e-01	-2.565387191e-04	5.509892812e-11
-2.050000000e-02	2.678511698e-01	-2.538254436e-04	1.134325088e-11
-2.060000000e-02	2.678511647e-01	-2.511121685e-04	7.126013922e-12
-2.070000000e-02	2.678511595e-01	-2.483988938e-04	1.133658576e-11
-2.080000000e-02	2.678511543e-01	-2.456856194e-04	1.934052893e-11
-2.090000000e-02	2.678511489e-01	-2.429723454e-04	3.022924334e-11
-2.100000000e-02	2.678511435e-01	-2.402590718e-04	1.958779018e-11
-2.110000000e-02	2.678511380e-01	-2.375457985e-04	1.963884887e-11
-2.120000000e-02	2.678511324e-01	-2.348325257e-04	8.003289256e-12
-2.130000000e-02	2.678511267e-01	-2.321192532e-04	1.117180810e-11
-2.140000000e-02	2.678511209e-01	-2.294059811e-04	1.775896708e-11
-2.150000000e-02	2.678511151e-01	-2.266927094e-04	2.031789386e-11
-2.160000000e-02	2.678511092e-01	-2.239794382e-04	7.863264983e-11
-2.170000000e-02	2.678511032e-01	-2.212661673e-04	1.257916041e-11
-2.180000000e-02	2.678510971e-01	-2.185528968e-04	6.964803684e-12
-2.190000000e-02	2.678510909e-01	-2.158396267e-04	1.852060070e-11
-2.200000000e-02	2.678510846e-01	-2.131263571e-04	1.103079301e-11
-2.210000000e-02	2.678510783e-01	-2.104130879e-04	7.994062840e-12
-2.220000000e-02	2.678510719e-01	-2.076998191e-04	1.186764880e-11
-2.230000000e-02	2.678510654e-01	-2.049865507e-04	1.918580284e-11
-2.240000000e-02	2.678510588e-01	-2.022732827e-04	1.651875389e-11
-2.250000000e-02	2.678510521e-01	-1.995600152e-04	4.305984976e-11
-2.260000000e-02	2.678510454e-01	-1.968467482e-04	5.176051237e-11
-2.270000000e-02	2.678510385e-01	-1.941334816e-04	1.077347481e-11
-2.280000000e-02	2.678510316e-01	-1.914202154e-04	4.419092889e-12
-2.290000000e-02	2.678510246e-01	-1.887069497e-04	1.123914738e-11
-2.300000000e-02	2.678510175e-01	-1.859936845e-04	8.841435070e-12
-2.310000000e-02	2.678510104e-01	-1.832804197e-04	7.745755303e-12
-2.320000000e-02	2.678510031e-01	-1.805671553e-04	7.994254310e-12
-2.330000000e-02	2.678509958e-01	-1.778538915e-04	1.852743210e-11
-2.340000000e-02	2.678509884e-01	-1.751406281e-04	8.900319075e-12
-2.350000000e-02	2.678509809e-01	-1.724273652e-04	2.202311248e-11
-2.360000000e-02	2.678509733e-01	-1.697141028e-04	1.427577768e-11
-2.370000000e-02	2.678509657e-01	-1.670008409e-04	6.366739914e-12
-2.380000000e-02	2.678509579e-01	-1.642875794e-04	6.493257699e-12
-2.390000000e-02	2.678509501e-01	-1.615743185e-04	1.364810004e-11
-2.400000000e-02	2.678509422e-01	-1.588610581e-04	8.114538681e-12
-2.410000000e-02	2.678509342e-01	-1.561477981e-04	8.465670203e-12
-2.420000000e-02	2.678509262e-01	-1.534345387e-04	2.973272960e-11
-2.430000000e-02	2.678509180e-01	-1.507212798e-04	1.448821394e-11
-2.440000000e-02	2.678509098e-01	-1.480080214e-04	8.145167756e-12
-2.450000000e-02	2.678509015e-01	-1.452947635e-04	1.667966679e-11
-2.460000000e-02	2.678508931e-01	-1.425815062e-04	3.199835018e-11
-2.470000000e-02	2.678508846e-01	-1.398682494e-04	1.441853042e-11
-2.480000000e-02	2.678508760e-01	-1.371549931e-04	1.927818737e-11
-2.490000000e-02	2.678508674e-01	-1.344417373e-04	6.995250142e-11
-2.500000000e-02	2.678508586e-01	-1.317284821e-04	4.327513425e-11
-2.510000000e-02	2.678508498e-01	-1.290152274e-04	8.866470852e-12
-2.520000000e-02	2.678508409e-01	-1.263019733e-04	3.550230809e-11
-2.530000000e-02	2.678508320e-01	-1.235887198e-04	2.476734121e-11
-2.540000000e-02	2.678508229e-01	-1.208754668e-04	2.386333914e-11
-2.550000000e-02	2.678508138e-01	-1.181622143e-04	1.276343953e-11
-2.560000000e-02	2.678508045e-01	-1.154489625e-04	7.817481018e-12
-2.570000000e-02	2.678507952e-01	-1.127357112e-04	1.015609276e-11
-2.580000000e-02	2.678507858e-01	-1.100224604e-04	2.303241785e-11
-2.590000000e-02	2.678507764e-01	-1.073092103e-04	2.526691403e-11
-2.600000000e-02	2.678507668e-01	-1.045959607e-04	2.380423347e-11
-2.610000000e-02	2.678507572e-01	-1.018827118e-04	1.766115252e-11
-2.620000000e-02	2.678507475e-01	-9.916946338e-05	1.737809202e-11
-2.630000000e-02	2.678507377e-01	-9.645621559e-05	1.009127061e-11
-2.640000000e-02	2.678507278e-01	-9.374296841e-05	8.310434711e-12
-2.650000000e-02	2.678507178e-01	-9.102972183e-05	1.294839774e-11
-2.660000000e-02	2.678507078e-01	-8.831647585e-05	4.799243039e-11
-2.670000000e-02	2.678506977e-01	-8.560323049e-05	1.903450386e-11
-2.680000000e-02	2.678506874e-01	-8.288998575e-05	7.809134596e-12
-2.690000000e-02	2.678506771e-01	-8.017674163e-05	3.040607880e-11
-2.700000000e-02	2.678506668e-01	-7.746349813e-05	1.395169574e-11
-2.710000000e-02	2.678506563e-01	-7.475025526e-05	1.630287406e-11
-2.720000000e-02	2.678506458e-01	-7.203701303e-05	1.879860804e-11
-2.730000000e-02	2.678506351e-01	-6.932377143e-05	1.696012851e-11
-2.740000000e-02	2.678506244e-01	-6.661053047e-05	1.069298147e-11
-2.750000000e-02	2.678506137e-01	-6.389729016e-05	1.908859859e-11
-2.760000000e-02	2.678506028e-01	-6.118405051e-05	5.091736303e-12
-2.770000000e-02	2.678505918e-01	-5.847081150e-05	1.302691481e-11
-2.780000000e-02	2.678505808e-01	-5.575757316e-05	3.941645330e-11
-2.790000000e-02	2.678505697e-01	-5.304433547e-05	1.273216186e-11
-2.800000000e-02	2.678505585e-01	-5.033109846e-05	8.341067029e-12
-2.810000000e-02	2.678505472e-01	-4.761786211e-05	6.003876943e-12
-2.820000000e-02	2.678505358e-01	-4.490462644e-05	1.563764969e-11
-2.830000000e-02	2.678505244e-01	-4.219139145e-05	1.922162776e-11
-2.840000000e-02	2.678505128e-01	-3.947815714e-05	6.815083887e-11
-2.850000000e-02	2.678505012e-01	-3.676492352e-05	2.788972516e-11
-2.860000000e-02	2.678504895e-01	-3.405169060e-05	7.539278725e-12
-2.870000000e-02	2.678504778e-01	-3.133845836e-05	1.035407641e-11
-2.880000000e-02	2.678504659e-01	-2.862522683e-05	6.675535754e-12
-2.890000000e-02	2.678504540e-01	-2.591199601e-05	1.054821286e-11
-2.900000000e-02	2.678504419e-01	-2.319876589e-05	1.165819527e-11
-2.910000000e-02	2.678504298e-01	-2.048553648e-05	9.356240543e-12
-2.920000000e-02	2.678504176e-01	-1.777230780e-05	2.021123164e-11
-2.930000000e-02	2.678504054e-01	-1.505907983e-05	1.365757388e-11
-2.940000000e-02	2.678503930e-01	-1.234585259e-05	2.902713728e-11
-2.950000000e-02	2.678503806e-01	-9.632626075e-06	1.435653067e-10
-2.960000000e-02	2.678503680e-01	-6.919400294e-06	5.585655560e-12
-2.970000000e-02	2.678503554e-01	-4.206175253e-06	5.272335905e-12
-2.980000000e-02	2.678503428e-01	-1.492950953e-06	7.357513803e-12
-2.990000000e-02	2.678503300e-01	1.220272600e-06	1.362216718e-11
-3.000000000e-02	2.678503171e-01	3.933495404e-06	6.298051471e-11
