# Im(epsi1)     Re(omega/c)      Im(omega/c)      Eq(det).Opt det CON kz, R=0.5 \mum, mu_c=0.3, Re(epsi1)=3.90solve_det_conkz_vs_kz.py
0.000000000e+00	2.678519720e-01	-8.100549467e-04	1.130406881e-11
-1.000000000e-04	2.678519837e-01	-8.073416735e-04	1.010901190e-11
-2.000000000e-04	2.678519955e-01	-8.046283998e-04	1.195993784e-11
-3.000000000e-04	2.678520071e-01	-8.019151256e-04	8.719595774e-12
-4.000000000e-04	2.678520186e-01	-7.992018510e-04	3.023969763e-11
-5.000000000e-04	2.678520301e-01	-7.964885758e-04	1.091001520e-11
-6.000000000e-04	2.678520415e-01	-7.937753002e-04	6.435416634e-12
-7.000000000e-04	2.678520528e-01	-7.910620241e-04	1.376474832e-11
-8.000000000e-04	2.678520640e-01	-7.883487476e-04	7.809425613e-11
-9.000000000e-04	2.678520751e-01	-7.856354705e-04	3.909240390e-11
-1.000000000e-03	2.678520862e-01	-7.829221931e-04	1.134961801e-11
-1.100000000e-03	2.678520972e-01	-7.802089151e-04	9.312408209e-12
-1.200000000e-03	2.678521081e-01	-7.774956367e-04	5.168763396e-12
-1.300000000e-03	2.678521189e-01	-7.747823579e-04	1.796346929e-11
-1.400000000e-03	2.678521296e-01	-7.720690786e-04	3.106623171e-11
-1.500000000e-03	2.678521402e-01	-7.693557989e-04	8.847275431e-12
-1.600000000e-03	2.678521508e-01	-7.666425188e-04	2.397423060e-11
-1.700000000e-03	2.678521613e-01	-7.639292382e-04	9.819137428e-12
-1.800000000e-03	2.678521717e-01	-7.612159572e-04	1.113714008e-10
-1.900000000e-03	2.678521820e-01	-7.585026757e-04	8.533978430e-11
-2.000000000e-03	2.678521922e-01	-7.557893939e-04	1.481395148e-11
-2.100000000e-03	2.678522023e-01	-7.530761116e-04	1.620537472e-11
-2.200000000e-03	2.678522124e-01	-7.503628290e-04	1.451204909e-11
-2.300000000e-03	2.678522224e-01	-7.476495459e-04	1.821120897e-11
-2.400000000e-03	2.678522323e-01	-7.449362624e-04	1.168010944e-11
-2.500000000e-03	2.678522421e-01	-7.422229785e-04	1.276949371e-11
-2.600000000e-03	2.678522518e-01	-7.395096943e-04	1.249279455e-11
-2.700000000e-03	2.678522615e-01	-7.367964096e-04	3.956564306e-11
-2.800000000e-03	2.678522711e-01	-7.340831246e-04	8.600353371e-12
-2.900000000e-03	2.678522806e-01	-7.313698392e-04	1.065028584e-11
-3.000000000e-03	2.678522900e-01	-7.286565534e-04	1.493664815e-11
-3.100000000e-03	2.678522993e-01	-7.259432672e-04	1.594486086e-10
-3.200000000e-03	2.678523085e-01	-7.232299807e-04	8.775045036e-12
-3.300000000e-03	2.678523177e-01	-7.205166938e-04	1.014425859e-11
-3.400000000e-03	2.678523268e-01	-7.178034065e-04	1.037933599e-11
-3.500000000e-03	2.678523357e-01	-7.150901189e-04	1.238384239e-11
-3.600000000e-03	2.678523447e-01	-7.123768310e-04	2.375989996e-11
-3.700000000e-03	2.678523535e-01	-7.096635427e-04	3.766635102e-11
-3.800000000e-03	2.678523622e-01	-7.069502540e-04	1.228844460e-11
-3.900000000e-03	2.678523709e-01	-7.042369650e-04	1.264325383e-11
-4.000000000e-03	2.678523795e-01	-7.015236757e-04	2.288716377e-11
-4.100000000e-03	2.678523880e-01	-6.988103860e-04	1.510069370e-11
-4.200000000e-03	2.678523964e-01	-6.960970961e-04	3.519424487e-11
-4.300000000e-03	2.678524047e-01	-6.933838058e-04	8.646609267e-12
-4.400000000e-03	2.678524130e-01	-6.906705151e-04	1.138608841e-10
-4.500000000e-03	2.678524211e-01	-6.879572242e-04	1.037424962e-11
-4.600000000e-03	2.678524292e-01	-6.852439330e-04	5.862301581e-12
-4.700000000e-03	2.678524372e-01	-6.825306414e-04	5.850690886e-11
-4.800000000e-03	2.678524452e-01	-6.798173496e-04	1.113791381e-11
-4.900000000e-03	2.678524530e-01	-6.771040574e-04	1.075616304e-11
-5.000000000e-03	2.678524607e-01	-6.743907650e-04	9.786979634e-12
-5.100000000e-03	2.678524684e-01	-6.716774723e-04	9.550602539e-12
-5.200000000e-03	2.678524760e-01	-6.689641793e-04	1.260922848e-11
-5.300000000e-03	2.678524835e-01	-6.662508860e-04	1.144217005e-11
-5.400000000e-03	2.678524910e-01	-6.635375924e-04	8.335091154e-12
-5.500000000e-03	2.678524983e-01	-6.608242986e-04	2.093848802e-11
-5.600000000e-03	2.678525056e-01	-6.581110045e-04	1.297794603e-11
-5.700000000e-03	2.678525127e-01	-6.553977101e-04	1.167351501e-11
-5.800000000e-03	2.678525198e-01	-6.526844155e-04	6.079416165e-12
-5.900000000e-03	2.678525268e-01	-6.499711206e-04	9.274194581e-12
-6.000000000e-03	2.678525338e-01	-6.472578255e-04	1.754314965e-11
-6.100000000e-03	2.678525406e-01	-6.445445301e-04	1.000774945e-11
-6.200000000e-03	2.678525474e-01	-6.418312345e-04	1.758025190e-11
-6.300000000e-03	2.678525541e-01	-6.391179386e-04	2.102539041e-10
-6.400000000e-03	2.678525607e-01	-6.364046425e-04	8.202391491e-12
-6.500000000e-03	2.678525672e-01	-6.336913462e-04	1.117847022e-11
-6.600000000e-03	2.678525736e-01	-6.309780496e-04	2.245503384e-11
-6.700000000e-03	2.678525800e-01	-6.282647528e-04	9.450995727e-12
-6.800000000e-03	2.678525863e-01	-6.255514559e-04	3.294939667e-11
-6.900000000e-03	2.678525925e-01	-6.228381587e-04	1.504572578e-11
-7.000000000e-03	2.678525986e-01	-6.201248612e-04	2.017138634e-11
-7.100000000e-03	2.678526046e-01	-6.174115636e-04	1.416435509e-11
-7.200000000e-03	2.678526105e-01	-6.146982658e-04	1.130143824e-11
-7.300000000e-03	2.678526164e-01	-6.119849678e-04	8.155454564e-12
-7.400000000e-03	2.678526222e-01	-6.092716696e-04	8.605315544e-12
-7.500000000e-03	2.678526279e-01	-6.065583712e-04	4.863458988e-12
-7.600000000e-03	2.678526335e-01	-6.038450726e-04	1.045945046e-11
-7.700000000e-03	2.678526390e-01	-6.011317739e-04	2.457717017e-11
-7.800000000e-03	2.678526445e-01	-5.984184749e-04	1.702751748e-11
-7.900000000e-03	2.678526498e-01	-5.957051758e-04	1.417330232e-11
-8.000000000e-03	2.678526551e-01	-5.929918765e-04	1.093616860e-11
-8.100000000e-03	2.678526603e-01	-5.902785771e-04	4.850700748e-11
-8.200000000e-03	2.678526654e-01	-5.875652775e-04	4.845493973e-12
-8.300000000e-03	2.678526705e-01	-5.848519778e-04	1.784085829e-11
-8.400000000e-03	2.678526754e-01	-5.821386779e-04	2.443767916e-11
-8.500000000e-03	2.678526803e-01	-5.794253778e-04	2.486867836e-11
-8.600000000e-03	2.678526851e-01	-5.767120776e-04	2.435582894e-11
-8.700000000e-03	2.678526898e-01	-5.739987773e-04	1.528288738e-11
-8.800000000e-03	2.678526944e-01	-5.712854768e-04	3.244604529e-11
-8.900000000e-03	2.678526990e-01	-5.685721762e-04	2.282481145e-11
-9.000000000e-03	2.678527034e-01	-5.658588755e-04	7.425472418e-12
-9.100000000e-03	2.678527078e-01	-5.631455747e-04	2.368987216e-11
-9.200000000e-03	2.678527121e-01	-5.604322737e-04	1.764146164e-11
-9.300000000e-03	2.678527163e-01	-5.577189727e-04	7.684999226e-11
-9.400000000e-03	2.678527204e-01	-5.550056715e-04	2.299904633e-11
-9.500000000e-03	2.678527245e-01	-5.522923702e-04	1.329761566e-11
-9.600000000e-03	2.678527285e-01	-5.495790688e-04	3.153536440e-11
-9.700000000e-03	2.678527323e-01	-5.468657673e-04	2.226756180e-11
-9.800000000e-03	2.678527361e-01	-5.441524658e-04	1.438695512e-11
-9.900000000e-03	2.678527399e-01	-5.414391641e-04	1.023182102e-11
-1.000000000e-02	2.678527435e-01	-5.387258623e-04	3.031029319e-11
-1.010000000e-02	2.678527470e-01	-5.360125605e-04	9.973005755e-12
-1.020000000e-02	2.678527505e-01	-5.332992586e-04	4.560817435e-11
-1.030000000e-02	2.678527539e-01	-5.305859566e-04	1.817229618e-11
-1.040000000e-02	2.678527572e-01	-5.278726546e-04	4.582099773e-12
-1.050000000e-02	2.678527604e-01	-5.251593525e-04	7.438478397e-12
-1.060000000e-02	2.678527636e-01	-5.224460503e-04	1.904603179e-11
-1.070000000e-02	2.678527666e-01	-5.197327481e-04	3.877782801e-11
-1.080000000e-02	2.678527696e-01	-5.170194459e-04	1.621700001e-11
-1.090000000e-02	2.678527725e-01	-5.143061435e-04	1.624615786e-11
-1.100000000e-02	2.678527753e-01	-5.115928412e-04	1.296831844e-11
-1.110000000e-02	2.678527780e-01	-5.088795388e-04	7.513993972e-12
-1.120000000e-02	2.678527807e-01	-5.061662364e-04	7.301637493e-12
-1.130000000e-02	2.678527832e-01	-5.034529339e-04	4.080924900e-12
-1.140000000e-02	2.678527857e-01	-5.007396314e-04	7.527366308e-12
-1.150000000e-02	2.678527881e-01	-4.980263289e-04	1.609608945e-11
-1.160000000e-02	2.678527904e-01	-4.953130264e-04	1.604038814e-11
-1.170000000e-02	2.678527927e-01	-4.925997239e-04	3.025472571e-12
-1.180000000e-02	2.678527948e-01	-4.898864213e-04	1.475713125e-11
-1.190000000e-02	2.678527969e-01	-4.871731188e-04	3.544517572e-12
-1.200000000e-02	2.678527989e-01	-4.844598162e-04	3.872727459e-11
-1.210000000e-02	2.678528008e-01	-4.817465137e-04	6.619999449e-12
-1.220000000e-02	2.678528026e-01	-4.790332111e-04	7.784387170e-12
-1.230000000e-02	2.678528044e-01	-4.763199086e-04	1.064711872e-11
-1.240000000e-02	2.678528060e-01	-4.736066061e-04	1.437694796e-11
-1.250000000e-02	2.678528076e-01	-4.708933036e-04	6.745788702e-12
-1.260000000e-02	2.678528091e-01	-4.681800012e-04	8.516839523e-12
-1.270000000e-02	2.678528105e-01	-4.654666987e-04	7.824513765e-11
-1.280000000e-02	2.678528118e-01	-4.627533963e-04	1.504171122e-11
-1.290000000e-02	2.678528131e-01	-4.600400939e-04	8.446695619e-12
-1.300000000e-02	2.678528142e-01	-4.573267916e-04	4.087622633e-11
-1.310000000e-02	2.678528153e-01	-4.546134893e-04	8.893926108e-12
-1.320000000e-02	2.678528163e-01	-4.519001871e-04	7.858934960e-12
-1.330000000e-02	2.678528172e-01	-4.491868849e-04	2.241967734e-11
-1.340000000e-02	2.678528180e-01	-4.464735828e-04	1.266248566e-11
-1.350000000e-02	2.678528188e-01	-4.437602808e-04	4.100273037e-11
-1.360000000e-02	2.678528195e-01	-4.410469788e-04	6.846776924e-12
-1.370000000e-02	2.678528201e-01	-4.383336769e-04	1.175830807e-11
-1.380000000e-02	2.678528206e-01	-4.356203750e-04	5.471349631e-12
-1.390000000e-02	2.678528210e-01	-4.329070732e-04	1.561128865e-11
-1.400000000e-02	2.678528213e-01	-4.301937716e-04	8.645313468e-11
-1.410000000e-02	2.678528216e-01	-4.274804700e-04	7.670080044e-12
-1.420000000e-02	2.678528217e-01	-4.247671685e-04	1.566059445e-11
-1.430000000e-02	2.678528218e-01	-4.220538670e-04	8.500259623e-12
-1.440000000e-02	2.678528218e-01	-4.193405657e-04	3.946014771e-11
-1.450000000e-02	2.678528218e-01	-4.166272645e-04	7.529373624e-12
-1.460000000e-02	2.678528216e-01	-4.139139634e-04	6.230259634e-12
-1.470000000e-02	2.678528214e-01	-4.112006624e-04	2.807821746e-11
-1.480000000e-02	2.678528211e-01	-4.084873616e-04	1.379056384e-11
-1.490000000e-02	2.678528207e-01	-4.057740608e-04	8.871713907e-12
-1.500000000e-02	2.678528202e-01	-4.030607602e-04	2.864669430e-11
-1.510000000e-02	2.678528196e-01	-4.003474597e-04	8.692343536e-11
-1.520000000e-02	2.678528189e-01	-3.976341593e-04	2.415708054e-10
-1.530000000e-02	2.678528182e-01	-3.949208591e-04	1.220320387e-11
-1.540000000e-02	2.678528174e-01	-3.922075590e-04	1.210291734e-11
-1.550000000e-02	2.678528165e-01	-3.894942591e-04	1.605870900e-11
-1.560000000e-02	2.678528155e-01	-3.867809593e-04	3.169842688e-11
-1.570000000e-02	2.678528145e-01	-3.840676597e-04	8.557667695e-12
-1.580000000e-02	2.678528133e-01	-3.813543602e-04	2.364283568e-11
-1.590000000e-02	2.678528121e-01	-3.786410609e-04	5.807654653e-11
-1.600000000e-02	2.678528108e-01	-3.759277617e-04	1.040089032e-11
-1.610000000e-02	2.678528094e-01	-3.732144627e-04	1.637328522e-11
-1.620000000e-02	2.678528079e-01	-3.705011639e-04	8.293397425e-12
-1.630000000e-02	2.678528063e-01	-3.677878653e-04	1.238826584e-11
-1.640000000e-02	2.678528047e-01	-3.650745669e-04	3.712570721e-11
-1.650000000e-02	2.678528030e-01	-3.623612686e-04	2.517684319e-11
-1.660000000e-02	2.678528012e-01	-3.596479705e-04	1.328915992e-11
-1.670000000e-02	2.678527993e-01	-3.569346727e-04	1.237983804e-11
-1.680000000e-02	2.678527973e-01	-3.542213750e-04	8.375915570e-12
-1.690000000e-02	2.678527953e-01	-3.515080775e-04	3.359226920e-11
-1.700000000e-02	2.678527931e-01	-3.487947803e-04	1.216213628e-11
-1.710000000e-02	2.678527909e-01	-3.460814832e-04	1.143583035e-11
-1.720000000e-02	2.678527886e-01	-3.433681864e-04	1.402763143e-11
-1.730000000e-02	2.678527862e-01	-3.406548898e-04	1.934015854e-11
-1.740000000e-02	2.678527838e-01	-3.379415934e-04	1.216939305e-11
-1.750000000e-02	2.678527812e-01	-3.352282973e-04	6.225403451e-12
-1.760000000e-02	2.678527786e-01	-3.325150013e-04	3.570753919e-11
-1.770000000e-02	2.678527759e-01	-3.298017057e-04	1.816295091e-11
-1.780000000e-02	2.678527731e-01	-3.270884102e-04	5.048366289e-11
-1.790000000e-02	2.678527702e-01	-3.243751150e-04	1.438780560e-11
-1.800000000e-02	2.678527673e-01	-3.216618201e-04	9.166472604e-12
-1.810000000e-02	2.678527642e-01	-3.189485254e-04	4.664863202e-11
-1.820000000e-02	2.678527611e-01	-3.162352309e-04	7.798648929e-12
-1.830000000e-02	2.678527579e-01	-3.135219368e-04	1.487594596e-11
-1.840000000e-02	2.678527546e-01	-3.108086429e-04	1.292703034e-11
-1.850000000e-02	2.678527512e-01	-3.080953492e-04	1.167818065e-11
-1.860000000e-02	2.678527478e-01	-3.053820559e-04	2.245910016e-11
-1.870000000e-02	2.678527442e-01	-3.026687628e-04	4.967879538e-11
-1.880000000e-02	2.678527406e-01	-2.999554700e-04	5.442411779e-12
-1.890000000e-02	2.678527369e-01	-2.972421775e-04	1.182771288e-11
-1.900000000e-02	2.678527331e-01	-2.945288852e-04	6.397081755e-12
-1.910000000e-02	2.678527293e-01	-2.918155933e-04	1.669231528e-11
-1.920000000e-02	2.678527253e-01	-2.891023017e-04	7.470796758e-12
-1.930000000e-02	2.678527213e-01	-2.863890104e-04	3.526136529e-11
-1.940000000e-02	2.678527172e-01	-2.836757194e-04	5.448910502e-11
-1.950000000e-02	2.678527130e-01	-2.809624287e-04	2.149641045e-11
-1.960000000e-02	2.678527087e-01	-2.782491383e-04	1.098196115e-11
-1.970000000e-02	2.678527044e-01	-2.755358482e-04	1.090398356e-11
-1.980000000e-02	2.678526999e-01	-2.728225585e-04	8.341652975e-12
-1.990000000e-02	2.678526954e-01	-2.701092691e-04	1.027253744e-11
-2.000000000e-02	2.678526908e-01	-2.673959800e-04	5.478556763e-12
-2.010000000e-02	2.678526861e-01	-2.646826912e-04	2.958503562e-11
-2.020000000e-02	2.678526813e-01	-2.619694028e-04	2.728595713e-11
-2.030000000e-02	2.678526765e-01	-2.592561148e-04	4.723609120e-11
-2.040000000e-02	2.678526715e-01	-2.565428271e-04	4.297666878e-12
-2.050000000e-02	2.678526665e-01	-2.538295397e-04	5.439171983e-12
-2.060000000e-02	2.678526614e-01	-2.511162528e-04	1.864557154e-11
-2.070000000e-02	2.678526562e-01	-2.484029661e-04	1.027257556e-11
-2.080000000e-02	2.678526510e-01	-2.456896799e-04	3.450354874e-11
-2.090000000e-02	2.678526456e-01	-2.429763940e-04	5.012865062e-12
-2.100000000e-02	2.678526402e-01	-2.402631085e-04	1.808262922e-11
-2.110000000e-02	2.678526347e-01	-2.375498233e-04	1.286732648e-11
-2.120000000e-02	2.678526291e-01	-2.348365386e-04	5.248520742e-12
-2.130000000e-02	2.678526234e-01	-2.321232542e-04	9.308020674e-12
-2.140000000e-02	2.678526176e-01	-2.294099702e-04	1.777025547e-11
-2.150000000e-02	2.678526118e-01	-2.266966867e-04	1.543049085e-11
-2.160000000e-02	2.678526059e-01	-2.239834035e-04	1.393622921e-11
-2.170000000e-02	2.678525999e-01	-2.212701207e-04	7.680766930e-12
-2.180000000e-02	2.678525938e-01	-2.185568383e-04	7.154134711e-12
-2.190000000e-02	2.678525876e-01	-2.158435564e-04	1.514890759e-11
-2.200000000e-02	2.678525813e-01	-2.131302748e-04	1.274658754e-11
-2.210000000e-02	2.678525750e-01	-2.104169937e-04	2.182071562e-11
-2.220000000e-02	2.678525686e-01	-2.077037130e-04	1.139610830e-11
-2.230000000e-02	2.678525621e-01	-2.049904328e-04	9.943154715e-12
-2.240000000e-02	2.678525555e-01	-2.022771529e-04	1.320577546e-11
-2.250000000e-02	2.678525488e-01	-1.995638736e-04	1.135184787e-11
-2.260000000e-02	2.678525421e-01	-1.968505946e-04	3.288219094e-12
-2.270000000e-02	2.678525352e-01	-1.941373161e-04	1.006020245e-11
-2.280000000e-02	2.678525283e-01	-1.914240380e-04	5.159729413e-12
-2.290000000e-02	2.678525213e-01	-1.887107604e-04	2.146674741e-11
-2.300000000e-02	2.678525142e-01	-1.859974833e-04	4.775770486e-12
-2.310000000e-02	2.678525071e-01	-1.832842066e-04	1.184951902e-10
-2.320000000e-02	2.678524998e-01	-1.805709304e-04	1.295225019e-11
-2.330000000e-02	2.678524925e-01	-1.778576547e-04	5.900841302e-12
-2.340000000e-02	2.678524851e-01	-1.751443794e-04	1.893942844e-11
-2.350000000e-02	2.678524776e-01	-1.724311046e-04	1.054321410e-11
-2.360000000e-02	2.678524700e-01	-1.697178303e-04	9.204273386e-12
-2.370000000e-02	2.678524624e-01	-1.670045565e-04	5.138292468e-12
-2.380000000e-02	2.678524546e-01	-1.642912832e-04	1.114388399e-11
-2.390000000e-02	2.678524468e-01	-1.615780103e-04	1.781197860e-11
-2.400000000e-02	2.678524389e-01	-1.588647380e-04	2.909102386e-11
-2.410000000e-02	2.678524309e-01	-1.561514662e-04	3.446531411e-11
-2.420000000e-02	2.678524229e-01	-1.534381949e-04	3.029801103e-10
-2.430000000e-02	2.678524147e-01	-1.507249241e-04	1.411998048e-11
-2.440000000e-02	2.678524065e-01	-1.480116538e-04	1.051247161e-11
-2.450000000e-02	2.678523982e-01	-1.452983840e-04	9.595216291e-12
-2.460000000e-02	2.678523898e-01	-1.425851148e-04	2.252104387e-11
-2.470000000e-02	2.678523813e-01	-1.398718461e-04	1.509513067e-11
-2.480000000e-02	2.678523727e-01	-1.371585779e-04	8.519944851e-12
-2.490000000e-02	2.678523641e-01	-1.344453102e-04	1.451724778e-11
-2.500000000e-02	2.678523553e-01	-1.317320431e-04	9.836455368e-12
-2.510000000e-02	2.678523465e-01	-1.290187766e-04	4.513509941e-11
-2.520000000e-02	2.678523376e-01	-1.263055106e-04	7.102543103e-12
-2.530000000e-02	2.678523287e-01	-1.235922451e-04	1.179664542e-11
-2.540000000e-02	2.678523196e-01	-1.208789802e-04	1.301527880e-11
-2.550000000e-02	2.678523105e-01	-1.181657159e-04	2.331374986e-11
-2.560000000e-02	2.678523012e-01	-1.154524522e-04	1.237239601e-11
-2.570000000e-02	2.678522919e-01	-1.127391890e-04	1.008447276e-11
-2.580000000e-02	2.678522826e-01	-1.100259264e-04	1.008236561e-11
-2.590000000e-02	2.678522731e-01	-1.073126643e-04	2.717117624e-11
-2.600000000e-02	2.678522635e-01	-1.045994029e-04	2.804550038e-12
-2.610000000e-02	2.678522539e-01	-1.018861420e-04	1.451386724e-11
-2.620000000e-02	2.678522442e-01	-9.917288173e-05	1.303307560e-11
-2.630000000e-02	2.678522344e-01	-9.645962205e-05	2.809657799e-11
-2.640000000e-02	2.678522245e-01	-9.374636297e-05	1.551793448e-11
-2.650000000e-02	2.678522145e-01	-9.103310450e-05	1.734583414e-11
-2.660000000e-02	2.678522045e-01	-8.831984664e-05	1.399254634e-11
-2.670000000e-02	2.678521944e-01	-8.560658938e-05	2.401431988e-11
-2.680000000e-02	2.678521841e-01	-8.289333275e-05	7.601963277e-12
-2.690000000e-02	2.678521739e-01	-8.018007674e-05	1.979205132e-11
-2.700000000e-02	2.678521635e-01	-7.746682135e-05	9.503188272e-12
-2.710000000e-02	2.678521530e-01	-7.475356659e-05	1.438772744e-11
-2.720000000e-02	2.678521425e-01	-7.204031246e-05	1.373242781e-11
-2.730000000e-02	2.678521318e-01	-6.932705897e-05	2.291688389e-11
-2.740000000e-02	2.678521211e-01	-6.661380613e-05	8.528571342e-12
-2.750000000e-02	2.678521104e-01	-6.390055393e-05	1.857059617e-11
-2.760000000e-02	2.678520995e-01	-6.118730238e-05	1.174517935e-11
-2.770000000e-02	2.678520885e-01	-5.847405148e-05	7.951367794e-12
-2.780000000e-02	2.678520775e-01	-5.576080125e-05	8.800633964e-12
-2.790000000e-02	2.678520664e-01	-5.304755167e-05	1.347882981e-11
-2.800000000e-02	2.678520552e-01	-5.033430277e-05	2.079423399e-11
-2.810000000e-02	2.678520439e-01	-4.762105453e-05	1.939527546e-11
-2.820000000e-02	2.678520325e-01	-4.490780697e-05	1.091425544e-10
-2.830000000e-02	2.678520211e-01	-4.219456009e-05	1.140018603e-11
-2.840000000e-02	2.678520095e-01	-3.948131389e-05	1.178416431e-11
-2.850000000e-02	2.678519979e-01	-3.676806838e-05	1.170878860e-11
-2.860000000e-02	2.678519862e-01	-3.405482356e-05	1.160307611e-11
-2.870000000e-02	2.678519745e-01	-3.134157944e-05	1.892542220e-11
-2.880000000e-02	2.678519626e-01	-2.862833601e-05	1.343488108e-11
-2.890000000e-02	2.678519507e-01	-2.591509330e-05	1.180833964e-11
-2.900000000e-02	2.678519386e-01	-2.320185129e-05	4.279264529e-12
-2.910000000e-02	2.678519265e-01	-2.048860999e-05	1.184219559e-11
-2.920000000e-02	2.678519143e-01	-1.777536941e-05	6.594256516e-12
-2.930000000e-02	2.678519021e-01	-1.506212955e-05	1.182018214e-11
-2.940000000e-02	2.678518897e-01	-1.234889042e-05	8.902803158e-12
-2.950000000e-02	2.678518773e-01	-9.635652018e-06	1.025836676e-11
-2.960000000e-02	2.678518648e-01	-6.922414348e-06	2.072327699e-11
-2.970000000e-02	2.678518522e-01	-4.209177415e-06	2.051869745e-11
-2.980000000e-02	2.678518395e-01	-1.495941230e-06	1.873879167e-10
-2.990000000e-02	2.678518267e-01	1.217294220e-06	3.302531102e-11
-3.000000000e-02	2.678518139e-01	3.930528913e-06	4.086403502e-12
