# Im(epsi1)     Re(omega/c)      Im(omega/c)      Eq(det).Opt det CON kz, R=0.5 \mum, mu_c=0.3, Re(epsi1)=3.90solve_det_conkz_vs_kz.py
0.000000000e+00	2.678483527e-01	-8.100391471e-04	1.541803172e-11
-1.000000000e-04	2.678483645e-01	-8.073259026e-04	3.377828469e-12
-2.000000000e-04	2.678483762e-01	-8.046126577e-04	8.863269630e-12
-3.000000000e-04	2.678483878e-01	-8.018994122e-04	1.064817158e-11
-4.000000000e-04	2.678483994e-01	-7.991861663e-04	1.848888172e-11
-5.000000000e-04	2.678484108e-01	-7.964729199e-04	1.493115069e-11
-6.000000000e-04	2.678484222e-01	-7.937596731e-04	2.038588188e-11
-7.000000000e-04	2.678484335e-01	-7.910464257e-04	1.332316726e-11
-8.000000000e-04	2.678484447e-01	-7.883331779e-04	1.725590401e-11
-9.000000000e-04	2.678484559e-01	-7.856199297e-04	2.622176196e-11
-1.000000000e-03	2.678484669e-01	-7.829066809e-04	2.974141524e-11
-1.100000000e-03	2.678484779e-01	-7.801934318e-04	1.484897453e-11
-1.200000000e-03	2.678484888e-01	-7.774801821e-04	1.500610557e-11
-1.300000000e-03	2.678484996e-01	-7.747669320e-04	5.897614621e-12
-1.400000000e-03	2.678485103e-01	-7.720536815e-04	3.198345137e-11
-1.500000000e-03	2.678485209e-01	-7.693404306e-04	1.571217902e-11
-1.600000000e-03	2.678485315e-01	-7.666271792e-04	2.619411245e-11
-1.700000000e-03	2.678485420e-01	-7.639139273e-04	7.583737487e-12
-1.800000000e-03	2.678485524e-01	-7.612006751e-04	8.610284430e-12
-1.900000000e-03	2.678485627e-01	-7.584874224e-04	8.479263481e-12
-2.000000000e-03	2.678485729e-01	-7.557741693e-04	1.865156571e-11
-2.100000000e-03	2.678485831e-01	-7.530609158e-04	4.693332086e-12
-2.200000000e-03	2.678485931e-01	-7.503476619e-04	4.278825098e-12
-2.300000000e-03	2.678486031e-01	-7.476344076e-04	1.170251255e-11
-2.400000000e-03	2.678486130e-01	-7.449211528e-04	2.314552853e-11
-2.500000000e-03	2.678486228e-01	-7.422078977e-04	1.008335421e-11
-2.600000000e-03	2.678486326e-01	-7.394946422e-04	1.210049729e-11
-2.700000000e-03	2.678486422e-01	-7.367813863e-04	1.870572833e-11
-2.800000000e-03	2.678486518e-01	-7.340681300e-04	1.811858365e-12
-2.900000000e-03	2.678486613e-01	-7.313548734e-04	1.706689057e-11
-3.000000000e-03	2.678486707e-01	-7.286416163e-04	8.543717130e-12
-3.100000000e-03	2.678486800e-01	-7.259283589e-04	1.849467989e-12
-3.200000000e-03	2.678486892e-01	-7.232151011e-04	8.552129437e-12
-3.300000000e-03	2.678486984e-01	-7.205018430e-04	7.851822024e-12
-3.400000000e-03	2.678487075e-01	-7.177885845e-04	2.057249637e-11
-3.500000000e-03	2.678487165e-01	-7.150753256e-04	2.364730992e-11
-3.600000000e-03	2.678487254e-01	-7.123620664e-04	4.453963844e-11
-3.700000000e-03	2.678487342e-01	-7.096488069e-04	6.891500669e-12
-3.800000000e-03	2.678487429e-01	-7.069355470e-04	1.506300975e-11
-3.900000000e-03	2.678487516e-01	-7.042222867e-04	8.851595588e-12
-4.000000000e-03	2.678487602e-01	-7.015090261e-04	1.247424878e-11
-4.100000000e-03	2.678487687e-01	-6.987957652e-04	1.944822587e-11
-4.200000000e-03	2.678487771e-01	-6.960825040e-04	1.382919527e-11
-4.300000000e-03	2.678487854e-01	-6.933692425e-04	1.345647424e-11
-4.400000000e-03	2.678487937e-01	-6.906559806e-04	4.256913217e-11
-4.500000000e-03	2.678488018e-01	-6.879427184e-04	1.932384222e-11
-4.600000000e-03	2.678488099e-01	-6.852294559e-04	5.095204464e-12
-4.700000000e-03	2.678488179e-01	-6.825161931e-04	1.659218534e-11
-4.800000000e-03	2.678488259e-01	-6.798029300e-04	1.195070536e-11
-4.900000000e-03	2.678488337e-01	-6.770896667e-04	1.045561689e-11
-5.000000000e-03	2.678488415e-01	-6.743764030e-04	1.144461128e-11
-5.100000000e-03	2.678488491e-01	-6.716631390e-04	7.052189615e-12
-5.200000000e-03	2.678488567e-01	-6.689498747e-04	4.395274321e-11
-5.300000000e-03	2.678488642e-01	-6.662366102e-04	1.237300252e-10
-5.400000000e-03	2.678488717e-01	-6.635233454e-04	1.775308077e-10
-5.500000000e-03	2.678488790e-01	-6.608100803e-04	1.002376525e-11
-5.600000000e-03	2.678488863e-01	-6.580968150e-04	8.692727200e-12
-5.700000000e-03	2.678488934e-01	-6.553835493e-04	2.775798622e-11
-5.800000000e-03	2.678489005e-01	-6.526702835e-04	1.124107249e-11
-5.900000000e-03	2.678489076e-01	-6.499570173e-04	5.473609656e-12
-6.000000000e-03	2.678489145e-01	-6.472437510e-04	1.214665013e-11
-6.100000000e-03	2.678489213e-01	-6.445304843e-04	1.484531134e-11
-6.200000000e-03	2.678489281e-01	-6.418172175e-04	2.022572578e-11
-6.300000000e-03	2.678489348e-01	-6.391039504e-04	3.969290808e-11
-6.400000000e-03	2.678489414e-01	-6.363906830e-04	8.627770614e-12
-6.500000000e-03	2.678489479e-01	-6.336774154e-04	1.813361801e-11
-6.600000000e-03	2.678489543e-01	-6.309641476e-04	1.713808433e-11
-6.700000000e-03	2.678489607e-01	-6.282508796e-04	1.654806247e-11
-6.800000000e-03	2.678489670e-01	-6.255376114e-04	1.016298660e-11
-6.900000000e-03	2.678489732e-01	-6.228243429e-04	9.868758537e-12
-7.000000000e-03	2.678489793e-01	-6.201110743e-04	1.765644907e-11
-7.100000000e-03	2.678489853e-01	-6.173978054e-04	8.539272688e-12
-7.200000000e-03	2.678489912e-01	-6.146845364e-04	2.268300612e-11
-7.300000000e-03	2.678489971e-01	-6.119712671e-04	1.952690653e-11
-7.400000000e-03	2.678490029e-01	-6.092579976e-04	7.829924294e-12
-7.500000000e-03	2.678490086e-01	-6.065447280e-04	9.202977112e-12
-7.600000000e-03	2.678490142e-01	-6.038314582e-04	2.183483239e-11
-7.700000000e-03	2.678490197e-01	-6.011181882e-04	1.228376485e-11
-7.800000000e-03	2.678490252e-01	-5.984049180e-04	1.667937975e-11
-7.900000000e-03	2.678490305e-01	-5.956916476e-04	4.825634167e-12
-8.000000000e-03	2.678490358e-01	-5.929783771e-04	1.444347496e-11
-8.100000000e-03	2.678490410e-01	-5.902651064e-04	2.906198863e-11
-8.200000000e-03	2.678490461e-01	-5.875518356e-04	7.872794086e-12
-8.300000000e-03	2.678490512e-01	-5.848385646e-04	1.176739516e-11
-8.400000000e-03	2.678490561e-01	-5.821252934e-04	1.655781935e-10
-8.500000000e-03	2.678490610e-01	-5.794120221e-04	8.819477378e-12
-8.600000000e-03	2.678490658e-01	-5.766987507e-04	1.268500669e-11
-8.700000000e-03	2.678490705e-01	-5.739854791e-04	1.393992101e-11
-8.800000000e-03	2.678490751e-01	-5.712722074e-04	7.642761022e-12
-8.900000000e-03	2.678490797e-01	-5.685589356e-04	7.401396763e-12
-9.000000000e-03	2.678490841e-01	-5.658456636e-04	1.618221304e-11
-9.100000000e-03	2.678490885e-01	-5.631323915e-04	1.188942235e-11
-9.200000000e-03	2.678490928e-01	-5.604191193e-04	3.162862229e-11
-9.300000000e-03	2.678490970e-01	-5.577058470e-04	7.410887584e-12
-9.400000000e-03	2.678491011e-01	-5.549925746e-04	5.830480939e-11
-9.500000000e-03	2.678491052e-01	-5.522793020e-04	2.725928083e-11
-9.600000000e-03	2.678491091e-01	-5.495660294e-04	1.535902330e-11
-9.700000000e-03	2.678491130e-01	-5.468527567e-04	1.189926171e-11
-9.800000000e-03	2.678491168e-01	-5.441394839e-04	2.213607613e-11
-9.900000000e-03	2.678491205e-01	-5.414262110e-04	1.513498558e-11
-1.000000000e-02	2.678491242e-01	-5.387129380e-04	1.374337655e-11
-1.010000000e-02	2.678491277e-01	-5.359996649e-04	1.157041646e-11
-1.020000000e-02	2.678491312e-01	-5.332863917e-04	2.613575590e-11
-1.030000000e-02	2.678491346e-01	-5.305731185e-04	1.630729506e-11
-1.040000000e-02	2.678491379e-01	-5.278598452e-04	2.494949788e-11
-1.050000000e-02	2.678491411e-01	-5.251465719e-04	3.550121414e-11
-1.060000000e-02	2.678491443e-01	-5.224332985e-04	1.430737467e-11
-1.070000000e-02	2.678491473e-01	-5.197200250e-04	5.076842345e-12
-1.080000000e-02	2.678491503e-01	-5.170067515e-04	6.603080684e-12
-1.090000000e-02	2.678491532e-01	-5.142934779e-04	1.701025293e-11
-1.100000000e-02	2.678491560e-01	-5.115802043e-04	8.932140228e-12
-1.110000000e-02	2.678491587e-01	-5.088669307e-04	9.402732321e-12
-1.120000000e-02	2.678491614e-01	-5.061536570e-04	4.677193676e-12
-1.130000000e-02	2.678491639e-01	-5.034403833e-04	1.791619320e-11
-1.140000000e-02	2.678491664e-01	-5.007271096e-04	1.550645678e-10
-1.150000000e-02	2.678491688e-01	-4.980138358e-04	7.736902206e-12
-1.160000000e-02	2.678491711e-01	-4.953005621e-04	1.289167534e-11
-1.170000000e-02	2.678491734e-01	-4.925872883e-04	1.441197832e-11
-1.180000000e-02	2.678491755e-01	-4.898740145e-04	1.497352350e-11
-1.190000000e-02	2.678491776e-01	-4.871607407e-04	6.380990865e-12
-1.200000000e-02	2.678491796e-01	-4.844474669e-04	1.398598360e-11
-1.210000000e-02	2.678491815e-01	-4.817341931e-04	8.623553409e-12
-1.220000000e-02	2.678491833e-01	-4.790209193e-04	9.969681836e-12
-1.230000000e-02	2.678491850e-01	-4.763076456e-04	1.168428588e-11
-1.240000000e-02	2.678491867e-01	-4.735943718e-04	1.430826565e-11
-1.250000000e-02	2.678491883e-01	-4.708810981e-04	1.039095315e-11
-1.260000000e-02	2.678491898e-01	-4.681678244e-04	5.146427202e-12
-1.270000000e-02	2.678491912e-01	-4.654545507e-04	1.272588764e-11
-1.280000000e-02	2.678491925e-01	-4.627412770e-04	1.023171668e-11
-1.290000000e-02	2.678491937e-01	-4.600280034e-04	1.319500164e-11
-1.300000000e-02	2.678491949e-01	-4.573147298e-04	3.681781164e-11
-1.310000000e-02	2.678491960e-01	-4.546014563e-04	2.595060596e-11
-1.320000000e-02	2.678491970e-01	-4.518881828e-04	2.114028089e-11
-1.330000000e-02	2.678491979e-01	-4.491749094e-04	1.199632466e-11
-1.340000000e-02	2.678491987e-01	-4.464616361e-04	7.788243707e-12
-1.350000000e-02	2.678491995e-01	-4.437483627e-04	5.991961934e-12
-1.360000000e-02	2.678492002e-01	-4.410350895e-04	1.795340760e-11
-1.370000000e-02	2.678492007e-01	-4.383218163e-04	3.468261980e-11
-1.380000000e-02	2.678492012e-01	-4.356085433e-04	2.359707054e-11
-1.390000000e-02	2.678492017e-01	-4.328952702e-04	1.036913720e-11
-1.400000000e-02	2.678492020e-01	-4.301819973e-04	1.185335271e-11
-1.410000000e-02	2.678492023e-01	-4.274687245e-04	4.799625175e-12
-1.420000000e-02	2.678492024e-01	-4.247554517e-04	2.231226625e-11
-1.430000000e-02	2.678492025e-01	-4.220421791e-04	1.060792164e-11
-1.440000000e-02	2.678492025e-01	-4.193289065e-04	2.673591441e-11
-1.450000000e-02	2.678492025e-01	-4.166156340e-04	2.477783064e-11
-1.460000000e-02	2.678492023e-01	-4.139023617e-04	1.260741991e-11
-1.470000000e-02	2.678492021e-01	-4.111890895e-04	1.199625130e-11
-1.480000000e-02	2.678492017e-01	-4.084758174e-04	1.695783866e-11
-1.490000000e-02	2.678492013e-01	-4.057625454e-04	9.979593460e-12
-1.500000000e-02	2.678492008e-01	-4.030492735e-04	7.128967824e-12
-1.510000000e-02	2.678492003e-01	-4.003360017e-04	9.152772859e-11
-1.520000000e-02	2.678491996e-01	-3.976227301e-04	7.552575818e-12
-1.530000000e-02	2.678491989e-01	-3.949094587e-04	9.179351607e-12
-1.540000000e-02	2.678491981e-01	-3.921961873e-04	2.178458537e-11
-1.550000000e-02	2.678491972e-01	-3.894829161e-04	2.233473260e-11
-1.560000000e-02	2.678491962e-01	-3.867696451e-04	2.341532066e-11
-1.570000000e-02	2.678491951e-01	-3.840563742e-04	2.708547090e-11
-1.580000000e-02	2.678491940e-01	-3.813431035e-04	1.716143012e-11
-1.590000000e-02	2.678491928e-01	-3.786298329e-04	8.364196793e-12
-1.600000000e-02	2.678491915e-01	-3.759165625e-04	1.264543863e-11
-1.610000000e-02	2.678491901e-01	-3.732032923e-04	9.766059736e-12
-1.620000000e-02	2.678491886e-01	-3.704900223e-04	5.613502477e-12
-1.630000000e-02	2.678491870e-01	-3.677767524e-04	1.159206175e-11
-1.640000000e-02	2.678491854e-01	-3.650634827e-04	1.022311628e-11
-1.650000000e-02	2.678491837e-01	-3.623502132e-04	2.494478710e-11
-1.660000000e-02	2.678491819e-01	-3.596369439e-04	6.658637585e-12
-1.670000000e-02	2.678491800e-01	-3.569236748e-04	1.500198731e-11
-1.680000000e-02	2.678491780e-01	-3.542104059e-04	8.338669270e-11
-1.690000000e-02	2.678491760e-01	-3.514971371e-04	3.129226325e-11
-1.700000000e-02	2.678491738e-01	-3.487838686e-04	1.930308636e-11
-1.710000000e-02	2.678491716e-01	-3.460706003e-04	1.554021894e-11
-1.720000000e-02	2.678491693e-01	-3.433573323e-04	9.365902205e-12
-1.730000000e-02	2.678491669e-01	-3.406440644e-04	1.081900002e-11
-1.740000000e-02	2.678491645e-01	-3.379307968e-04	1.635782525e-11
-1.750000000e-02	2.678491619e-01	-3.352175294e-04	5.353545612e-12
-1.760000000e-02	2.678491593e-01	-3.325042622e-04	2.578532438e-11
-1.770000000e-02	2.678491566e-01	-3.297909953e-04	1.450000491e-11
-1.780000000e-02	2.678491538e-01	-3.270777286e-04	5.116401605e-12
-1.790000000e-02	2.678491509e-01	-3.243644622e-04	5.135909227e-11
-1.800000000e-02	2.678491479e-01	-3.216511960e-04	1.007282490e-11
-1.810000000e-02	2.678491449e-01	-3.189379300e-04	6.370827642e-12
-1.820000000e-02	2.678491418e-01	-3.162246643e-04	1.903278445e-11
-1.830000000e-02	2.678491386e-01	-3.135113989e-04	1.159829574e-11
-1.840000000e-02	2.678491353e-01	-3.107981338e-04	1.262587822e-11
-1.850000000e-02	2.678491319e-01	-3.080848689e-04	1.739734794e-11
-1.860000000e-02	2.678491285e-01	-3.053716043e-04	7.171489603e-12
-1.870000000e-02	2.678491249e-01	-3.026583399e-04	1.753585841e-11
-1.880000000e-02	2.678491213e-01	-2.999450759e-04	7.984658042e-12
-1.890000000e-02	2.678491176e-01	-2.972318121e-04	6.265022621e-12
-1.900000000e-02	2.678491138e-01	-2.945185487e-04	2.633679090e-11
-1.910000000e-02	2.678491100e-01	-2.918052855e-04	2.134987771e-11
-1.920000000e-02	2.678491060e-01	-2.890920226e-04	9.033715633e-12
-1.930000000e-02	2.678491020e-01	-2.863787601e-04	6.572836554e-12
-1.940000000e-02	2.678490979e-01	-2.836654978e-04	1.234109433e-11
-1.950000000e-02	2.678490937e-01	-2.809522359e-04	1.815842223e-11
-1.960000000e-02	2.678490894e-01	-2.782389742e-04	9.107162071e-12
-1.970000000e-02	2.678490850e-01	-2.755257129e-04	8.891773131e-12
-1.980000000e-02	2.678490806e-01	-2.728124519e-04	1.083150288e-11
-1.990000000e-02	2.678490761e-01	-2.700991913e-04	1.341892861e-11
-2.000000000e-02	2.678490715e-01	-2.673859310e-04	2.707035826e-11
-2.010000000e-02	2.678490668e-01	-2.646726710e-04	4.794796875e-11
-2.020000000e-02	2.678490620e-01	-2.619594113e-04	1.767309694e-11
-2.030000000e-02	2.678490571e-01	-2.592461520e-04	2.264068369e-11
-2.040000000e-02	2.678490522e-01	-2.565328931e-04	2.533534489e-11
-2.050000000e-02	2.678490472e-01	-2.538196345e-04	1.062588503e-11
-2.060000000e-02	2.678490421e-01	-2.511063763e-04	1.790682991e-11
-2.070000000e-02	2.678490369e-01	-2.483931184e-04	8.801682087e-12
-2.080000000e-02	2.678490316e-01	-2.456798609e-04	9.521981410e-12
-2.090000000e-02	2.678490263e-01	-2.429666037e-04	1.883394099e-11
-2.100000000e-02	2.678490208e-01	-2.402533470e-04	4.799674733e-11
-2.110000000e-02	2.678490153e-01	-2.375400906e-04	1.499719298e-11
-2.120000000e-02	2.678490097e-01	-2.348268346e-04	7.467857287e-12
-2.130000000e-02	2.678490041e-01	-2.321135790e-04	2.561868943e-11
-2.140000000e-02	2.678489983e-01	-2.294003238e-04	2.652289525e-11
-2.150000000e-02	2.678489925e-01	-2.266870689e-04	5.882398824e-12
-2.160000000e-02	2.678489865e-01	-2.239738145e-04	8.661825270e-12
-2.170000000e-02	2.678489805e-01	-2.212605605e-04	1.711759190e-11
-2.180000000e-02	2.678489744e-01	-2.185473069e-04	5.488854623e-12
-2.190000000e-02	2.678489683e-01	-2.158340537e-04	1.440633020e-11
-2.200000000e-02	2.678489620e-01	-2.131208009e-04	1.577183227e-11
-2.210000000e-02	2.678489557e-01	-2.104075485e-04	6.996430317e-12
-2.220000000e-02	2.678489492e-01	-2.076942966e-04	9.233832487e-12
-2.230000000e-02	2.678489427e-01	-2.049810451e-04	1.568592328e-11
-2.240000000e-02	2.678489362e-01	-2.022677940e-04	1.602293416e-11
-2.250000000e-02	2.678489295e-01	-1.995545434e-04	1.660100277e-11
-2.260000000e-02	2.678489227e-01	-1.968412932e-04	1.016235192e-11
-2.270000000e-02	2.678489159e-01	-1.941280434e-04	5.738482321e-12
-2.280000000e-02	2.678489090e-01	-1.914147941e-04	1.324455322e-11
-2.290000000e-02	2.678489020e-01	-1.887015453e-04	3.346830791e-11
-2.300000000e-02	2.678488949e-01	-1.859882969e-04	4.978725699e-12
-2.310000000e-02	2.678488877e-01	-1.832750490e-04	2.699183978e-11
-2.320000000e-02	2.678488805e-01	-1.805618015e-04	1.688478946e-11
-2.330000000e-02	2.678488732e-01	-1.778485545e-04	1.932631184e-11
-2.340000000e-02	2.678488658e-01	-1.751353080e-04	1.030290165e-11
-2.350000000e-02	2.678488583e-01	-1.724220620e-04	1.010564419e-11
-2.360000000e-02	2.678488507e-01	-1.697088164e-04	1.202867394e-11
-2.370000000e-02	2.678488430e-01	-1.669955714e-04	1.197628993e-10
-2.380000000e-02	2.678488353e-01	-1.642823268e-04	1.096918712e-11
-2.390000000e-02	2.678488275e-01	-1.615690827e-04	7.085520960e-12
-2.400000000e-02	2.678488196e-01	-1.588558392e-04	1.806293522e-11
-2.410000000e-02	2.678488116e-01	-1.561425961e-04	1.762880396e-11
-2.420000000e-02	2.678488035e-01	-1.534293535e-04	2.770626810e-11
-2.430000000e-02	2.678487954e-01	-1.507161115e-04	7.817077401e-12
-2.440000000e-02	2.678487871e-01	-1.480028699e-04	2.583433306e-11
-2.450000000e-02	2.678487788e-01	-1.452896289e-04	1.338955596e-11
-2.460000000e-02	2.678487704e-01	-1.425763884e-04	1.207462883e-11
-2.470000000e-02	2.678487619e-01	-1.398631485e-04	5.638890427e-12
-2.480000000e-02	2.678487534e-01	-1.371499091e-04	1.941804144e-11
-2.490000000e-02	2.678487447e-01	-1.344366702e-04	5.591100568e-12
-2.500000000e-02	2.678487360e-01	-1.317234318e-04	1.404182728e-11
-2.510000000e-02	2.678487272e-01	-1.290101940e-04	1.355603499e-11
-2.520000000e-02	2.678487183e-01	-1.262969568e-04	1.052356681e-11
-2.530000000e-02	2.678487093e-01	-1.235837201e-04	1.404928103e-11
-2.540000000e-02	2.678487003e-01	-1.208704839e-04	1.123662075e-11
-2.550000000e-02	2.678486911e-01	-1.181572484e-04	7.708394282e-12
-2.560000000e-02	2.678486819e-01	-1.154440134e-04	1.161066913e-11
-2.570000000e-02	2.678486726e-01	-1.127307789e-04	1.572661399e-11
-2.580000000e-02	2.678486632e-01	-1.100175451e-04	2.254899531e-11
-2.590000000e-02	2.678486537e-01	-1.073043118e-04	9.615767291e-12
-2.600000000e-02	2.678486442e-01	-1.045910791e-04	3.415353854e-11
-2.610000000e-02	2.678486346e-01	-1.018778470e-04	1.457720121e-11
-2.620000000e-02	2.678486248e-01	-9.916461546e-05	8.613028747e-12
-2.630000000e-02	2.678486150e-01	-9.645138454e-05	1.434170919e-11
-2.640000000e-02	2.678486052e-01	-9.373815421e-05	1.759800938e-11
-2.650000000e-02	2.678485952e-01	-9.102492450e-05	1.154441006e-11
-2.660000000e-02	2.678485851e-01	-8.831169539e-05	2.835979536e-11
-2.670000000e-02	2.678485750e-01	-8.559846689e-05	2.011170727e-11
-2.680000000e-02	2.678485648e-01	-8.288523901e-05	7.934800777e-12
-2.690000000e-02	2.678485545e-01	-8.017201175e-05	2.979120723e-11
-2.700000000e-02	2.678485441e-01	-7.745878512e-05	7.826135349e-12
-2.710000000e-02	2.678485337e-01	-7.474555911e-05	1.207988111e-11
-2.720000000e-02	2.678485231e-01	-7.203233374e-05	1.859048042e-11
-2.730000000e-02	2.678485125e-01	-6.931910901e-05	6.274476925e-12
-2.740000000e-02	2.678485018e-01	-6.660588492e-05	1.006352478e-11
-2.750000000e-02	2.678484910e-01	-6.389266147e-05	5.067022071e-11
-2.760000000e-02	2.678484801e-01	-6.117943867e-05	1.628270449e-11
-2.770000000e-02	2.678484692e-01	-5.846621653e-05	1.878418541e-11
-2.780000000e-02	2.678484582e-01	-5.575299505e-05	4.684810160e-12
-2.790000000e-02	2.678484470e-01	-5.303977420e-05	7.807445301e-10
-2.800000000e-02	2.678484358e-01	-5.032655408e-05	9.007754261e-12
-2.810000000e-02	2.678484246e-01	-4.761333460e-05	1.323083197e-11
-2.820000000e-02	2.678484132e-01	-4.490011579e-05	1.380067694e-11
-2.830000000e-02	2.678484017e-01	-4.218689766e-05	1.408947340e-11
-2.840000000e-02	2.678483902e-01	-3.947368022e-05	7.057012461e-12
-2.850000000e-02	2.678483786e-01	-3.676046346e-05	1.647946502e-11
-2.860000000e-02	2.678483669e-01	-3.404724740e-05	1.294017210e-11
-2.870000000e-02	2.678483551e-01	-3.133403203e-05	1.940954840e-11
-2.880000000e-02	2.678483433e-01	-2.862081737e-05	6.832037630e-12
-2.890000000e-02	2.678483313e-01	-2.590760340e-05	1.660983929e-11
-2.900000000e-02	2.678483193e-01	-2.319439015e-05	9.650701579e-12
-2.910000000e-02	2.678483072e-01	-2.048117761e-05	1.215670559e-11
-2.920000000e-02	2.678482950e-01	-1.776796578e-05	4.027724748e-11
-2.930000000e-02	2.678482827e-01	-1.505475468e-05	9.242325525e-12
-2.940000000e-02	2.678482704e-01	-1.234154430e-05	4.769948470e-11
-2.950000000e-02	2.678482579e-01	-9.628334651e-06	7.151972425e-11
-2.960000000e-02	2.678482454e-01	-6.915125735e-06	2.950952038e-11
-2.970000000e-02	2.678482328e-01	-4.201917563e-06	1.528307883e-10
-2.980000000e-02	2.678482201e-01	-1.488710122e-06	7.994399143e-12
-2.990000000e-02	2.678482074e-01	1.224496568e-06	2.355638403e-11
-3.000000000e-02	2.678481945e-01	3.937702505e-06	7.714743526e-11
