# Im(epsi1)     Re(omega/c)      Im(omega/c)      Eq(det).Opt det CON kz, R=0.5 \mum, mu_c=0.3, Re(epsi1)=3.90solve_det_conkz_vs_kz.py
0.000000000e+00	2.678507565e-01	-8.100496406e-04	3.654286530e-11
-1.000000000e-04	2.678507683e-01	-8.073363770e-04	2.790251310e-11
-2.000000000e-04	2.678507800e-01	-8.046231130e-04	7.134501753e-12
-3.000000000e-04	2.678507916e-01	-8.019098485e-04	1.315955737e-11
-4.000000000e-04	2.678508032e-01	-7.991965835e-04	1.390094427e-11
-5.000000000e-04	2.678508146e-01	-7.964833180e-04	1.585474848e-11
-6.000000000e-04	2.678508260e-01	-7.937700520e-04	5.131299317e-11
-7.000000000e-04	2.678508373e-01	-7.910567856e-04	7.670121529e-11
-8.000000000e-04	2.678508485e-01	-7.883435187e-04	1.430311045e-11
-9.000000000e-04	2.678508597e-01	-7.856302513e-04	7.694262498e-11
-1.000000000e-03	2.678508707e-01	-7.829169835e-04	2.428754179e-11
-1.100000000e-03	2.678508817e-01	-7.802037152e-04	1.869181259e-11
-1.200000000e-03	2.678508926e-01	-7.774904465e-04	8.171454255e-11
-1.300000000e-03	2.678509034e-01	-7.747771773e-04	1.478678336e-11
-1.400000000e-03	2.678509141e-01	-7.720639077e-04	1.352858161e-11
-1.500000000e-03	2.678509247e-01	-7.693506376e-04	6.422686660e-12
-1.600000000e-03	2.678509353e-01	-7.666373671e-04	9.859143337e-12
-1.700000000e-03	2.678509458e-01	-7.639240962e-04	1.423067176e-11
-1.800000000e-03	2.678509562e-01	-7.612108249e-04	2.271459227e-11
-1.900000000e-03	2.678509665e-01	-7.584975531e-04	1.243817250e-11
-2.000000000e-03	2.678509767e-01	-7.557842809e-04	1.841532837e-11
-2.100000000e-03	2.678509869e-01	-7.530710083e-04	1.034303565e-11
-2.200000000e-03	2.678509969e-01	-7.503577353e-04	7.089855715e-11
-2.300000000e-03	2.678510069e-01	-7.476444619e-04	1.282228859e-11
-2.400000000e-03	2.678510168e-01	-7.449311881e-04	1.396094186e-11
-2.500000000e-03	2.678510266e-01	-7.422179138e-04	2.512830474e-11
-2.600000000e-03	2.678510364e-01	-7.395046392e-04	5.025287860e-11
-2.700000000e-03	2.678510460e-01	-7.367913642e-04	1.639548457e-11
-2.800000000e-03	2.678510556e-01	-7.340780889e-04	1.300226403e-11
-2.900000000e-03	2.678510651e-01	-7.313648131e-04	1.887991646e-11
-3.000000000e-03	2.678510745e-01	-7.286515370e-04	2.569725550e-11
-3.100000000e-03	2.678510838e-01	-7.259382605e-04	1.097369831e-11
-3.200000000e-03	2.678510930e-01	-7.232249836e-04	3.650131766e-11
-3.300000000e-03	2.678511022e-01	-7.205117063e-04	1.180006954e-11
-3.400000000e-03	2.678511113e-01	-7.177984287e-04	1.400674718e-11
-3.500000000e-03	2.678511203e-01	-7.150851508e-04	1.609554958e-11
-3.600000000e-03	2.678511292e-01	-7.123718725e-04	1.951505783e-11
-3.700000000e-03	2.678511380e-01	-7.096585938e-04	7.419800531e-11
-3.800000000e-03	2.678511467e-01	-7.069453148e-04	3.175680324e-11
-3.900000000e-03	2.678511554e-01	-7.042320355e-04	1.283981569e-11
-4.000000000e-03	2.678511640e-01	-7.015187558e-04	1.399903708e-11
-4.100000000e-03	2.678511725e-01	-6.988054758e-04	8.907702167e-12
-4.200000000e-03	2.678511809e-01	-6.960921955e-04	8.113072818e-12
-4.300000000e-03	2.678511892e-01	-6.933789149e-04	1.234800376e-11
-4.400000000e-03	2.678511975e-01	-6.906656339e-04	7.538696304e-12
-4.500000000e-03	2.678512057e-01	-6.879523526e-04	2.303573341e-11
-4.600000000e-03	2.678512137e-01	-6.852390710e-04	6.631664158e-12
-4.700000000e-03	2.678512217e-01	-6.825257891e-04	1.641541110e-11
-4.800000000e-03	2.678512297e-01	-6.798125070e-04	1.140970155e-11
-4.900000000e-03	2.678512375e-01	-6.770992245e-04	6.934733786e-12
-5.000000000e-03	2.678512453e-01	-6.743859417e-04	7.725893200e-12
-5.100000000e-03	2.678512529e-01	-6.716726586e-04	1.332861138e-11
-5.200000000e-03	2.678512605e-01	-6.689593753e-04	6.495137859e-12
-5.300000000e-03	2.678512680e-01	-6.662460916e-04	6.337277929e-12
-5.400000000e-03	2.678512755e-01	-6.635328077e-04	1.374128342e-11
-5.500000000e-03	2.678512828e-01	-6.608195235e-04	1.080374159e-11
-5.600000000e-03	2.678512901e-01	-6.581062391e-04	2.370888797e-11
-5.700000000e-03	2.678512972e-01	-6.553929544e-04	3.958218501e-11
-5.800000000e-03	2.678513043e-01	-6.526796694e-04	9.727003288e-12
-5.900000000e-03	2.678513114e-01	-6.499663842e-04	2.273836796e-11
-6.000000000e-03	2.678513183e-01	-6.472530987e-04	8.610071900e-12
-6.100000000e-03	2.678513251e-01	-6.445398130e-04	7.002726081e-12
-6.200000000e-03	2.678513319e-01	-6.418265270e-04	5.762654308e-12
-6.300000000e-03	2.678513386e-01	-6.391132408e-04	9.452141774e-12
-6.400000000e-03	2.678513452e-01	-6.363999544e-04	1.273081611e-11
-6.500000000e-03	2.678513517e-01	-6.336866677e-04	2.318244866e-11
-6.600000000e-03	2.678513582e-01	-6.309733808e-04	1.253823035e-11
-6.700000000e-03	2.678513645e-01	-6.282600937e-04	8.662511980e-12
-6.800000000e-03	2.678513708e-01	-6.255468064e-04	4.765812175e-11
-6.900000000e-03	2.678513770e-01	-6.228335188e-04	7.906440908e-12
-7.000000000e-03	2.678513831e-01	-6.201202311e-04	8.533265001e-12
-7.100000000e-03	2.678513891e-01	-6.174069431e-04	5.665623671e-12
-7.200000000e-03	2.678513951e-01	-6.146936549e-04	2.362712808e-11
-7.300000000e-03	2.678514009e-01	-6.119803666e-04	1.422608583e-11
-7.400000000e-03	2.678514067e-01	-6.092670780e-04	8.018354803e-12
-7.500000000e-03	2.678514124e-01	-6.065537893e-04	1.558187335e-11
-7.600000000e-03	2.678514180e-01	-6.038405004e-04	8.836462231e-12
-7.700000000e-03	2.678514235e-01	-6.011272113e-04	3.459498382e-11
-7.800000000e-03	2.678514290e-01	-5.984139220e-04	1.530436741e-11
-7.900000000e-03	2.678514343e-01	-5.957006326e-04	6.680087859e-12
-8.000000000e-03	2.678514396e-01	-5.929873429e-04	9.215952519e-12
-8.100000000e-03	2.678514448e-01	-5.902740532e-04	6.925071635e-12
-8.200000000e-03	2.678514499e-01	-5.875607632e-04	1.157644132e-11
-8.300000000e-03	2.678514550e-01	-5.848474731e-04	1.440213208e-11
-8.400000000e-03	2.678514599e-01	-5.821341829e-04	9.754401058e-12
-8.500000000e-03	2.678514648e-01	-5.794208925e-04	5.872986568e-12
-8.600000000e-03	2.678514696e-01	-5.767076019e-04	7.422648080e-12
-8.700000000e-03	2.678514743e-01	-5.739943113e-04	8.926820191e-12
-8.800000000e-03	2.678514789e-01	-5.712810205e-04	3.243690204e-11
-8.900000000e-03	2.678514835e-01	-5.685677295e-04	3.076539026e-11
-9.000000000e-03	2.678514879e-01	-5.658544385e-04	1.455809462e-11
-9.100000000e-03	2.678514923e-01	-5.631411473e-04	1.180821021e-11
-9.200000000e-03	2.678514966e-01	-5.604278560e-04	1.525129137e-11
-9.300000000e-03	2.678515008e-01	-5.577145646e-04	4.803542643e-12
-9.400000000e-03	2.678515049e-01	-5.550012731e-04	1.560426927e-11
-9.500000000e-03	2.678515090e-01	-5.522879814e-04	1.427002332e-11
-9.600000000e-03	2.678515130e-01	-5.495746897e-04	9.606494678e-11
-9.700000000e-03	2.678515168e-01	-5.468613979e-04	2.148907863e-11
-9.800000000e-03	2.678515206e-01	-5.441481060e-04	1.698231168e-11
-9.900000000e-03	2.678515244e-01	-5.414348140e-04	5.901536239e-12
-1.000000000e-02	2.678515280e-01	-5.387215219e-04	6.929936803e-12
-1.010000000e-02	2.678515315e-01	-5.360082297e-04	1.077139907e-11
-1.020000000e-02	2.678515350e-01	-5.332949374e-04	7.443271571e-12
-1.030000000e-02	2.678515384e-01	-5.305816451e-04	2.011984927e-11
-1.040000000e-02	2.678515417e-01	-5.278683527e-04	1.600761694e-11
-1.050000000e-02	2.678515449e-01	-5.251550603e-04	9.015199387e-12
-1.060000000e-02	2.678515481e-01	-5.224417678e-04	1.430509456e-11
-1.070000000e-02	2.678515511e-01	-5.197284752e-04	1.486273480e-11
-1.080000000e-02	2.678515541e-01	-5.170151826e-04	3.561222731e-11
-1.090000000e-02	2.678515570e-01	-5.143018900e-04	2.415113471e-11
-1.100000000e-02	2.678515598e-01	-5.115885973e-04	1.018942240e-11
-1.110000000e-02	2.678515625e-01	-5.088753045e-04	5.676263452e-11
-1.120000000e-02	2.678515652e-01	-5.061620118e-04	1.242238234e-11
-1.130000000e-02	2.678515678e-01	-5.034487190e-04	1.090811914e-11
-1.140000000e-02	2.678515702e-01	-5.007354261e-04	1.295726474e-11
-1.150000000e-02	2.678515726e-01	-4.980221333e-04	5.063664853e-10
-1.160000000e-02	2.678515749e-01	-4.953088404e-04	8.434768720e-12
-1.170000000e-02	2.678515772e-01	-4.925955475e-04	2.458366405e-11
-1.180000000e-02	2.678515793e-01	-4.898822547e-04	1.783830201e-11
-1.190000000e-02	2.678515814e-01	-4.871689618e-04	5.929026195e-12
-1.200000000e-02	2.678515834e-01	-4.844556689e-04	1.137101966e-11
-1.210000000e-02	2.678515853e-01	-4.817423760e-04	1.073129721e-11
-1.220000000e-02	2.678515871e-01	-4.790290831e-04	1.405592466e-11
-1.230000000e-02	2.678515889e-01	-4.763157902e-04	1.108059747e-11
-1.240000000e-02	2.678515905e-01	-4.736024974e-04	1.616235395e-11
-1.250000000e-02	2.678515921e-01	-4.708892045e-04	1.692734594e-11
-1.260000000e-02	2.678515936e-01	-4.681759117e-04	1.799338891e-11
-1.270000000e-02	2.678515950e-01	-4.654626190e-04	2.848316420e-11
-1.280000000e-02	2.678515963e-01	-4.627493262e-04	5.410689459e-12
-1.290000000e-02	2.678515976e-01	-4.600360335e-04	1.171933347e-11
-1.300000000e-02	2.678515987e-01	-4.573227408e-04	1.891482356e-11
-1.310000000e-02	2.678515998e-01	-4.546094482e-04	1.276351320e-11
-1.320000000e-02	2.678516008e-01	-4.518961556e-04	1.970452102e-11
-1.330000000e-02	2.678516017e-01	-4.491828631e-04	1.786458904e-11
-1.340000000e-02	2.678516026e-01	-4.464695707e-04	2.017820528e-11
-1.350000000e-02	2.678516033e-01	-4.437562783e-04	9.278052402e-12
-1.360000000e-02	2.678516040e-01	-4.410429859e-04	6.625690437e-12
-1.370000000e-02	2.678516046e-01	-4.383296937e-04	1.187336814e-11
-1.380000000e-02	2.678516051e-01	-4.356164015e-04	1.291381865e-11
-1.390000000e-02	2.678516055e-01	-4.329031094e-04	1.433502153e-11
-1.400000000e-02	2.678516058e-01	-4.301898173e-04	1.013082826e-10
-1.410000000e-02	2.678516061e-01	-4.274765254e-04	1.798328449e-11
-1.420000000e-02	2.678516062e-01	-4.247632335e-04	1.707384927e-11
-1.430000000e-02	2.678516063e-01	-4.220499418e-04	1.273623469e-11
-1.440000000e-02	2.678516063e-01	-4.193366501e-04	7.475261958e-12
-1.450000000e-02	2.678516063e-01	-4.166233586e-04	1.386357073e-11
-1.460000000e-02	2.678516061e-01	-4.139100671e-04	8.482032514e-12
-1.470000000e-02	2.678516059e-01	-4.111967758e-04	2.258043716e-11
-1.480000000e-02	2.678516056e-01	-4.084834846e-04	9.038011526e-12
-1.490000000e-02	2.678516052e-01	-4.057701935e-04	2.723005862e-11
-1.500000000e-02	2.678516047e-01	-4.030569025e-04	9.037265777e-12
-1.510000000e-02	2.678516041e-01	-4.003436117e-04	1.144487294e-11
-1.520000000e-02	2.678516034e-01	-3.976303210e-04	2.193612726e-11
-1.530000000e-02	2.678516027e-01	-3.949170304e-04	1.640008542e-11
-1.540000000e-02	2.678516019e-01	-3.922037400e-04	3.754833491e-11
-1.550000000e-02	2.678516010e-01	-3.894904497e-04	2.396360362e-11
-1.560000000e-02	2.678516000e-01	-3.867771596e-04	6.669579910e-11
-1.570000000e-02	2.678515990e-01	-3.840638696e-04	3.954064849e-12
-1.580000000e-02	2.678515978e-01	-3.813505798e-04	2.869969712e-11
-1.590000000e-02	2.678515966e-01	-3.786372901e-04	1.936182562e-11
-1.600000000e-02	2.678515953e-01	-3.759240006e-04	3.033278788e-11
-1.610000000e-02	2.678515939e-01	-3.732107113e-04	1.006053039e-11
-1.620000000e-02	2.678515924e-01	-3.704974221e-04	2.560210174e-11
-1.630000000e-02	2.678515909e-01	-3.677841332e-04	5.972648003e-11
-1.640000000e-02	2.678515892e-01	-3.650708444e-04	1.185212514e-11
-1.650000000e-02	2.678515875e-01	-3.623575558e-04	3.887778160e-12
-1.660000000e-02	2.678515857e-01	-3.596442674e-04	5.970681827e-12
-1.670000000e-02	2.678515838e-01	-3.569309792e-04	1.495875769e-11
-1.680000000e-02	2.678515818e-01	-3.542176912e-04	1.396846283e-11
-1.690000000e-02	2.678515798e-01	-3.515044034e-04	6.713298549e-12
-1.700000000e-02	2.678515776e-01	-3.487911158e-04	2.096094138e-11
-1.710000000e-02	2.678515754e-01	-3.460778284e-04	3.303652969e-11
-1.720000000e-02	2.678515731e-01	-3.433645412e-04	4.391364475e-11
-1.730000000e-02	2.678515707e-01	-3.406512542e-04	1.044131481e-11
-1.740000000e-02	2.678515683e-01	-3.379379675e-04	7.184435857e-11
-1.750000000e-02	2.678515657e-01	-3.352246810e-04	1.520725003e-11
-1.760000000e-02	2.678515631e-01	-3.325113947e-04	6.977063205e-12
-1.770000000e-02	2.678515604e-01	-3.297981087e-04	2.459837121e-12
-1.780000000e-02	2.678515576e-01	-3.270848229e-04	7.424604842e-12
-1.790000000e-02	2.678515547e-01	-3.243715374e-04	1.875370653e-11
-1.800000000e-02	2.678515518e-01	-3.216582521e-04	4.461204437e-12
-1.810000000e-02	2.678515487e-01	-3.189449671e-04	5.893442614e-12
-1.820000000e-02	2.678515456e-01	-3.162316823e-04	7.841559309e-12
-1.830000000e-02	2.678515424e-01	-3.135183978e-04	1.635540194e-11
-1.840000000e-02	2.678515391e-01	-3.108051135e-04	5.072791366e-11
-1.850000000e-02	2.678515357e-01	-3.080918295e-04	2.136924966e-11
-1.860000000e-02	2.678515323e-01	-3.053785458e-04	1.254059412e-11
-1.870000000e-02	2.678515287e-01	-3.026652624e-04	2.030036929e-11
-1.880000000e-02	2.678515251e-01	-2.999519793e-04	1.639262492e-11
-1.890000000e-02	2.678515214e-01	-2.972386964e-04	1.513896273e-11
-1.900000000e-02	2.678515176e-01	-2.945254138e-04	1.113844475e-11
-1.910000000e-02	2.678515138e-01	-2.918121316e-04	1.217700476e-11
-1.920000000e-02	2.678515098e-01	-2.890988496e-04	1.254767254e-11
-1.930000000e-02	2.678515058e-01	-2.863855679e-04	4.697674890e-12
-1.940000000e-02	2.678515017e-01	-2.836722866e-04	4.768376363e-11
-1.950000000e-02	2.678514975e-01	-2.809590055e-04	1.868220959e-11
-1.960000000e-02	2.678514932e-01	-2.782457248e-04	9.943997076e-12
-1.970000000e-02	2.678514889e-01	-2.755324444e-04	2.459785204e-11
-1.980000000e-02	2.678514844e-01	-2.728191643e-04	2.541455433e-11
-1.990000000e-02	2.678514799e-01	-2.701058846e-04	1.099994991e-11
-2.000000000e-02	2.678514753e-01	-2.673926052e-04	1.805858120e-10
-2.010000000e-02	2.678514706e-01	-2.646793261e-04	2.302217116e-11
-2.020000000e-02	2.678514658e-01	-2.619660473e-04	1.291213391e-11
-2.030000000e-02	2.678514610e-01	-2.592527689e-04	1.534313658e-11
-2.040000000e-02	2.678514560e-01	-2.565394909e-04	1.345900738e-11
-2.050000000e-02	2.678514510e-01	-2.538262132e-04	8.075874091e-11
-2.060000000e-02	2.678514459e-01	-2.511129359e-04	2.291063989e-11
-2.070000000e-02	2.678514407e-01	-2.483996589e-04	2.145649965e-11
-2.080000000e-02	2.678514355e-01	-2.456863823e-04	5.317516481e-12
-2.090000000e-02	2.678514301e-01	-2.429731061e-04	1.754189688e-11
-2.100000000e-02	2.678514247e-01	-2.402598302e-04	1.827492660e-11
-2.110000000e-02	2.678514192e-01	-2.375465547e-04	8.716848723e-12
-2.120000000e-02	2.678514136e-01	-2.348332796e-04	1.981859011e-12
-2.130000000e-02	2.678514079e-01	-2.321200049e-04	8.109868829e-12
-2.140000000e-02	2.678514021e-01	-2.294067306e-04	1.429876126e-11
-2.150000000e-02	2.678513963e-01	-2.266934567e-04	1.697270240e-11
-2.160000000e-02	2.678513904e-01	-2.239801832e-04	1.652614634e-11
-2.170000000e-02	2.678513844e-01	-2.212669100e-04	5.803837603e-12
-2.180000000e-02	2.678513783e-01	-2.185536373e-04	3.940450679e-11
-2.190000000e-02	2.678513721e-01	-2.158403650e-04	7.408581020e-12
-2.200000000e-02	2.678513658e-01	-2.131270932e-04	8.695753169e-12
-2.210000000e-02	2.678513595e-01	-2.104138217e-04	1.732571157e-11
-2.220000000e-02	2.678513531e-01	-2.077005507e-04	1.575171133e-11
-2.230000000e-02	2.678513466e-01	-2.049872800e-04	1.190997649e-11
-2.240000000e-02	2.678513400e-01	-2.022740099e-04	1.704151494e-11
-2.250000000e-02	2.678513333e-01	-1.995607401e-04	9.102934418e-12
-2.260000000e-02	2.678513266e-01	-1.968474709e-04	1.467027247e-11
-2.270000000e-02	2.678513197e-01	-1.941342020e-04	1.829288911e-11
-2.280000000e-02	2.678513128e-01	-1.914209336e-04	9.107978426e-12
-2.290000000e-02	2.678513058e-01	-1.887076657e-04	7.135716862e-12
-2.300000000e-02	2.678512987e-01	-1.859943982e-04	1.362202727e-11
-2.310000000e-02	2.678512916e-01	-1.832811312e-04	1.206834838e-11
-2.320000000e-02	2.678512843e-01	-1.805678646e-04	2.167846364e-11
-2.330000000e-02	2.678512770e-01	-1.778545985e-04	1.539274989e-11
-2.340000000e-02	2.678512696e-01	-1.751413329e-04	1.102855189e-11
-2.350000000e-02	2.678512621e-01	-1.724280678e-04	7.718325925e-12
-2.360000000e-02	2.678512545e-01	-1.697148031e-04	7.058935440e-11
-2.370000000e-02	2.678512469e-01	-1.670015390e-04	6.280149124e-11
-2.380000000e-02	2.678512391e-01	-1.642882753e-04	3.026577294e-11
-2.390000000e-02	2.678512313e-01	-1.615750121e-04	1.324144176e-11
-2.400000000e-02	2.678512234e-01	-1.588617495e-04	1.468415373e-11
-2.410000000e-02	2.678512154e-01	-1.561484873e-04	4.236160618e-11
-2.420000000e-02	2.678512074e-01	-1.534352256e-04	1.405450444e-11
-2.430000000e-02	2.678511992e-01	-1.507219645e-04	8.231093969e-12
-2.440000000e-02	2.678511910e-01	-1.480087039e-04	1.228555069e-11
-2.450000000e-02	2.678511827e-01	-1.452954437e-04	1.300997610e-11
-2.460000000e-02	2.678511743e-01	-1.425821842e-04	8.297060474e-12
-2.470000000e-02	2.678511658e-01	-1.398689251e-04	1.885499546e-11
-2.480000000e-02	2.678511572e-01	-1.371556666e-04	3.809100022e-11
-2.490000000e-02	2.678511486e-01	-1.344424086e-04	2.275663573e-11
-2.500000000e-02	2.678511398e-01	-1.317291512e-04	7.360035696e-12
-2.510000000e-02	2.678511310e-01	-1.290158943e-04	1.701192934e-11
-2.520000000e-02	2.678511221e-01	-1.263026379e-04	1.850988529e-11
-2.530000000e-02	2.678511132e-01	-1.235893821e-04	2.450458310e-11
-2.540000000e-02	2.678511041e-01	-1.208761269e-04	1.305692960e-11
-2.550000000e-02	2.678510950e-01	-1.181628722e-04	1.170657453e-11
-2.560000000e-02	2.678510857e-01	-1.154496181e-04	1.540066101e-11
-2.570000000e-02	2.678510764e-01	-1.127363646e-04	2.003299166e-11
-2.580000000e-02	2.678510670e-01	-1.100231116e-04	1.069455647e-11
-2.590000000e-02	2.678510576e-01	-1.073098592e-04	1.040285717e-11
-2.600000000e-02	2.678510480e-01	-1.045966074e-04	5.888799842e-12
-2.610000000e-02	2.678510384e-01	-1.018833562e-04	1.253804217e-11
-2.620000000e-02	2.678510287e-01	-9.917010562e-05	1.273910622e-11
-2.630000000e-02	2.678510189e-01	-9.645685560e-05	1.291817805e-11
-2.640000000e-02	2.678510090e-01	-9.374360618e-05	2.416454922e-11
-2.650000000e-02	2.678509990e-01	-9.103035736e-05	5.029762010e-12
-2.660000000e-02	2.678509890e-01	-8.831710915e-05	2.855132513e-11
-2.670000000e-02	2.678509789e-01	-8.560386156e-05	4.428098089e-11
-2.680000000e-02	2.678509686e-01	-8.289061458e-05	2.757311222e-11
-2.690000000e-02	2.678509583e-01	-8.017736823e-05	7.846784131e-12
-2.700000000e-02	2.678509480e-01	-7.746412249e-05	5.431033257e-12
-2.710000000e-02	2.678509375e-01	-7.475087739e-05	8.987354729e-11
-2.720000000e-02	2.678509270e-01	-7.203763292e-05	6.828893829e-12
-2.730000000e-02	2.678509163e-01	-6.932438909e-05	6.398463026e-12
-2.740000000e-02	2.678509056e-01	-6.661114590e-05	3.095491546e-11
-2.750000000e-02	2.678508949e-01	-6.389790336e-05	4.914785819e-12
-2.760000000e-02	2.678508840e-01	-6.118466147e-05	2.244542937e-11
-2.770000000e-02	2.678508730e-01	-5.847142023e-05	1.746256078e-11
-2.780000000e-02	2.678508620e-01	-5.575817965e-05	1.871624155e-11
-2.790000000e-02	2.678508509e-01	-5.304493973e-05	1.822779262e-11
-2.800000000e-02	2.678508397e-01	-5.033170048e-05	3.963315955e-11
-2.810000000e-02	2.678508284e-01	-4.761846190e-05	6.147638963e-12
-2.820000000e-02	2.678508170e-01	-4.490522400e-05	1.814660181e-11
-2.830000000e-02	2.678508056e-01	-4.219198677e-05	1.584252091e-11
-2.840000000e-02	2.678507940e-01	-3.947875023e-05	1.433067750e-11
-2.850000000e-02	2.678507824e-01	-3.676551438e-05	1.044290089e-11
-2.860000000e-02	2.678507707e-01	-3.405227922e-05	9.315347666e-12
-2.870000000e-02	2.678507590e-01	-3.133904475e-05	1.792327291e-11
-2.880000000e-02	2.678507471e-01	-2.862581099e-05	3.920996456e-11
-2.890000000e-02	2.678507352e-01	-2.591257793e-05	7.171376558e-12
-2.900000000e-02	2.678507231e-01	-2.319934557e-05	1.312511503e-11
-2.910000000e-02	2.678507110e-01	-2.048611393e-05	9.858626394e-12
-2.920000000e-02	2.678506988e-01	-1.777288301e-05	7.007084105e-12
-2.930000000e-02	2.678506866e-01	-1.505965281e-05	1.079032310e-11
-2.940000000e-02	2.678506742e-01	-1.234642333e-05	3.250494144e-11
-2.950000000e-02	2.678506618e-01	-9.633194587e-06	1.062372819e-11
-2.960000000e-02	2.678506493e-01	-6.919966575e-06	8.295762365e-12
-2.970000000e-02	2.678506366e-01	-4.206739299e-06	1.238789844e-11
-2.980000000e-02	2.678506240e-01	-1.493512766e-06	7.136885935e-12
-2.990000000e-02	2.678506112e-01	1.219713021e-06	5.674136139e-12
-3.000000000e-02	2.678505983e-01	3.932938057e-06	2.256076852e-11
