# Im(epsi1)     Re(omega/c)      Im(omega/c)      Eq(det).Opt det CON kz, R=0.5 \mum, mu_c=0.3, Re(epsi1)=3.90solve_det_conkz_vs_kz.py
0.000000000e+00	2.678475669e-01	-8.100357168e-04	1.903941523e-11
-1.000000000e-04	2.678475787e-01	-8.073224786e-04	2.619711224e-11
-2.000000000e-04	2.678475904e-01	-8.046092399e-04	1.157927345e-11
-3.000000000e-04	2.678476020e-01	-8.018960008e-04	8.756886405e-12
-4.000000000e-04	2.678476136e-01	-7.991827611e-04	1.168538077e-11
-5.000000000e-04	2.678476250e-01	-7.964695209e-04	1.583222056e-11
-6.000000000e-04	2.678476364e-01	-7.937562803e-04	1.218419838e-11
-7.000000000e-04	2.678476477e-01	-7.910430392e-04	9.129989394e-12
-8.000000000e-04	2.678476589e-01	-7.883297977e-04	1.617002763e-11
-9.000000000e-04	2.678476701e-01	-7.856165556e-04	1.742249276e-11
-1.000000000e-03	2.678476811e-01	-7.829033131e-04	1.574523933e-11
-1.100000000e-03	2.678476921e-01	-7.801900702e-04	6.668912641e-12
-1.200000000e-03	2.678477030e-01	-7.774768268e-04	1.023771698e-11
-1.300000000e-03	2.678477138e-01	-7.747635830e-04	1.356860873e-11
-1.400000000e-03	2.678477245e-01	-7.720503387e-04	6.221866239e-11
-1.500000000e-03	2.678477352e-01	-7.693370940e-04	1.429399580e-11
-1.600000000e-03	2.678477457e-01	-7.666238488e-04	3.374341745e-11
-1.700000000e-03	2.678477562e-01	-7.639106032e-04	1.238924242e-11
-1.800000000e-03	2.678477666e-01	-7.611973572e-04	1.015648333e-11
-1.900000000e-03	2.678477769e-01	-7.584841108e-04	1.129097147e-11
-2.000000000e-03	2.678477871e-01	-7.557708639e-04	1.243874224e-11
-2.100000000e-03	2.678477973e-01	-7.530576167e-04	1.496601027e-11
-2.200000000e-03	2.678478073e-01	-7.503443690e-04	1.160587558e-11
-2.300000000e-03	2.678478173e-01	-7.476311209e-04	1.802025030e-11
-2.400000000e-03	2.678478272e-01	-7.449178724e-04	2.150272505e-11
-2.500000000e-03	2.678478370e-01	-7.422046236e-04	9.870817713e-12
-2.600000000e-03	2.678478468e-01	-7.394913743e-04	4.062989548e-11
-2.700000000e-03	2.678478564e-01	-7.367781246e-04	9.200173868e-11
-2.800000000e-03	2.678478660e-01	-7.340648746e-04	2.076863706e-11
-2.900000000e-03	2.678478755e-01	-7.313516242e-04	9.484640551e-12
-3.000000000e-03	2.678478849e-01	-7.286383734e-04	4.924958758e-11
-3.100000000e-03	2.678478942e-01	-7.259251222e-04	2.110445106e-11
-3.200000000e-03	2.678479034e-01	-7.232118707e-04	1.513573765e-11
-3.300000000e-03	2.678479126e-01	-7.204986187e-04	1.265574071e-11
-3.400000000e-03	2.678479217e-01	-7.177853665e-04	9.359685317e-12
-3.500000000e-03	2.678479307e-01	-7.150721139e-04	1.089331832e-11
-3.600000000e-03	2.678479396e-01	-7.123588609e-04	6.489943542e-12
-3.700000000e-03	2.678479484e-01	-7.096456076e-04	2.619511198e-11
-3.800000000e-03	2.678479572e-01	-7.069323539e-04	1.119738866e-11
-3.900000000e-03	2.678479658e-01	-7.042190999e-04	8.253630738e-12
-4.000000000e-03	2.678479744e-01	-7.015058456e-04	4.678102470e-11
-4.100000000e-03	2.678479829e-01	-6.987925910e-04	3.225036910e-11
-4.200000000e-03	2.678479913e-01	-6.960793360e-04	1.359058109e-11
-4.300000000e-03	2.678479996e-01	-6.933660807e-04	6.905168826e-12
-4.400000000e-03	2.678480079e-01	-6.906528250e-04	9.517053930e-12
-4.500000000e-03	2.678480161e-01	-6.879395691e-04	9.207782095e-12
-4.600000000e-03	2.678480242e-01	-6.852263129e-04	1.754702805e-11
-4.700000000e-03	2.678480322e-01	-6.825130563e-04	2.536418766e-11
-4.800000000e-03	2.678480401e-01	-6.797997995e-04	1.167688309e-11
-4.900000000e-03	2.678480479e-01	-6.770865423e-04	7.116775661e-12
-5.000000000e-03	2.678480557e-01	-6.743732849e-04	1.649228998e-11
-5.100000000e-03	2.678480633e-01	-6.716600271e-04	1.414784617e-11
-5.200000000e-03	2.678480709e-01	-6.689467691e-04	3.653027895e-11
-5.300000000e-03	2.678480784e-01	-6.662335108e-04	1.646169655e-11
-5.400000000e-03	2.678480859e-01	-6.635202523e-04	2.323292654e-11
-5.500000000e-03	2.678480932e-01	-6.608069934e-04	1.114561553e-11
-5.600000000e-03	2.678481005e-01	-6.580937343e-04	1.060450544e-11
-5.700000000e-03	2.678481077e-01	-6.553804749e-04	8.866845585e-12
-5.800000000e-03	2.678481148e-01	-6.526672153e-04	2.270238084e-11
-5.900000000e-03	2.678481218e-01	-6.499539554e-04	1.003612573e-11
-6.000000000e-03	2.678481287e-01	-6.472406953e-04	2.624691531e-11
-6.100000000e-03	2.678481355e-01	-6.445274349e-04	7.789792306e-12
-6.200000000e-03	2.678481423e-01	-6.418141743e-04	4.295813960e-12
-6.300000000e-03	2.678481490e-01	-6.391009134e-04	1.572650456e-11
-6.400000000e-03	2.678481556e-01	-6.363876523e-04	8.277935200e-12
-6.500000000e-03	2.678481621e-01	-6.336743910e-04	9.949219091e-12
-6.600000000e-03	2.678481686e-01	-6.309611294e-04	1.096326646e-11
-6.700000000e-03	2.678481749e-01	-6.282478676e-04	1.830507685e-11
-6.800000000e-03	2.678481812e-01	-6.255346056e-04	9.265642994e-12
-6.900000000e-03	2.678481874e-01	-6.228213434e-04	5.377076667e-11
-7.000000000e-03	2.678481935e-01	-6.201080810e-04	1.046686563e-11
-7.100000000e-03	2.678481995e-01	-6.173948184e-04	1.304866364e-11
-7.200000000e-03	2.678482055e-01	-6.146815556e-04	1.061854585e-11
-7.300000000e-03	2.678482113e-01	-6.119682926e-04	2.019382442e-11
-7.400000000e-03	2.678482171e-01	-6.092550293e-04	1.280247891e-11
-7.500000000e-03	2.678482228e-01	-6.065417659e-04	1.186623029e-11
-7.600000000e-03	2.678482284e-01	-6.038285024e-04	2.902515519e-11
-7.700000000e-03	2.678482339e-01	-6.011152386e-04	1.830639183e-11
-7.800000000e-03	2.678482394e-01	-5.984019747e-04	5.676349688e-12
-7.900000000e-03	2.678482447e-01	-5.956887105e-04	4.242079734e-11
-8.000000000e-03	2.678482500e-01	-5.929754463e-04	1.501439463e-11
-8.100000000e-03	2.678482552e-01	-5.902621818e-04	7.266229613e-12
-8.200000000e-03	2.678482604e-01	-5.875489172e-04	2.148034883e-11
-8.300000000e-03	2.678482654e-01	-5.848356525e-04	6.653071090e-12
-8.400000000e-03	2.678482703e-01	-5.821223876e-04	7.450390883e-12
-8.500000000e-03	2.678482752e-01	-5.794091225e-04	9.494384346e-12
-8.600000000e-03	2.678482800e-01	-5.766958573e-04	2.824492418e-11
-8.700000000e-03	2.678482847e-01	-5.739825920e-04	1.288930293e-11
-8.800000000e-03	2.678482893e-01	-5.712693265e-04	9.907842850e-12
-8.900000000e-03	2.678482939e-01	-5.685560609e-04	5.804748911e-11
-9.000000000e-03	2.678482983e-01	-5.658427952e-04	1.053220215e-11
-9.100000000e-03	2.678483027e-01	-5.631295294e-04	4.406233382e-12
-9.200000000e-03	2.678483070e-01	-5.604162634e-04	1.281606604e-11
-9.300000000e-03	2.678483112e-01	-5.577029973e-04	1.016463229e-11
-9.400000000e-03	2.678483153e-01	-5.549897311e-04	1.308832854e-11
-9.500000000e-03	2.678483194e-01	-5.522764648e-04	9.366887286e-12
-9.600000000e-03	2.678483234e-01	-5.495631985e-04	5.747612895e-12
-9.700000000e-03	2.678483272e-01	-5.468499320e-04	1.751896374e-11
-9.800000000e-03	2.678483310e-01	-5.441366654e-04	1.650800654e-11
-9.900000000e-03	2.678483348e-01	-5.414233987e-04	8.761011049e-12
-1.000000000e-02	2.678483384e-01	-5.387101320e-04	1.241514926e-11
-1.010000000e-02	2.678483419e-01	-5.359968651e-04	2.356651006e-11
-1.020000000e-02	2.678483454e-01	-5.332835982e-04	6.444247434e-12
-1.030000000e-02	2.678483488e-01	-5.305703313e-04	4.248875043e-11
-1.040000000e-02	2.678483521e-01	-5.278570642e-04	8.909062648e-13
-1.050000000e-02	2.678483553e-01	-5.251437971e-04	1.071579481e-11
-1.060000000e-02	2.678483585e-01	-5.224305300e-04	5.013818985e-11
-1.070000000e-02	2.678483615e-01	-5.197172627e-04	6.242681305e-12
-1.080000000e-02	2.678483645e-01	-5.170039955e-04	1.682003578e-11
-1.090000000e-02	2.678483674e-01	-5.142907281e-04	3.462024045e-11
-1.100000000e-02	2.678483702e-01	-5.115774608e-04	1.671198276e-11
-1.110000000e-02	2.678483729e-01	-5.088641934e-04	4.980302716e-12
-1.120000000e-02	2.678483756e-01	-5.061509259e-04	4.357108194e-12
-1.130000000e-02	2.678483781e-01	-5.034376585e-04	7.044885024e-12
-1.140000000e-02	2.678483806e-01	-5.007243910e-04	7.531259012e-12
-1.150000000e-02	2.678483830e-01	-4.980111235e-04	5.179950007e-11
-1.160000000e-02	2.678483853e-01	-4.952978560e-04	9.749522630e-12
-1.170000000e-02	2.678483876e-01	-4.925845884e-04	4.740322756e-12
-1.180000000e-02	2.678483897e-01	-4.898713209e-04	1.197947863e-11
-1.190000000e-02	2.678483918e-01	-4.871580533e-04	7.747556073e-12
-1.200000000e-02	2.678483938e-01	-4.844447858e-04	2.338176330e-11
-1.210000000e-02	2.678483957e-01	-4.817315182e-04	1.489592781e-11
-1.220000000e-02	2.678483975e-01	-4.790182507e-04	5.141599591e-11
-1.230000000e-02	2.678483993e-01	-4.763049832e-04	4.435415154e-10
-1.240000000e-02	2.678484009e-01	-4.735917156e-04	2.267523582e-11
-1.250000000e-02	2.678484025e-01	-4.708784481e-04	1.063323975e-11
-1.260000000e-02	2.678484040e-01	-4.681651807e-04	1.895074182e-11
-1.270000000e-02	2.678484054e-01	-4.654519132e-04	7.357208161e-12
-1.280000000e-02	2.678484067e-01	-4.627386458e-04	1.098396514e-11
-1.290000000e-02	2.678484080e-01	-4.600253785e-04	2.119763332e-11
-1.300000000e-02	2.678484091e-01	-4.573121111e-04	4.137765404e-11
-1.310000000e-02	2.678484102e-01	-4.545988438e-04	5.218202947e-11
-1.320000000e-02	2.678484112e-01	-4.518855766e-04	5.680109678e-12
-1.330000000e-02	2.678484121e-01	-4.491723094e-04	9.274996430e-12
-1.340000000e-02	2.678484129e-01	-4.464590423e-04	1.466647166e-11
-1.350000000e-02	2.678484137e-01	-4.437457752e-04	1.422699695e-11
-1.360000000e-02	2.678484144e-01	-4.410325083e-04	1.943506313e-11
-1.370000000e-02	2.678484149e-01	-4.383192413e-04	1.090183565e-11
-1.380000000e-02	2.678484154e-01	-4.356059745e-04	1.220345789e-11
-1.390000000e-02	2.678484159e-01	-4.328927077e-04	9.435254877e-12
-1.400000000e-02	2.678484162e-01	-4.301794410e-04	1.521002956e-11
-1.410000000e-02	2.678484165e-01	-4.274661744e-04	1.120100187e-11
-1.420000000e-02	2.678484166e-01	-4.247529079e-04	1.203774900e-11
-1.430000000e-02	2.678484167e-01	-4.220396415e-04	9.645992025e-12
-1.440000000e-02	2.678484167e-01	-4.193263752e-04	2.646733423e-11
-1.450000000e-02	2.678484167e-01	-4.166131090e-04	7.590156065e-12
-1.460000000e-02	2.678484165e-01	-4.138998429e-04	2.071302805e-11
-1.470000000e-02	2.678484163e-01	-4.111865769e-04	1.204114325e-11
-1.480000000e-02	2.678484159e-01	-4.084733110e-04	1.407123984e-11
-1.490000000e-02	2.678484155e-01	-4.057600452e-04	8.310523461e-12
-1.500000000e-02	2.678484151e-01	-4.030467796e-04	7.151876391e-12
-1.510000000e-02	2.678484145e-01	-4.003335141e-04	1.025070086e-11
-1.520000000e-02	2.678484138e-01	-3.976202488e-04	1.344787319e-11
-1.530000000e-02	2.678484131e-01	-3.949069835e-04	1.514552680e-11
-1.540000000e-02	2.678484123e-01	-3.921937184e-04	7.118233227e-12
-1.550000000e-02	2.678484114e-01	-3.894804535e-04	4.782338612e-12
-1.560000000e-02	2.678484104e-01	-3.867671887e-04	1.153576161e-11
-1.570000000e-02	2.678484093e-01	-3.840539241e-04	1.453411077e-11
-1.580000000e-02	2.678484082e-01	-3.813406596e-04	8.367699203e-12
-1.590000000e-02	2.678484070e-01	-3.786273953e-04	1.397654864e-11
-1.600000000e-02	2.678484057e-01	-3.759141311e-04	6.429519861e-12
-1.610000000e-02	2.678484043e-01	-3.732008671e-04	7.701107656e-12
-1.620000000e-02	2.678484028e-01	-3.704876033e-04	1.015624404e-11
-1.630000000e-02	2.678484012e-01	-3.677743397e-04	5.804790722e-11
-1.640000000e-02	2.678483996e-01	-3.650610762e-04	5.222798239e-12
-1.650000000e-02	2.678483979e-01	-3.623478130e-04	1.481591831e-11
-1.660000000e-02	2.678483961e-01	-3.596345499e-04	2.542844663e-11
-1.670000000e-02	2.678483942e-01	-3.569212870e-04	1.651998254e-11
-1.680000000e-02	2.678483922e-01	-3.542080244e-04	2.585341632e-11
-1.690000000e-02	2.678483902e-01	-3.514947619e-04	4.552990807e-12
-1.700000000e-02	2.678483880e-01	-3.487814996e-04	1.647193684e-10
-1.710000000e-02	2.678483858e-01	-3.460682376e-04	9.886629890e-12
-1.720000000e-02	2.678483835e-01	-3.433549757e-04	7.372483073e-12
-1.730000000e-02	2.678483811e-01	-3.406417141e-04	1.251660959e-11
-1.740000000e-02	2.678483787e-01	-3.379284527e-04	1.568136416e-11
-1.750000000e-02	2.678483761e-01	-3.352151916e-04	7.040964700e-12
-1.760000000e-02	2.678483735e-01	-3.325019307e-04	1.041563153e-11
-1.770000000e-02	2.678483708e-01	-3.297886700e-04	1.484028162e-11
-1.780000000e-02	2.678483680e-01	-3.270754095e-04	1.446115378e-11
-1.790000000e-02	2.678483651e-01	-3.243621493e-04	1.050329520e-11
-1.800000000e-02	2.678483621e-01	-3.216488894e-04	7.885734452e-12
-1.810000000e-02	2.678483591e-01	-3.189356297e-04	1.180627388e-11
-1.820000000e-02	2.678483560e-01	-3.162223702e-04	1.843232904e-11
-1.830000000e-02	2.678483528e-01	-3.135091111e-04	1.521035056e-11
-1.840000000e-02	2.678483495e-01	-3.107958522e-04	1.351605737e-11
-1.850000000e-02	2.678483461e-01	-3.080825935e-04	1.370249227e-11
-1.860000000e-02	2.678483427e-01	-3.053693351e-04	7.876220908e-12
-1.870000000e-02	2.678483391e-01	-3.026560771e-04	1.647071208e-11
-1.880000000e-02	2.678483355e-01	-2.999428193e-04	1.413092852e-11
-1.890000000e-02	2.678483318e-01	-2.972295617e-04	1.398238344e-11
-1.900000000e-02	2.678483280e-01	-2.945163045e-04	2.420438905e-11
-1.910000000e-02	2.678483242e-01	-2.918030476e-04	8.072145853e-12
-1.920000000e-02	2.678483202e-01	-2.890897910e-04	4.408240738e-12
-1.930000000e-02	2.678483162e-01	-2.863765346e-04	1.373014116e-11
-1.940000000e-02	2.678483121e-01	-2.836632786e-04	3.306946521e-11
-1.950000000e-02	2.678483079e-01	-2.809500229e-04	1.249153165e-11
-1.960000000e-02	2.678483036e-01	-2.782367675e-04	3.751659292e-11
-1.970000000e-02	2.678482992e-01	-2.755235125e-04	6.637541418e-12
-1.980000000e-02	2.678482948e-01	-2.728102577e-04	2.638795091e-11
-1.990000000e-02	2.678482903e-01	-2.700970033e-04	5.950049991e-12
-2.000000000e-02	2.678482857e-01	-2.673837492e-04	1.404648874e-11
-2.010000000e-02	2.678482810e-01	-2.646704955e-04	1.704850525e-11
-2.020000000e-02	2.678482762e-01	-2.619572421e-04	6.422551901e-12
-2.030000000e-02	2.678482713e-01	-2.592439890e-04	1.874191161e-11
-2.040000000e-02	2.678482664e-01	-2.565307363e-04	2.055682797e-11
-2.050000000e-02	2.678482614e-01	-2.538174840e-04	1.145391981e-11
-2.060000000e-02	2.678482563e-01	-2.511042320e-04	3.326043985e-11
-2.070000000e-02	2.678482511e-01	-2.483909803e-04	3.816902529e-11
-2.080000000e-02	2.678482458e-01	-2.456777291e-04	5.692674004e-12
-2.090000000e-02	2.678482405e-01	-2.429644782e-04	7.820292128e-12
-2.100000000e-02	2.678482351e-01	-2.402512277e-04	1.521554614e-11
-2.110000000e-02	2.678482295e-01	-2.375379775e-04	6.480541152e-11
-2.120000000e-02	2.678482239e-01	-2.348247278e-04	1.256559654e-11
-2.130000000e-02	2.678482183e-01	-2.321114784e-04	9.546432457e-12
-2.140000000e-02	2.678482125e-01	-2.293982294e-04	1.581057467e-11
-2.150000000e-02	2.678482067e-01	-2.266849808e-04	1.071615734e-11
-2.160000000e-02	2.678482007e-01	-2.239717327e-04	2.349245448e-11
-2.170000000e-02	2.678481947e-01	-2.212584849e-04	1.403358021e-11
-2.180000000e-02	2.678481886e-01	-2.185452375e-04	9.413140026e-12
-2.190000000e-02	2.678481825e-01	-2.158319906e-04	4.155401271e-11
-2.200000000e-02	2.678481762e-01	-2.131187440e-04	1.469763929e-11
-2.210000000e-02	2.678481699e-01	-2.104054979e-04	1.073626327e-11
-2.220000000e-02	2.678481635e-01	-2.076922522e-04	8.271823684e-12
-2.230000000e-02	2.678481569e-01	-2.049790069e-04	1.891234810e-11
-2.240000000e-02	2.678481504e-01	-2.022657621e-04	1.211543867e-11
-2.250000000e-02	2.678481437e-01	-1.995525177e-04	2.004791113e-11
-2.260000000e-02	2.678481369e-01	-1.968392738e-04	1.571509488e-11
-2.270000000e-02	2.678481301e-01	-1.941260303e-04	2.335836660e-11
-2.280000000e-02	2.678481232e-01	-1.914127872e-04	9.675250240e-12
-2.290000000e-02	2.678481162e-01	-1.886995446e-04	9.421226430e-12
-2.300000000e-02	2.678481091e-01	-1.859863024e-04	7.703054031e-12
-2.310000000e-02	2.678481020e-01	-1.832730608e-04	7.868149260e-12
-2.320000000e-02	2.678480947e-01	-1.805598195e-04	1.708873094e-11
-2.330000000e-02	2.678480874e-01	-1.778465788e-04	1.048777427e-11
-2.340000000e-02	2.678480800e-01	-1.751333385e-04	2.216933819e-11
-2.350000000e-02	2.678480725e-01	-1.724200987e-04	1.387003024e-11
-2.360000000e-02	2.678480649e-01	-1.697068594e-04	1.526387656e-11
-2.370000000e-02	2.678480573e-01	-1.669936206e-04	8.120312711e-12
-2.380000000e-02	2.678480495e-01	-1.642803823e-04	1.658242585e-11
-2.390000000e-02	2.678480417e-01	-1.615671445e-04	2.533728667e-11
-2.400000000e-02	2.678480338e-01	-1.588539071e-04	2.124568707e-11
-2.410000000e-02	2.678480258e-01	-1.561406703e-04	1.109784032e-11
-2.420000000e-02	2.678480177e-01	-1.534274340e-04	6.952790626e-12
-2.430000000e-02	2.678480096e-01	-1.507141982e-04	8.124212404e-12
-2.440000000e-02	2.678480013e-01	-1.480009629e-04	1.697460046e-11
-2.450000000e-02	2.678479930e-01	-1.452877281e-04	2.325006663e-11
-2.460000000e-02	2.678479846e-01	-1.425744939e-04	1.609794823e-11
-2.470000000e-02	2.678479762e-01	-1.398612602e-04	1.714650006e-11
-2.480000000e-02	2.678479676e-01	-1.371480270e-04	9.851187085e-12
-2.490000000e-02	2.678479589e-01	-1.344347943e-04	2.709431169e-11
-2.500000000e-02	2.678479502e-01	-1.317215622e-04	1.299544553e-11
-2.510000000e-02	2.678479414e-01	-1.290083307e-04	5.395648356e-12
-2.520000000e-02	2.678479325e-01	-1.262950997e-04	9.194185518e-12
-2.530000000e-02	2.678479235e-01	-1.235818692e-04	2.127945525e-11
-2.540000000e-02	2.678479145e-01	-1.208686393e-04	4.943024022e-12
-2.550000000e-02	2.678479053e-01	-1.181554100e-04	2.257601926e-11
-2.560000000e-02	2.678478961e-01	-1.154421812e-04	1.052853986e-11
-2.570000000e-02	2.678478868e-01	-1.127289530e-04	2.485994384e-11
-2.580000000e-02	2.678478774e-01	-1.100157254e-04	1.561441632e-11
-2.590000000e-02	2.678478679e-01	-1.073024984e-04	1.001617686e-11
-2.600000000e-02	2.678478584e-01	-1.045892719e-04	1.034570979e-10
-2.610000000e-02	2.678478488e-01	-1.018760460e-04	3.012152539e-11
-2.620000000e-02	2.678478390e-01	-9.916282077e-05	7.843001629e-12
-2.630000000e-02	2.678478292e-01	-9.644959609e-05	7.526500390e-12
-2.640000000e-02	2.678478194e-01	-9.373637201e-05	2.003115140e-11
-2.650000000e-02	2.678478094e-01	-9.102314854e-05	1.254730532e-11
-2.660000000e-02	2.678477994e-01	-8.830992567e-05	2.099773247e-11
-2.670000000e-02	2.678477892e-01	-8.559670342e-05	1.902558007e-11
-2.680000000e-02	2.678477790e-01	-8.288348178e-05	5.501367482e-12
-2.690000000e-02	2.678477687e-01	-8.017026076e-05	6.523191717e-12
-2.700000000e-02	2.678477583e-01	-7.745704037e-05	2.586951813e-11
-2.710000000e-02	2.678477479e-01	-7.474382061e-05	1.237263670e-11
-2.720000000e-02	2.678477373e-01	-7.203060148e-05	8.619074558e-12
-2.730000000e-02	2.678477267e-01	-6.931738299e-05	2.805194434e-11
-2.740000000e-02	2.678477160e-01	-6.660416514e-05	1.512186536e-11
-2.750000000e-02	2.678477052e-01	-6.389094794e-05	2.894819279e-11
-2.760000000e-02	2.678476943e-01	-6.117773139e-05	1.645471797e-11
-2.770000000e-02	2.678476834e-01	-5.846451549e-05	1.403818316e-11
-2.780000000e-02	2.678476724e-01	-5.575130025e-05	1.467829366e-11
-2.790000000e-02	2.678476612e-01	-5.303808567e-05	8.979125404e-12
-2.800000000e-02	2.678476500e-01	-5.032487176e-05	3.449644332e-11
-2.810000000e-02	2.678476388e-01	-4.761165852e-05	1.106725717e-11
-2.820000000e-02	2.678476274e-01	-4.489844596e-05	4.104641142e-11
-2.830000000e-02	2.678476159e-01	-4.218523407e-05	1.731000833e-11
-2.840000000e-02	2.678476044e-01	-3.947202287e-05	1.076803301e-11
-2.850000000e-02	2.678475928e-01	-3.675881236e-05	6.977058982e-12
-2.860000000e-02	2.678475811e-01	-3.404560254e-05	1.695729955e-11
-2.870000000e-02	2.678475693e-01	-3.133239341e-05	1.998945431e-11
-2.880000000e-02	2.678475575e-01	-2.861918499e-05	1.331878406e-11
-2.890000000e-02	2.678475455e-01	-2.590597727e-05	6.299590565e-12
-2.900000000e-02	2.678475335e-01	-2.319277026e-05	9.371808858e-12
-2.910000000e-02	2.678475214e-01	-2.047956396e-05	9.202761441e-12
-2.920000000e-02	2.678475092e-01	-1.776635838e-05	1.888359280e-11
-2.930000000e-02	2.678474969e-01	-1.505315352e-05	7.533727763e-12
-2.940000000e-02	2.678474846e-01	-1.233994938e-05	3.044678799e-11
-2.950000000e-02	2.678474721e-01	-9.626745974e-06	4.452106786e-11
-2.960000000e-02	2.678474596e-01	-6.913543300e-06	3.983511607e-11
-2.970000000e-02	2.678474470e-01	-4.200341366e-06	1.946213516e-11
-2.980000000e-02	2.678474343e-01	-1.487140175e-06	5.395030900e-11
-2.990000000e-02	2.678474216e-01	1.226060273e-06	1.199569248e-11
-3.000000000e-02	2.678474087e-01	3.939259970e-06	1.706054478e-11
