# Im(epsi1)     Re(omega/c)      Im(omega/c)      Eq(det).Opt det CON kz, R=0.5 \mum, mu_c=0.3, Re(epsi1)=3.90solve_det_conkz_vs_kz.py
0.000000000e+00	2.678558530e-01	-8.100718894e-04	1.363815205e-11
-1.000000000e-04	2.678558648e-01	-8.073585853e-04	1.961162044e-11
-2.000000000e-04	2.678558765e-01	-8.046452808e-04	4.579116529e-12
-3.000000000e-04	2.678558882e-01	-8.019319758e-04	4.879645013e-12
-4.000000000e-04	2.678558997e-01	-7.992186703e-04	6.879046146e-12
-5.000000000e-04	2.678559112e-01	-7.965053643e-04	1.119081076e-11
-6.000000000e-04	2.678559226e-01	-7.937920579e-04	2.875985538e-11
-7.000000000e-04	2.678559339e-01	-7.910787510e-04	8.664474018e-12
-8.000000000e-04	2.678559451e-01	-7.883654436e-04	1.524902330e-11
-9.000000000e-04	2.678559562e-01	-7.856521357e-04	9.189513644e-12
-1.000000000e-03	2.678559673e-01	-7.829388274e-04	4.311461055e-11
-1.100000000e-03	2.678559782e-01	-7.802255186e-04	4.626934595e-12
-1.200000000e-03	2.678559891e-01	-7.775122094e-04	5.872494919e-12
-1.300000000e-03	2.678559999e-01	-7.747988998e-04	5.831911209e-12
-1.400000000e-03	2.678560107e-01	-7.720855896e-04	1.347182526e-11
-1.500000000e-03	2.678560213e-01	-7.693722791e-04	7.841538854e-12
-1.600000000e-03	2.678560319e-01	-7.666589681e-04	7.670336371e-12
-1.700000000e-03	2.678560423e-01	-7.639456567e-04	2.278132670e-11
-1.800000000e-03	2.678560527e-01	-7.612323449e-04	1.465669276e-11
-1.900000000e-03	2.678560630e-01	-7.585190326e-04	2.008710875e-11
-2.000000000e-03	2.678560733e-01	-7.558057199e-04	1.001270612e-11
-2.100000000e-03	2.678560834e-01	-7.530924068e-04	9.447691231e-12
-2.200000000e-03	2.678560935e-01	-7.503790933e-04	1.519174384e-11
-2.300000000e-03	2.678561035e-01	-7.476657794e-04	1.334492505e-11
-2.400000000e-03	2.678561134e-01	-7.449524651e-04	1.067299873e-11
-2.500000000e-03	2.678561232e-01	-7.422391504e-04	1.282504585e-11
-2.600000000e-03	2.678561329e-01	-7.395258353e-04	1.394948343e-11
-2.700000000e-03	2.678561426e-01	-7.368125198e-04	1.517323488e-11
-2.800000000e-03	2.678561521e-01	-7.340992040e-04	1.299421372e-11
-2.900000000e-03	2.678561616e-01	-7.313858877e-04	1.395839349e-11
-3.000000000e-03	2.678561710e-01	-7.286725711e-04	9.051337530e-12
-3.100000000e-03	2.678561804e-01	-7.259592541e-04	1.306404527e-11
-3.200000000e-03	2.678561896e-01	-7.232459367e-04	1.994503506e-11
-3.300000000e-03	2.678561988e-01	-7.205326190e-04	9.633726301e-12
-3.400000000e-03	2.678562078e-01	-7.178193009e-04	9.044104247e-12
-3.500000000e-03	2.678562168e-01	-7.151059825e-04	1.291907344e-11
-3.600000000e-03	2.678562257e-01	-7.123926637e-04	1.075379256e-11
-3.700000000e-03	2.678562346e-01	-7.096793445e-04	9.114306389e-12
-3.800000000e-03	2.678562433e-01	-7.069660250e-04	1.328218399e-11
-3.900000000e-03	2.678562520e-01	-7.042527052e-04	7.821236986e-12
-4.000000000e-03	2.678562605e-01	-7.015393851e-04	1.014492416e-11
-4.100000000e-03	2.678562690e-01	-6.988260646e-04	2.472591694e-11
-4.200000000e-03	2.678562775e-01	-6.961127438e-04	2.028835610e-11
-4.300000000e-03	2.678562858e-01	-6.933994226e-04	2.967736532e-11
-4.400000000e-03	2.678562940e-01	-6.906861012e-04	6.737688288e-11
-4.500000000e-03	2.678563022e-01	-6.879727794e-04	1.520132887e-11
-4.600000000e-03	2.678563103e-01	-6.852594573e-04	5.570308537e-12
-4.700000000e-03	2.678563183e-01	-6.825461350e-04	9.858467716e-12
-4.800000000e-03	2.678563262e-01	-6.798328123e-04	2.594416463e-11
-4.900000000e-03	2.678563341e-01	-6.771194893e-04	2.308495125e-11
-5.000000000e-03	2.678563418e-01	-6.744061660e-04	1.385203243e-11
-5.100000000e-03	2.678563495e-01	-6.716928425e-04	7.977895042e-12
-5.200000000e-03	2.678563571e-01	-6.689795186e-04	1.053329672e-11
-5.300000000e-03	2.678563646e-01	-6.662661945e-04	1.416366246e-11
-5.400000000e-03	2.678563720e-01	-6.635528701e-04	4.019633857e-11
-5.500000000e-03	2.678563794e-01	-6.608395454e-04	3.160868188e-11
-5.600000000e-03	2.678563866e-01	-6.581262205e-04	1.014143325e-11
-5.700000000e-03	2.678563938e-01	-6.554128953e-04	2.036329976e-11
-5.800000000e-03	2.678564009e-01	-6.526995698e-04	1.734324453e-11
-5.900000000e-03	2.678564079e-01	-6.499862441e-04	1.109963252e-11
-6.000000000e-03	2.678564149e-01	-6.472729182e-04	3.461742768e-11
-6.100000000e-03	2.678564217e-01	-6.445595919e-04	3.674123817e-11
-6.200000000e-03	2.678564285e-01	-6.418462655e-04	1.773451027e-11
-6.300000000e-03	2.678564352e-01	-6.391329388e-04	2.871838053e-11
-6.400000000e-03	2.678564418e-01	-6.364196119e-04	8.923267245e-12
-6.500000000e-03	2.678564483e-01	-6.337062847e-04	2.150914933e-11
-6.600000000e-03	2.678564547e-01	-6.309929573e-04	1.425398738e-11
-6.700000000e-03	2.678564611e-01	-6.282796297e-04	1.429634492e-11
-6.800000000e-03	2.678564674e-01	-6.255663019e-04	9.698072200e-12
-6.900000000e-03	2.678564735e-01	-6.228529739e-04	1.155270070e-11
-7.000000000e-03	2.678564797e-01	-6.201396456e-04	8.633130918e-12
-7.100000000e-03	2.678564857e-01	-6.174263172e-04	2.315981291e-11
-7.200000000e-03	2.678564916e-01	-6.147129885e-04	1.135680978e-11
-7.300000000e-03	2.678564975e-01	-6.119996597e-04	9.647857982e-12
-7.400000000e-03	2.678565033e-01	-6.092863306e-04	4.909678618e-11
-7.500000000e-03	2.678565090e-01	-6.065730014e-04	1.670553529e-11
-7.600000000e-03	2.678565146e-01	-6.038596720e-04	2.966357868e-11
-7.700000000e-03	2.678565201e-01	-6.011463424e-04	2.571072316e-11
-7.800000000e-03	2.678565256e-01	-5.984330126e-04	2.099290404e-11
-7.900000000e-03	2.678565309e-01	-5.957196827e-04	8.788446508e-12
-8.000000000e-03	2.678565362e-01	-5.930063526e-04	7.711554422e-12
-8.100000000e-03	2.678565414e-01	-5.902930223e-04	7.608478550e-12
-8.200000000e-03	2.678565465e-01	-5.875796919e-04	1.225297507e-11
-8.300000000e-03	2.678565516e-01	-5.848663613e-04	1.001283046e-11
-8.400000000e-03	2.678565565e-01	-5.821530306e-04	9.946877911e-12
-8.500000000e-03	2.678565614e-01	-5.794396997e-04	3.284101642e-11
-8.600000000e-03	2.678565662e-01	-5.767263687e-04	7.385846017e-12
-8.700000000e-03	2.678565709e-01	-5.740130375e-04	1.301989905e-11
-8.800000000e-03	2.678565755e-01	-5.712997062e-04	6.442935882e-12
-8.900000000e-03	2.678565801e-01	-5.685863748e-04	1.602188376e-11
-9.000000000e-03	2.678565845e-01	-5.658730432e-04	1.606636914e-11
-9.100000000e-03	2.678565889e-01	-5.631597116e-04	9.043416858e-12
-9.200000000e-03	2.678565932e-01	-5.604463798e-04	1.004289782e-11
-9.300000000e-03	2.678565974e-01	-5.577330479e-04	1.435682011e-11
-9.400000000e-03	2.678566015e-01	-5.550197158e-04	2.621762326e-11
-9.500000000e-03	2.678566056e-01	-5.523063837e-04	7.159574985e-12
-9.600000000e-03	2.678566095e-01	-5.495930515e-04	1.397380220e-11
-9.700000000e-03	2.678566134e-01	-5.468797192e-04	4.241623346e-11
-9.800000000e-03	2.678566172e-01	-5.441663868e-04	1.055990276e-11
-9.900000000e-03	2.678566209e-01	-5.414530543e-04	1.977760328e-11
-1.000000000e-02	2.678566246e-01	-5.387397217e-04	3.184942465e-11
-1.010000000e-02	2.678566281e-01	-5.360263891e-04	1.687941574e-11
-1.020000000e-02	2.678566316e-01	-5.333130563e-04	2.078816738e-11
-1.030000000e-02	2.678566350e-01	-5.305997235e-04	2.434155302e-11
-1.040000000e-02	2.678566383e-01	-5.278863906e-04	8.486448600e-11
-1.050000000e-02	2.678566415e-01	-5.251730577e-04	1.268240822e-11
-1.060000000e-02	2.678566447e-01	-5.224597247e-04	9.869765719e-12
-1.070000000e-02	2.678566477e-01	-5.197463917e-04	7.551454252e-12
-1.080000000e-02	2.678566507e-01	-5.170330586e-04	7.700636525e-12
-1.090000000e-02	2.678566536e-01	-5.143197254e-04	1.405972376e-11
-1.100000000e-02	2.678566564e-01	-5.116063922e-04	8.076476530e-12
-1.110000000e-02	2.678566591e-01	-5.088930590e-04	7.761037564e-12
-1.120000000e-02	2.678566618e-01	-5.061797257e-04	2.036487874e-11
-1.130000000e-02	2.678566643e-01	-5.034663924e-04	3.409834327e-11
-1.140000000e-02	2.678566668e-01	-5.007530591e-04	8.542440544e-12
-1.150000000e-02	2.678566692e-01	-4.980397258e-04	1.010035406e-11
-1.160000000e-02	2.678566715e-01	-4.953263924e-04	1.492312270e-11
-1.170000000e-02	2.678566738e-01	-4.926130591e-04	6.168193093e-11
-1.180000000e-02	2.678566759e-01	-4.898997257e-04	1.657037358e-11
-1.190000000e-02	2.678566780e-01	-4.871863923e-04	1.952134224e-11
-1.200000000e-02	2.678566800e-01	-4.844730589e-04	1.001354015e-11
-1.210000000e-02	2.678566819e-01	-4.817597255e-04	1.193178275e-12
-1.220000000e-02	2.678566837e-01	-4.790463922e-04	1.150979485e-11
-1.230000000e-02	2.678566854e-01	-4.763330588e-04	1.094727818e-11
-1.240000000e-02	2.678566871e-01	-4.736197255e-04	8.332562623e-12
-1.250000000e-02	2.678566887e-01	-4.709063921e-04	2.906840515e-11
-1.260000000e-02	2.678566902e-01	-4.681930588e-04	2.245719566e-11
-1.270000000e-02	2.678566916e-01	-4.654797256e-04	1.057907967e-11
-1.280000000e-02	2.678566929e-01	-4.627663923e-04	1.079965006e-10
-1.290000000e-02	2.678566942e-01	-4.600530591e-04	1.053677460e-11
-1.300000000e-02	2.678566953e-01	-4.573397260e-04	4.886276685e-11
-1.310000000e-02	2.678566964e-01	-4.546263929e-04	1.472091566e-11
-1.320000000e-02	2.678566974e-01	-4.519130598e-04	2.354694321e-11
-1.330000000e-02	2.678566983e-01	-4.491997268e-04	1.628730215e-11
-1.340000000e-02	2.678566991e-01	-4.464863938e-04	8.890881247e-12
-1.350000000e-02	2.678566999e-01	-4.437730609e-04	1.235814636e-11
-1.360000000e-02	2.678567006e-01	-4.410597281e-04	2.299754262e-11
-1.370000000e-02	2.678567012e-01	-4.383463954e-04	8.625445400e-12
-1.380000000e-02	2.678567017e-01	-4.356330627e-04	2.269959551e-11
-1.390000000e-02	2.678567021e-01	-4.329197301e-04	5.515436573e-12
-1.400000000e-02	2.678567024e-01	-4.302063976e-04	8.931317230e-12
-1.410000000e-02	2.678567027e-01	-4.274930651e-04	2.160878375e-11
-1.420000000e-02	2.678567028e-01	-4.247797328e-04	4.062847967e-12
-1.430000000e-02	2.678567029e-01	-4.220664005e-04	1.112291950e-11
-1.440000000e-02	2.678567029e-01	-4.193530684e-04	8.727976564e-12
-1.450000000e-02	2.678567029e-01	-4.166397364e-04	1.128055912e-11
-1.460000000e-02	2.678567027e-01	-4.139264044e-04	8.318950863e-12
-1.470000000e-02	2.678567025e-01	-4.112130726e-04	1.267163050e-11
-1.480000000e-02	2.678567022e-01	-4.084997409e-04	1.568739394e-11
-1.490000000e-02	2.678567018e-01	-4.057864093e-04	7.489107230e-12
-1.500000000e-02	2.678567013e-01	-4.030730779e-04	2.974747167e-12
-1.510000000e-02	2.678567007e-01	-4.003597465e-04	9.199419201e-12
-1.520000000e-02	2.678567000e-01	-3.976464153e-04	1.083969899e-10
-1.530000000e-02	2.678566993e-01	-3.949330843e-04	1.296444483e-11
-1.540000000e-02	2.678566985e-01	-3.922197533e-04	2.553718765e-11
-1.550000000e-02	2.678566976e-01	-3.895064226e-04	1.430884413e-11
-1.560000000e-02	2.678566966e-01	-3.867930919e-04	4.327280903e-12
-1.570000000e-02	2.678566956e-01	-3.840797615e-04	1.765169314e-11
-1.580000000e-02	2.678566944e-01	-3.813664312e-04	1.100613915e-11
-1.590000000e-02	2.678566932e-01	-3.786531010e-04	7.001876132e-12
-1.600000000e-02	2.678566919e-01	-3.759397710e-04	3.626702872e-11
-1.610000000e-02	2.678566905e-01	-3.732264412e-04	1.438306348e-11
-1.620000000e-02	2.678566890e-01	-3.705131116e-04	3.075557262e-11
-1.630000000e-02	2.678566875e-01	-3.677997821e-04	7.625850634e-12
-1.640000000e-02	2.678566858e-01	-3.650864528e-04	1.433553784e-11
-1.650000000e-02	2.678566841e-01	-3.623731237e-04	9.060484450e-12
-1.660000000e-02	2.678566823e-01	-3.596597949e-04	4.994525540e-12
-1.670000000e-02	2.678566804e-01	-3.569464661e-04	6.491772062e-12
-1.680000000e-02	2.678566784e-01	-3.542331376e-04	1.071677524e-11
-1.690000000e-02	2.678566764e-01	-3.515198093e-04	1.474676916e-11
-1.700000000e-02	2.678566742e-01	-3.488064813e-04	1.439243261e-11
-1.710000000e-02	2.678566720e-01	-3.460931534e-04	2.888847848e-11
-1.720000000e-02	2.678566697e-01	-3.433798257e-04	7.550634920e-12
-1.730000000e-02	2.678566673e-01	-3.406664983e-04	1.159837568e-11
-1.740000000e-02	2.678566649e-01	-3.379531710e-04	9.366183313e-12
-1.750000000e-02	2.678566623e-01	-3.352398441e-04	5.936408211e-12
-1.760000000e-02	2.678566597e-01	-3.325265173e-04	6.016118861e-11
-1.770000000e-02	2.678566570e-01	-3.298131908e-04	4.293069680e-11
-1.780000000e-02	2.678566542e-01	-3.270998645e-04	9.767262762e-12
-1.790000000e-02	2.678566513e-01	-3.243865385e-04	1.625794780e-11
-1.800000000e-02	2.678566484e-01	-3.216732127e-04	1.260602791e-11
-1.810000000e-02	2.678566453e-01	-3.189598872e-04	9.024815544e-12
-1.820000000e-02	2.678566422e-01	-3.162465619e-04	1.214820463e-11
-1.830000000e-02	2.678566390e-01	-3.135332369e-04	1.648122257e-11
-1.840000000e-02	2.678566357e-01	-3.108199121e-04	1.892760014e-11
-1.850000000e-02	2.678566323e-01	-3.081065877e-04	1.367962059e-11
-1.860000000e-02	2.678566289e-01	-3.053932635e-04	7.815357448e-12
-1.870000000e-02	2.678566254e-01	-3.026799396e-04	1.442757189e-11
-1.880000000e-02	2.678566217e-01	-2.999666159e-04	3.835658011e-11
-1.890000000e-02	2.678566180e-01	-2.972532926e-04	2.285187920e-11
-1.900000000e-02	2.678566143e-01	-2.945399695e-04	9.934235149e-12
-1.910000000e-02	2.678566104e-01	-2.918266468e-04	1.211943384e-11
-1.920000000e-02	2.678566064e-01	-2.891133243e-04	1.074022793e-11
-1.930000000e-02	2.678566024e-01	-2.864000021e-04	2.265747485e-11
-1.940000000e-02	2.678565983e-01	-2.836866803e-04	2.140065219e-11
-1.950000000e-02	2.678565941e-01	-2.809733588e-04	1.136725048e-11
-1.960000000e-02	2.678565898e-01	-2.782600375e-04	5.363221415e-12
-1.970000000e-02	2.678565855e-01	-2.755467166e-04	1.368830882e-11
-1.980000000e-02	2.678565810e-01	-2.728333961e-04	1.821900940e-11
-1.990000000e-02	2.678565765e-01	-2.701200758e-04	3.108470898e-11
-2.000000000e-02	2.678565719e-01	-2.674067559e-04	1.379204164e-11
-2.010000000e-02	2.678565672e-01	-2.646934363e-04	1.298632717e-11
-2.020000000e-02	2.678565624e-01	-2.619801171e-04	4.644100502e-12
-2.030000000e-02	2.678565576e-01	-2.592667982e-04	1.538183458e-11
-2.040000000e-02	2.678565526e-01	-2.565534797e-04	7.752238685e-12
-2.050000000e-02	2.678565476e-01	-2.538401615e-04	2.093840233e-11
-2.060000000e-02	2.678565425e-01	-2.511268437e-04	1.687087327e-11
-2.070000000e-02	2.678565373e-01	-2.484135262e-04	1.553869959e-11
-2.080000000e-02	2.678565321e-01	-2.457002091e-04	8.721543315e-12
-2.090000000e-02	2.678565267e-01	-2.429868924e-04	7.932165694e-11
-2.100000000e-02	2.678565213e-01	-2.402735760e-04	1.733426687e-11
-2.110000000e-02	2.678565158e-01	-2.375602601e-04	2.245333217e-11
-2.120000000e-02	2.678565102e-01	-2.348469445e-04	8.114442213e-12
-2.130000000e-02	2.678565045e-01	-2.321336293e-04	3.621051425e-11
-2.140000000e-02	2.678564987e-01	-2.294203145e-04	7.194096065e-12
-2.150000000e-02	2.678564929e-01	-2.267070001e-04	6.489940324e-12
-2.160000000e-02	2.678564870e-01	-2.239936861e-04	1.100199841e-11
-2.170000000e-02	2.678564810e-01	-2.212803724e-04	5.735928457e-12
-2.180000000e-02	2.678564749e-01	-2.185670592e-04	1.822880930e-11
-2.190000000e-02	2.678564687e-01	-2.158537465e-04	1.251840046e-11
-2.200000000e-02	2.678564625e-01	-2.131404341e-04	8.116331656e-12
-2.210000000e-02	2.678564561e-01	-2.104271221e-04	1.019842408e-11
-2.220000000e-02	2.678564497e-01	-2.077138106e-04	1.590310100e-11
-2.230000000e-02	2.678564432e-01	-2.050004995e-04	1.467673158e-11
-2.240000000e-02	2.678564366e-01	-2.022871888e-04	7.950487681e-12
-2.250000000e-02	2.678564299e-01	-1.995738786e-04	2.759042173e-11
-2.260000000e-02	2.678564232e-01	-1.968605688e-04	3.320525294e-11
-2.270000000e-02	2.678564164e-01	-1.941472595e-04	1.587133416e-11
-2.280000000e-02	2.678564094e-01	-1.914339506e-04	1.034851819e-11
-2.290000000e-02	2.678564024e-01	-1.887206422e-04	1.091148163e-11
-2.300000000e-02	2.678563954e-01	-1.860073342e-04	3.241506334e-11
-2.310000000e-02	2.678563882e-01	-1.832940267e-04	1.035817024e-11
-2.320000000e-02	2.678563810e-01	-1.805807196e-04	8.848219440e-12
-2.330000000e-02	2.678563736e-01	-1.778674131e-04	3.327695067e-11
-2.340000000e-02	2.678563662e-01	-1.751541070e-04	2.163207522e-11
-2.350000000e-02	2.678563587e-01	-1.724408013e-04	1.707378257e-11
-2.360000000e-02	2.678563512e-01	-1.697274962e-04	1.117143207e-11
-2.370000000e-02	2.678563435e-01	-1.670141915e-04	1.666846922e-11
-2.380000000e-02	2.678563358e-01	-1.643008874e-04	1.186388836e-11
-2.390000000e-02	2.678563279e-01	-1.615875837e-04	1.492752460e-11
-2.400000000e-02	2.678563200e-01	-1.588742806e-04	2.445792549e-11
-2.410000000e-02	2.678563121e-01	-1.561609779e-04	2.139710019e-11
-2.420000000e-02	2.678563040e-01	-1.534476757e-04	4.266557408e-11
-2.430000000e-02	2.678562958e-01	-1.507343741e-04	7.348450595e-12
-2.440000000e-02	2.678562876e-01	-1.480210730e-04	1.571095891e-11
-2.450000000e-02	2.678562793e-01	-1.453077724e-04	1.923684975e-11
-2.460000000e-02	2.678562709e-01	-1.425944723e-04	4.632119106e-11
-2.470000000e-02	2.678562624e-01	-1.398811728e-04	1.832602242e-11
-2.480000000e-02	2.678562538e-01	-1.371678737e-04	2.337029173e-11
-2.490000000e-02	2.678562452e-01	-1.344545753e-04	7.358272796e-12
-2.500000000e-02	2.678562365e-01	-1.317412773e-04	7.275790179e-12
-2.510000000e-02	2.678562277e-01	-1.290279799e-04	1.329611069e-11
-2.520000000e-02	2.678562188e-01	-1.263146831e-04	1.876694734e-11
-2.530000000e-02	2.678562098e-01	-1.236013868e-04	9.196793662e-12
-2.540000000e-02	2.678562007e-01	-1.208880911e-04	1.152816424e-11
-2.550000000e-02	2.678561916e-01	-1.181747959e-04	1.324220481e-11
-2.560000000e-02	2.678561824e-01	-1.154615013e-04	9.868139834e-12
-2.570000000e-02	2.678561731e-01	-1.127482073e-04	5.636831853e-12
-2.580000000e-02	2.678561637e-01	-1.100349139e-04	6.419280251e-12
-2.590000000e-02	2.678561542e-01	-1.073216210e-04	2.114739737e-11
-2.600000000e-02	2.678561447e-01	-1.046083287e-04	2.434668943e-11
-2.610000000e-02	2.678561350e-01	-1.018950370e-04	6.739829721e-12
-2.620000000e-02	2.678561253e-01	-9.918174589e-05	1.375420598e-11
-2.630000000e-02	2.678561155e-01	-9.646845538e-05	1.688735134e-11
-2.640000000e-02	2.678561056e-01	-9.375516547e-05	5.557585893e-12
-2.650000000e-02	2.678560957e-01	-9.104187616e-05	1.956848840e-11
-2.660000000e-02	2.678560856e-01	-8.832858746e-05	6.099958833e-12
-2.670000000e-02	2.678560755e-01	-8.561529937e-05	8.808853848e-12
-2.680000000e-02	2.678560653e-01	-8.290201190e-05	7.922342826e-12
-2.690000000e-02	2.678560550e-01	-8.018872505e-05	8.720556584e-12
-2.700000000e-02	2.678560446e-01	-7.747543883e-05	3.549705938e-12
-2.710000000e-02	2.678560341e-01	-7.476215324e-05	1.874263878e-11
-2.720000000e-02	2.678560236e-01	-7.204886827e-05	1.062923816e-11
-2.730000000e-02	2.678560130e-01	-6.933558395e-05	7.991166616e-11
-2.740000000e-02	2.678560023e-01	-6.662230027e-05	2.309145820e-11
-2.750000000e-02	2.678559915e-01	-6.390901723e-05	2.154400745e-11
-2.760000000e-02	2.678559806e-01	-6.119573485e-05	4.029917001e-12
-2.770000000e-02	2.678559697e-01	-5.848245312e-05	1.042955139e-11
-2.780000000e-02	2.678559586e-01	-5.576917205e-05	1.736820722e-11
-2.790000000e-02	2.678559475e-01	-5.305589164e-05	9.047311357e-12
-2.800000000e-02	2.678559363e-01	-5.034261189e-05	1.115746668e-11
-2.810000000e-02	2.678559250e-01	-4.762933282e-05	1.712217644e-11
-2.820000000e-02	2.678559137e-01	-4.491605443e-05	2.807594072e-11
-2.830000000e-02	2.678559022e-01	-4.220277671e-05	1.508570249e-11
-2.840000000e-02	2.678558907e-01	-3.948949968e-05	8.048419636e-11
-2.850000000e-02	2.678558791e-01	-3.677622333e-05	2.230533372e-11
-2.860000000e-02	2.678558674e-01	-3.406294768e-05	3.053634253e-11
-2.870000000e-02	2.678558556e-01	-3.134967272e-05	1.156827432e-11
-2.880000000e-02	2.678558437e-01	-2.863639846e-05	1.872930830e-11
-2.890000000e-02	2.678558318e-01	-2.592312491e-05	2.017660216e-11
-2.900000000e-02	2.678558198e-01	-2.320985206e-05	4.795175385e-12
-2.910000000e-02	2.678558077e-01	-2.049657993e-05	1.048387744e-11
-2.920000000e-02	2.678557955e-01	-1.778330852e-05	2.879871558e-11
-2.930000000e-02	2.678557832e-01	-1.507003782e-05	1.440878617e-11
-2.940000000e-02	2.678557708e-01	-1.235676785e-05	9.968434457e-12
-2.950000000e-02	2.678557584e-01	-9.643498615e-06	1.026096516e-11
-2.960000000e-02	2.678557459e-01	-6.930230110e-06	1.467398685e-11
-2.970000000e-02	2.678557333e-01	-4.216962342e-06	3.417328456e-11
-2.980000000e-02	2.678557206e-01	-1.503695316e-06	1.116995029e-11
-2.990000000e-02	2.678557078e-01	1.209570962e-06	2.512753375e-11
-3.000000000e-02	2.678556950e-01	3.922836493e-06	1.640748135e-11
