# Im(epsi1)     Re(omega/c)      Im(omega/c)      Eq(det).Opt det CON kz, R=0.5 \mum, mu_c=0.3, Re(epsi1)=3.90solve_det_conkz_vs_kz.py
0.000000000e+00	2.678464477e-01	-8.100308313e-04	1.930834545e-11
-1.000000000e-04	2.678464595e-01	-8.073176020e-04	1.138399180e-11
-2.000000000e-04	2.678464712e-01	-8.046043722e-04	3.771086147e-11
-3.000000000e-04	2.678464829e-01	-8.018911419e-04	1.681671969e-10
-4.000000000e-04	2.678464944e-01	-7.991779112e-04	5.574811754e-11
-5.000000000e-04	2.678465059e-01	-7.964646799e-04	1.687613145e-11
-6.000000000e-04	2.678465173e-01	-7.937514482e-04	1.809839261e-11
-7.000000000e-04	2.678465286e-01	-7.910382160e-04	1.303227092e-11
-8.000000000e-04	2.678465398e-01	-7.883249833e-04	1.172022648e-11
-9.000000000e-04	2.678465509e-01	-7.856117501e-04	1.177386306e-11
-1.000000000e-03	2.678465620e-01	-7.828985165e-04	1.200338106e-11
-1.100000000e-03	2.678465729e-01	-7.801852825e-04	2.643041547e-11
-1.200000000e-03	2.678465838e-01	-7.774720480e-04	1.048817033e-11
-1.300000000e-03	2.678465946e-01	-7.747588130e-04	1.327447751e-11
-1.400000000e-03	2.678466054e-01	-7.720455777e-04	1.917576358e-11
-1.500000000e-03	2.678466160e-01	-7.693323418e-04	9.378510102e-12
-1.600000000e-03	2.678466266e-01	-7.666191056e-04	2.869425441e-11
-1.700000000e-03	2.678466370e-01	-7.639058689e-04	1.415848896e-11
-1.800000000e-03	2.678466474e-01	-7.611926317e-04	1.040740673e-11
-1.900000000e-03	2.678466577e-01	-7.584793942e-04	1.177788086e-11
-2.000000000e-03	2.678466680e-01	-7.557661562e-04	1.944856130e-11
-2.100000000e-03	2.678466781e-01	-7.530529179e-04	7.358596384e-12
-2.200000000e-03	2.678466882e-01	-7.503396791e-04	4.052264733e-12
-2.300000000e-03	2.678466982e-01	-7.476264399e-04	1.378775576e-11
-2.400000000e-03	2.678467081e-01	-7.449132003e-04	1.148157640e-11
-2.500000000e-03	2.678467179e-01	-7.421999603e-04	1.081203567e-11
-2.600000000e-03	2.678467276e-01	-7.394867199e-04	2.057895275e-11
-2.700000000e-03	2.678467373e-01	-7.367734792e-04	9.251449747e-12
-2.800000000e-03	2.678467468e-01	-7.340602380e-04	9.936279940e-12
-2.900000000e-03	2.678467563e-01	-7.313469961e-04	1.077632848e-08
-3.000000000e-03	2.678467657e-01	-7.286337546e-04	1.508243263e-11
-3.100000000e-03	2.678467751e-01	-7.259205123e-04	6.978073345e-12
-3.200000000e-03	2.678467843e-01	-7.232072696e-04	5.196249851e-11
-3.300000000e-03	2.678467934e-01	-7.204940266e-04	5.160589796e-11
-3.400000000e-03	2.678468025e-01	-7.177807833e-04	6.007882655e-12
-3.500000000e-03	2.678468115e-01	-7.150675395e-04	1.293625536e-11
-3.600000000e-03	2.678468204e-01	-7.123542955e-04	2.495096894e-11
-3.700000000e-03	2.678468293e-01	-7.096410510e-04	1.381816510e-11
-3.800000000e-03	2.678468380e-01	-7.069278063e-04	1.597474611e-11
-3.900000000e-03	2.678468467e-01	-7.042145612e-04	7.668677631e-11
-4.000000000e-03	2.678468552e-01	-7.015013157e-04	1.297998884e-11
-4.100000000e-03	2.678468637e-01	-6.987880700e-04	1.175557107e-11
-4.200000000e-03	2.678468722e-01	-6.960748239e-04	8.283608449e-11
-4.300000000e-03	2.678468805e-01	-6.933615775e-04	2.303368381e-11
-4.400000000e-03	2.678468887e-01	-6.906483307e-04	1.299379646e-11
-4.500000000e-03	2.678468969e-01	-6.879350837e-04	4.083624570e-11
-4.600000000e-03	2.678469050e-01	-6.852218363e-04	1.636177986e-11
-4.700000000e-03	2.678469130e-01	-6.825085887e-04	1.169007918e-11
-4.800000000e-03	2.678469209e-01	-6.797953407e-04	2.183309988e-11
-4.900000000e-03	2.678469288e-01	-6.770820924e-04	5.954459389e-12
-5.000000000e-03	2.678469365e-01	-6.743688439e-04	8.703299525e-12
-5.100000000e-03	2.678469442e-01	-6.716555951e-04	5.900009279e-12
-5.200000000e-03	2.678469518e-01	-6.689423459e-04	4.115423429e-11
-5.300000000e-03	2.678469593e-01	-6.662290965e-04	1.301416079e-11
-5.400000000e-03	2.678469667e-01	-6.635158468e-04	1.012940040e-11
-5.500000000e-03	2.678469741e-01	-6.608025969e-04	8.548010520e-12
-5.600000000e-03	2.678469813e-01	-6.580893467e-04	3.496188564e-12
-5.700000000e-03	2.678469885e-01	-6.553760962e-04	9.117808011e-12
-5.800000000e-03	2.678469956e-01	-6.526628455e-04	5.931180237e-12
-5.900000000e-03	2.678470026e-01	-6.499495945e-04	4.092590965e-11
-6.000000000e-03	2.678470095e-01	-6.472363432e-04	7.564410959e-12
-6.100000000e-03	2.678470164e-01	-6.445230917e-04	6.241871149e-12
-6.200000000e-03	2.678470232e-01	-6.418098400e-04	9.702178065e-12
-6.300000000e-03	2.678470298e-01	-6.390965880e-04	7.194048879e-12
-6.400000000e-03	2.678470364e-01	-6.363833358e-04	1.148297729e-11
-6.500000000e-03	2.678470430e-01	-6.336700834e-04	1.871330906e-11
-6.600000000e-03	2.678470494e-01	-6.309568307e-04	1.788455528e-11
-6.700000000e-03	2.678470558e-01	-6.282435778e-04	2.192979974e-11
-6.800000000e-03	2.678470620e-01	-6.255303247e-04	1.405336419e-11
-6.900000000e-03	2.678470682e-01	-6.228170714e-04	1.302350578e-11
-7.000000000e-03	2.678470743e-01	-6.201038179e-04	1.190955763e-11
-7.100000000e-03	2.678470804e-01	-6.173905641e-04	5.544664024e-12
-7.200000000e-03	2.678470863e-01	-6.146773102e-04	2.362401822e-12
-7.300000000e-03	2.678470922e-01	-6.119640561e-04	1.177873974e-11
-7.400000000e-03	2.678470979e-01	-6.092508018e-04	2.379043063e-11
-7.500000000e-03	2.678471036e-01	-6.065375472e-04	1.272047825e-11
-7.600000000e-03	2.678471092e-01	-6.038242925e-04	2.329208642e-11
-7.700000000e-03	2.678471148e-01	-6.011110377e-04	1.017652770e-10
-7.800000000e-03	2.678471202e-01	-5.983977826e-04	1.109690261e-11
-7.900000000e-03	2.678471256e-01	-5.956845274e-04	6.899727382e-12
-8.000000000e-03	2.678471309e-01	-5.929712720e-04	1.777101958e-11
-8.100000000e-03	2.678471361e-01	-5.902580165e-04	2.356010053e-11
-8.200000000e-03	2.678471412e-01	-5.875447608e-04	1.708997565e-11
-8.300000000e-03	2.678471462e-01	-5.848315049e-04	3.883136778e-11
-8.400000000e-03	2.678471512e-01	-5.821182489e-04	3.555862626e-11
-8.500000000e-03	2.678471561e-01	-5.794049927e-04	3.899634349e-11
-8.600000000e-03	2.678471608e-01	-5.766917364e-04	5.362429506e-12
-8.700000000e-03	2.678471655e-01	-5.739784800e-04	2.224383808e-11
-8.800000000e-03	2.678471702e-01	-5.712652234e-04	2.333244030e-11
-8.900000000e-03	2.678471747e-01	-5.685519667e-04	9.138317996e-12
-9.000000000e-03	2.678471792e-01	-5.658387099e-04	2.924813534e-11
-9.100000000e-03	2.678471835e-01	-5.631254529e-04	2.032761928e-11
-9.200000000e-03	2.678471878e-01	-5.604121958e-04	1.453621070e-11
-9.300000000e-03	2.678471921e-01	-5.576989386e-04	1.008221472e-11
-9.400000000e-03	2.678471962e-01	-5.549856814e-04	7.668107796e-11
-9.500000000e-03	2.678472002e-01	-5.522724240e-04	1.817009279e-11
-9.600000000e-03	2.678472042e-01	-5.495591665e-04	1.322430588e-11
-9.700000000e-03	2.678472081e-01	-5.468459089e-04	1.139616898e-11
-9.800000000e-03	2.678472119e-01	-5.441326512e-04	3.073356370e-12
-9.900000000e-03	2.678472156e-01	-5.414193934e-04	9.520188512e-12
-1.000000000e-02	2.678472192e-01	-5.387061355e-04	3.752951301e-11
-1.010000000e-02	2.678472228e-01	-5.359928776e-04	1.393365625e-11
-1.020000000e-02	2.678472263e-01	-5.332796196e-04	1.241944157e-11
-1.030000000e-02	2.678472296e-01	-5.305663615e-04	3.505742307e-11
-1.040000000e-02	2.678472329e-01	-5.278531034e-04	4.793765616e-11
-1.050000000e-02	2.678472362e-01	-5.251398451e-04	1.269775167e-11
-1.060000000e-02	2.678472393e-01	-5.224265869e-04	1.031539699e-11
-1.070000000e-02	2.678472424e-01	-5.197133285e-04	7.014627662e-11
-1.080000000e-02	2.678472453e-01	-5.170000701e-04	6.860569708e-12
-1.090000000e-02	2.678472482e-01	-5.142868117e-04	8.331150622e-12
-1.100000000e-02	2.678472510e-01	-5.115735533e-04	2.639067588e-11
-1.110000000e-02	2.678472538e-01	-5.088602947e-04	6.576891588e-12
-1.120000000e-02	2.678472564e-01	-5.061470362e-04	1.985595618e-11
-1.130000000e-02	2.678472590e-01	-5.034337776e-04	1.428253216e-11
-1.140000000e-02	2.678472615e-01	-5.007205190e-04	1.694708163e-11
-1.150000000e-02	2.678472639e-01	-4.980072604e-04	1.889832319e-11
-1.160000000e-02	2.678472662e-01	-4.952940018e-04	1.345126740e-11
-1.170000000e-02	2.678472684e-01	-4.925807431e-04	7.205776484e-12
-1.180000000e-02	2.678472706e-01	-4.898674845e-04	6.260980487e-12
-1.190000000e-02	2.678472726e-01	-4.871542258e-04	1.045289749e-11
-1.200000000e-02	2.678472746e-01	-4.844409672e-04	2.024940900e-11
-1.210000000e-02	2.678472765e-01	-4.817277085e-04	7.324794536e-12
-1.220000000e-02	2.678472783e-01	-4.790144498e-04	9.696411713e-12
-1.230000000e-02	2.678472801e-01	-4.763011912e-04	1.129956774e-11
-1.240000000e-02	2.678472817e-01	-4.735879326e-04	1.101581376e-11
-1.250000000e-02	2.678472833e-01	-4.708746740e-04	1.160710464e-11
-1.260000000e-02	2.678472848e-01	-4.681614154e-04	2.018737078e-11
-1.270000000e-02	2.678472862e-01	-4.654481569e-04	1.179345995e-11
-1.280000000e-02	2.678472875e-01	-4.627348983e-04	1.434276016e-11
-1.290000000e-02	2.678472888e-01	-4.600216399e-04	2.736484516e-11
-1.300000000e-02	2.678472900e-01	-4.573083814e-04	1.548133193e-11
-1.310000000e-02	2.678472910e-01	-4.545951230e-04	1.503453737e-11
-1.320000000e-02	2.678472920e-01	-4.518818647e-04	5.826094474e-12
-1.330000000e-02	2.678472929e-01	-4.491686064e-04	7.913593279e-12
-1.340000000e-02	2.678472938e-01	-4.464553482e-04	2.388373046e-11
-1.350000000e-02	2.678472945e-01	-4.437420900e-04	1.345429837e-11
-1.360000000e-02	2.678472952e-01	-4.410288319e-04	6.982830200e-12
-1.370000000e-02	2.678472958e-01	-4.383155739e-04	1.478279891e-11
-1.380000000e-02	2.678472963e-01	-4.356023159e-04	1.736981198e-11
-1.390000000e-02	2.678472967e-01	-4.328890580e-04	1.483923213e-11
-1.400000000e-02	2.678472970e-01	-4.301758002e-04	1.401060652e-11
-1.410000000e-02	2.678472973e-01	-4.274625425e-04	1.302311030e-11
-1.420000000e-02	2.678472975e-01	-4.247492849e-04	1.252615155e-11
-1.430000000e-02	2.678472976e-01	-4.220360274e-04	1.633780576e-11
-1.440000000e-02	2.678472976e-01	-4.193227699e-04	1.528110633e-11
-1.450000000e-02	2.678472975e-01	-4.166095126e-04	1.369374659e-11
-1.460000000e-02	2.678472973e-01	-4.138962554e-04	1.164471575e-11
-1.470000000e-02	2.678472971e-01	-4.111829983e-04	1.717439696e-11
-1.480000000e-02	2.678472968e-01	-4.084697413e-04	2.191494262e-11
-1.490000000e-02	2.678472964e-01	-4.057564845e-04	1.758055373e-11
-1.500000000e-02	2.678472959e-01	-4.030432277e-04	5.781940578e-12
-1.510000000e-02	2.678472953e-01	-4.003299711e-04	8.796503237e-12
-1.520000000e-02	2.678472947e-01	-3.976167146e-04	2.280621321e-11
-1.530000000e-02	2.678472939e-01	-3.949034583e-04	1.839396363e-11
-1.540000000e-02	2.678472931e-01	-3.921902021e-04	8.799637004e-12
-1.550000000e-02	2.678472922e-01	-3.894769460e-04	7.872251198e-12
-1.560000000e-02	2.678472912e-01	-3.867636901e-04	9.377596293e-12
-1.570000000e-02	2.678472902e-01	-3.840504344e-04	1.221098785e-11
-1.580000000e-02	2.678472890e-01	-3.813371788e-04	9.585464110e-11
-1.590000000e-02	2.678472878e-01	-3.786239234e-04	1.264619894e-11
-1.600000000e-02	2.678472865e-01	-3.759106681e-04	9.304453815e-12
-1.610000000e-02	2.678472851e-01	-3.731974130e-04	1.072773655e-11
-1.620000000e-02	2.678472836e-01	-3.704841581e-04	7.512497641e-12
-1.630000000e-02	2.678472821e-01	-3.677709034e-04	1.840890295e-11
-1.640000000e-02	2.678472804e-01	-3.650576488e-04	1.882689270e-11
-1.650000000e-02	2.678472787e-01	-3.623443944e-04	1.130676580e-11
-1.660000000e-02	2.678472769e-01	-3.596311403e-04	6.673230094e-12
-1.670000000e-02	2.678472750e-01	-3.569178863e-04	1.702489713e-11
-1.680000000e-02	2.678472730e-01	-3.542046325e-04	3.715191984e-11
-1.690000000e-02	2.678472710e-01	-3.514913789e-04	1.792700342e-11
-1.700000000e-02	2.678472689e-01	-3.487781256e-04	2.613065524e-11
-1.710000000e-02	2.678472666e-01	-3.460648724e-04	1.328008365e-11
-1.720000000e-02	2.678472643e-01	-3.433516195e-04	6.951134556e-12
-1.730000000e-02	2.678472620e-01	-3.406383667e-04	6.980396757e-12
-1.740000000e-02	2.678472595e-01	-3.379251142e-04	9.706444239e-12
-1.750000000e-02	2.678472569e-01	-3.352118620e-04	1.620894523e-11
-1.760000000e-02	2.678472543e-01	-3.324986099e-04	1.688356630e-11
-1.770000000e-02	2.678472516e-01	-3.297853581e-04	1.429008353e-11
-1.780000000e-02	2.678472488e-01	-3.270721066e-04	2.120557940e-11
-1.790000000e-02	2.678472459e-01	-3.243588553e-04	1.425568983e-11
-1.800000000e-02	2.678472430e-01	-3.216456042e-04	1.519297953e-11
-1.810000000e-02	2.678472399e-01	-3.189323534e-04	2.888459397e-11
-1.820000000e-02	2.678472368e-01	-3.162191029e-04	3.433606031e-11
-1.830000000e-02	2.678472336e-01	-3.135058526e-04	8.756609698e-12
-1.840000000e-02	2.678472303e-01	-3.107926026e-04	7.378279116e-12
-1.850000000e-02	2.678472269e-01	-3.080793528e-04	1.178038963e-11
-1.860000000e-02	2.678472235e-01	-3.053661033e-04	7.128019785e-12
-1.870000000e-02	2.678472200e-01	-3.026528541e-04	1.052054788e-11
-1.880000000e-02	2.678472163e-01	-2.999396052e-04	1.057933487e-11
-1.890000000e-02	2.678472126e-01	-2.972263566e-04	1.341132854e-11
-1.900000000e-02	2.678472089e-01	-2.945131083e-04	1.162981700e-11
-1.910000000e-02	2.678472050e-01	-2.917998602e-04	1.488365628e-11
-1.920000000e-02	2.678472010e-01	-2.890866125e-04	1.280705830e-11
-1.930000000e-02	2.678471970e-01	-2.863733651e-04	2.146571462e-11
-1.940000000e-02	2.678471929e-01	-2.836601179e-04	8.773774224e-12
-1.950000000e-02	2.678471887e-01	-2.809468711e-04	1.048745453e-11
-1.960000000e-02	2.678471844e-01	-2.782336246e-04	1.744884748e-11
-1.970000000e-02	2.678471801e-01	-2.755203784e-04	3.286397159e-11
-1.980000000e-02	2.678471756e-01	-2.728071326e-04	1.551613840e-11
-1.990000000e-02	2.678471711e-01	-2.700938871e-04	8.836553091e-12
-2.000000000e-02	2.678471665e-01	-2.673806419e-04	2.220004350e-11
-2.010000000e-02	2.678471618e-01	-2.646673970e-04	3.512406194e-11
-2.020000000e-02	2.678471570e-01	-2.619541525e-04	1.205372928e-11
-2.030000000e-02	2.678471522e-01	-2.592409084e-04	1.481666264e-11
-2.040000000e-02	2.678471472e-01	-2.565276645e-04	4.704990197e-11
-2.050000000e-02	2.678471422e-01	-2.538144211e-04	1.666260469e-11
-2.060000000e-02	2.678471371e-01	-2.511011780e-04	1.784666883e-11
-2.070000000e-02	2.678471319e-01	-2.483879352e-04	8.852355545e-12
-2.080000000e-02	2.678471267e-01	-2.456746929e-04	9.496981769e-12
-2.090000000e-02	2.678471213e-01	-2.429614509e-04	1.448639132e-11
-2.100000000e-02	2.678471159e-01	-2.402482092e-04	4.237749605e-11
-2.110000000e-02	2.678471104e-01	-2.375349680e-04	6.316769480e-11
-2.120000000e-02	2.678471048e-01	-2.348217271e-04	1.256677060e-11
-2.130000000e-02	2.678470991e-01	-2.321084866e-04	1.334952574e-11
-2.140000000e-02	2.678470933e-01	-2.293952466e-04	1.108750920e-11
-2.150000000e-02	2.678470875e-01	-2.266820069e-04	5.259687322e-12
-2.160000000e-02	2.678470816e-01	-2.239687676e-04	1.060159541e-11
-2.170000000e-02	2.678470756e-01	-2.212555287e-04	2.295928561e-11
-2.180000000e-02	2.678470695e-01	-2.185422902e-04	5.770419967e-12
-2.190000000e-02	2.678470633e-01	-2.158290521e-04	4.094866693e-11
-2.200000000e-02	2.678470570e-01	-2.131158145e-04	1.488904061e-11
-2.210000000e-02	2.678470507e-01	-2.104025773e-04	2.032306427e-11
-2.220000000e-02	2.678470443e-01	-2.076893405e-04	1.306938146e-11
-2.230000000e-02	2.678470378e-01	-2.049761041e-04	1.066180635e-11
-2.240000000e-02	2.678470312e-01	-2.022628681e-04	1.221511629e-11
-2.250000000e-02	2.678470245e-01	-1.995496326e-04	1.516192717e-11
-2.260000000e-02	2.678470178e-01	-1.968363976e-04	9.223197295e-12
-2.270000000e-02	2.678470109e-01	-1.941231630e-04	1.390826928e-11
-2.280000000e-02	2.678470040e-01	-1.914099288e-04	1.005350185e-10
-2.290000000e-02	2.678469970e-01	-1.886966951e-04	1.865443505e-11
-2.300000000e-02	2.678469899e-01	-1.859834618e-04	4.151536629e-11
-2.310000000e-02	2.678469828e-01	-1.832702290e-04	1.783141478e-11
-2.320000000e-02	2.678469755e-01	-1.805569967e-04	1.202186594e-11
-2.330000000e-02	2.678469682e-01	-1.778437649e-04	1.240915112e-11
-2.340000000e-02	2.678469608e-01	-1.751305335e-04	3.748902948e-12
-2.350000000e-02	2.678469533e-01	-1.724173026e-04	4.089962574e-12
-2.360000000e-02	2.678469457e-01	-1.697040722e-04	2.128121740e-11
-2.370000000e-02	2.678469381e-01	-1.669908422e-04	7.313917797e-12
-2.380000000e-02	2.678469303e-01	-1.642776128e-04	9.822298843e-12
-2.390000000e-02	2.678469225e-01	-1.615643839e-04	1.161602128e-11
-2.400000000e-02	2.678469146e-01	-1.588511554e-04	2.118896960e-11
-2.410000000e-02	2.678469066e-01	-1.561379275e-04	1.004005488e-11
-2.420000000e-02	2.678468986e-01	-1.534247001e-04	1.171791520e-11
-2.430000000e-02	2.678468904e-01	-1.507114731e-04	8.643969440e-12
-2.440000000e-02	2.678468822e-01	-1.479982467e-04	3.615500969e-11
-2.450000000e-02	2.678468739e-01	-1.452850209e-04	2.215522267e-11
-2.460000000e-02	2.678468655e-01	-1.425717955e-04	1.005227352e-10
-2.470000000e-02	2.678468570e-01	-1.398585707e-04	1.195443754e-11
-2.480000000e-02	2.678468484e-01	-1.371453464e-04	1.234857710e-11
-2.490000000e-02	2.678468398e-01	-1.344321226e-04	1.450722451e-11
-2.500000000e-02	2.678468310e-01	-1.317188994e-04	3.018198146e-11
-2.510000000e-02	2.678468222e-01	-1.290056768e-04	3.488969687e-11
-2.520000000e-02	2.678468133e-01	-1.262924547e-04	1.344054310e-11
-2.530000000e-02	2.678468044e-01	-1.235792331e-04	4.920780333e-11
-2.540000000e-02	2.678467953e-01	-1.208660121e-04	5.312529642e-11
-2.550000000e-02	2.678467862e-01	-1.181527917e-04	1.792289478e-11
-2.560000000e-02	2.678467769e-01	-1.154395718e-04	9.911672715e-12
-2.570000000e-02	2.678467676e-01	-1.127263525e-04	1.714314239e-11
-2.580000000e-02	2.678467582e-01	-1.100131338e-04	1.628239585e-11
-2.590000000e-02	2.678467488e-01	-1.072999156e-04	1.153136894e-11
-2.600000000e-02	2.678467392e-01	-1.045866980e-04	7.104526663e-12
-2.610000000e-02	2.678467296e-01	-1.018734811e-04	2.912166239e-11
-2.620000000e-02	2.678467199e-01	-9.916026468e-05	1.156273113e-11
-2.630000000e-02	2.678467101e-01	-9.644704889e-05	7.160973684e-12
-2.640000000e-02	2.678467002e-01	-9.373383370e-05	6.095823939e-12
-2.650000000e-02	2.678466902e-01	-9.102061912e-05	3.074468264e-11
-2.660000000e-02	2.678466802e-01	-8.830740514e-05	1.028864590e-11
-2.670000000e-02	2.678466701e-01	-8.559419178e-05	1.074177518e-11
-2.680000000e-02	2.678466598e-01	-8.288097903e-05	3.558090990e-11
-2.690000000e-02	2.678466495e-01	-8.016776691e-05	1.217353786e-11
-2.700000000e-02	2.678466392e-01	-7.745455541e-05	2.493861930e-11
-2.710000000e-02	2.678466287e-01	-7.474134454e-05	2.484633362e-11
-2.720000000e-02	2.678466182e-01	-7.202813430e-05	3.587080836e-11
-2.730000000e-02	2.678466075e-01	-6.931492470e-05	2.170525430e-11
-2.740000000e-02	2.678465968e-01	-6.660171574e-05	7.176857003e-11
-2.750000000e-02	2.678465860e-01	-6.388850743e-05	2.298242598e-11
-2.760000000e-02	2.678465752e-01	-6.117529977e-05	9.152763773e-12
-2.770000000e-02	2.678465642e-01	-5.846209276e-05	4.756503338e-11
-2.780000000e-02	2.678465532e-01	-5.574888641e-05	2.552109485e-11
-2.790000000e-02	2.678465421e-01	-5.303568073e-05	1.602412606e-11
-2.800000000e-02	2.678465309e-01	-5.032247571e-05	9.744942247e-12
-2.810000000e-02	2.678465196e-01	-4.760927136e-05	2.438333101e-11
-2.820000000e-02	2.678465082e-01	-4.489606769e-05	8.442425342e-12
-2.830000000e-02	2.678464968e-01	-4.218286470e-05	1.470395235e-11
-2.840000000e-02	2.678464852e-01	-3.946966239e-05	1.021475324e-11
-2.850000000e-02	2.678464736e-01	-3.675646076e-05	9.138724137e-12
-2.860000000e-02	2.678464619e-01	-3.404325983e-05	1.103439467e-11
-2.870000000e-02	2.678464502e-01	-3.133005960e-05	1.640872830e-11
-2.880000000e-02	2.678464383e-01	-2.861686007e-05	3.333676348e-11
-2.890000000e-02	2.678464263e-01	-2.590366124e-05	3.083739105e-12
-2.900000000e-02	2.678464143e-01	-2.319046312e-05	2.338381823e-11
-2.910000000e-02	2.678464022e-01	-2.047726571e-05	4.108879552e-11
-2.920000000e-02	2.678463900e-01	-1.776406903e-05	2.198907461e-10
-2.930000000e-02	2.678463778e-01	-1.505087305e-05	1.003999783e-11
-2.940000000e-02	2.678463654e-01	-1.233767781e-05	2.230913891e-11
-2.950000000e-02	2.678463530e-01	-9.624483290e-06	2.569538973e-11
-2.960000000e-02	2.678463404e-01	-6.911289508e-06	9.179507420e-12
-2.970000000e-02	2.678463278e-01	-4.198096464e-06	1.863488396e-11
-2.980000000e-02	2.678463152e-01	-1.484904163e-06	9.699443396e-12
-2.990000000e-02	2.678463024e-01	1.228287392e-06	6.458283669e-12
-3.000000000e-02	2.678462895e-01	3.941478197e-06	5.503488633e-12
