# Im(epsi1)     Re(omega/c)      Im(omega/c)      Eq(det).Opt det CON kz, R=0.5 \mum, mu_c=0.3, Re(epsi1)=3.90solve_det_conkz_vs_kz.py
0.000000000e+00	2.678473458e-01	-8.100347516e-04	1.610872919e-11
-1.000000000e-04	2.678473576e-01	-8.073215152e-04	1.204041046e-11
-2.000000000e-04	2.678473693e-01	-8.046082782e-04	1.085497287e-11
-3.000000000e-04	2.678473809e-01	-8.018950408e-04	9.428165085e-12
-4.000000000e-04	2.678473925e-01	-7.991818029e-04	1.396723623e-11
-5.000000000e-04	2.678474039e-01	-7.964685645e-04	8.472440990e-12
-6.000000000e-04	2.678474153e-01	-7.937553256e-04	8.283935065e-12
-7.000000000e-04	2.678474266e-01	-7.910420863e-04	6.031217742e-12
-8.000000000e-04	2.678474378e-01	-7.883288465e-04	1.179870137e-11
-9.000000000e-04	2.678474490e-01	-7.856156062e-04	3.018290853e-11
-1.000000000e-03	2.678474600e-01	-7.829023655e-04	1.053908085e-11
-1.100000000e-03	2.678474710e-01	-7.801891243e-04	2.129393828e-11
-1.200000000e-03	2.678474819e-01	-7.774758827e-04	1.826755513e-11
-1.300000000e-03	2.678474927e-01	-7.747626406e-04	9.582939185e-12
-1.400000000e-03	2.678475034e-01	-7.720493981e-04	9.433548054e-12
-1.500000000e-03	2.678475141e-01	-7.693361551e-04	5.385756404e-12
-1.600000000e-03	2.678475246e-01	-7.666229117e-04	1.183596533e-11
-1.700000000e-03	2.678475351e-01	-7.639096679e-04	1.685535091e-11
-1.800000000e-03	2.678475455e-01	-7.611964236e-04	3.054918659e-11
-1.900000000e-03	2.678475558e-01	-7.584831789e-04	1.386723047e-11
-2.000000000e-03	2.678475660e-01	-7.557699338e-04	4.557860825e-11
-2.100000000e-03	2.678475762e-01	-7.530566883e-04	4.132207315e-12
-2.200000000e-03	2.678475862e-01	-7.503434424e-04	1.688033642e-11
-2.300000000e-03	2.678475962e-01	-7.476301961e-04	1.104598959e-11
-2.400000000e-03	2.678476061e-01	-7.449169494e-04	5.469664090e-12
-2.500000000e-03	2.678476159e-01	-7.422037022e-04	1.597797106e-11
-2.600000000e-03	2.678476257e-01	-7.394904547e-04	4.643322055e-11
-2.700000000e-03	2.678476353e-01	-7.367772068e-04	2.020721388e-11
-2.800000000e-03	2.678476449e-01	-7.340639585e-04	1.987573569e-11
-2.900000000e-03	2.678476544e-01	-7.313507099e-04	1.312583931e-11
-3.000000000e-03	2.678476638e-01	-7.286374608e-04	7.351783683e-12
-3.100000000e-03	2.678476731e-01	-7.259242114e-04	3.951497646e-11
-3.200000000e-03	2.678476823e-01	-7.232109616e-04	1.940126264e-11
-3.300000000e-03	2.678476915e-01	-7.204977115e-04	9.462930744e-12
-3.400000000e-03	2.678477006e-01	-7.177844610e-04	8.200698007e-12
-3.500000000e-03	2.678477096e-01	-7.150712101e-04	1.300840874e-11
-3.600000000e-03	2.678477185e-01	-7.123579589e-04	7.427989417e-12
-3.700000000e-03	2.678477273e-01	-7.096447074e-04	1.263996733e-11
-3.800000000e-03	2.678477360e-01	-7.069314555e-04	8.249537368e-12
-3.900000000e-03	2.678477447e-01	-7.042182032e-04	7.521638365e-12
-4.000000000e-03	2.678477533e-01	-7.015049507e-04	6.773731924e-12
-4.100000000e-03	2.678477618e-01	-6.987916978e-04	5.450628954e-11
-4.200000000e-03	2.678477702e-01	-6.960784445e-04	1.030933848e-11
-4.300000000e-03	2.678477785e-01	-6.933651910e-04	1.842717050e-11
-4.400000000e-03	2.678477868e-01	-6.906519371e-04	1.925162143e-11
-4.500000000e-03	2.678477950e-01	-6.879386829e-04	1.196482553e-11
-4.600000000e-03	2.678478030e-01	-6.852254284e-04	8.241899432e-12
-4.700000000e-03	2.678478110e-01	-6.825121736e-04	5.991281556e-11
-4.800000000e-03	2.678478190e-01	-6.797989185e-04	2.069932651e-11
-4.900000000e-03	2.678478268e-01	-6.770856632e-04	1.229535263e-11
-5.000000000e-03	2.678478346e-01	-6.743724075e-04	1.372322244e-11
-5.100000000e-03	2.678478422e-01	-6.716591515e-04	1.712354248e-11
-5.200000000e-03	2.678478498e-01	-6.689458952e-04	5.637788773e-12
-5.300000000e-03	2.678478573e-01	-6.662326387e-04	5.253314940e-12
-5.400000000e-03	2.678478648e-01	-6.635193819e-04	1.187269565e-10
-5.500000000e-03	2.678478721e-01	-6.608061248e-04	1.188094414e-11
-5.600000000e-03	2.678478794e-01	-6.580928674e-04	1.452413725e-11
-5.700000000e-03	2.678478865e-01	-6.553796098e-04	1.431135383e-11
-5.800000000e-03	2.678478936e-01	-6.526663520e-04	1.749778171e-11
-5.900000000e-03	2.678479007e-01	-6.499530938e-04	6.742412363e-12
-6.000000000e-03	2.678479076e-01	-6.472398354e-04	2.622693785e-11
-6.100000000e-03	2.678479144e-01	-6.445265768e-04	1.271292490e-11
-6.200000000e-03	2.678479212e-01	-6.418133179e-04	1.971871901e-11
-6.300000000e-03	2.678479279e-01	-6.391000588e-04	6.349282335e-12
-6.400000000e-03	2.678479345e-01	-6.363867995e-04	3.017703305e-11
-6.500000000e-03	2.678479410e-01	-6.336735399e-04	1.734756858e-11
-6.600000000e-03	2.678479475e-01	-6.309602801e-04	9.843453141e-12
-6.700000000e-03	2.678479538e-01	-6.282470201e-04	8.746925259e-12
-6.800000000e-03	2.678479601e-01	-6.255337599e-04	2.866316474e-12
-6.900000000e-03	2.678479663e-01	-6.228204994e-04	5.407905580e-12
-7.000000000e-03	2.678479724e-01	-6.201072388e-04	4.219961607e-11
-7.100000000e-03	2.678479784e-01	-6.173939779e-04	1.358428184e-11
-7.200000000e-03	2.678479843e-01	-6.146807168e-04	6.154491151e-12
-7.300000000e-03	2.678479902e-01	-6.119674556e-04	4.376158071e-12
-7.400000000e-03	2.678479960e-01	-6.092541941e-04	8.290202786e-12
-7.500000000e-03	2.678480017e-01	-6.065409325e-04	1.528635847e-11
-7.600000000e-03	2.678480073e-01	-6.038276706e-04	2.309776622e-11
-7.700000000e-03	2.678480128e-01	-6.011144086e-04	9.619473511e-12
-7.800000000e-03	2.678480183e-01	-5.984011464e-04	1.173352881e-11
-7.900000000e-03	2.678480236e-01	-5.956878841e-04	7.885695434e-12
-8.000000000e-03	2.678480289e-01	-5.929746216e-04	1.267094369e-11
-8.100000000e-03	2.678480341e-01	-5.902613589e-04	2.369599291e-11
-8.200000000e-03	2.678480392e-01	-5.875480960e-04	9.958023712e-12
-8.300000000e-03	2.678480443e-01	-5.848348330e-04	7.141517396e-12
-8.400000000e-03	2.678480492e-01	-5.821215699e-04	1.188915109e-11
-8.500000000e-03	2.678480541e-01	-5.794083066e-04	1.794411606e-11
-8.600000000e-03	2.678480589e-01	-5.766950432e-04	4.982294022e-12
-8.700000000e-03	2.678480636e-01	-5.739817796e-04	2.167096539e-11
-8.800000000e-03	2.678480682e-01	-5.712685159e-04	7.377008834e-12
-8.900000000e-03	2.678480728e-01	-5.685552520e-04	9.822492810e-12
-9.000000000e-03	2.678480772e-01	-5.658419881e-04	1.249793781e-11
-9.100000000e-03	2.678480816e-01	-5.631287240e-04	9.244476593e-12
-9.200000000e-03	2.678480859e-01	-5.604154598e-04	8.607641555e-12
-9.300000000e-03	2.678480901e-01	-5.577021955e-04	1.824427899e-11
-9.400000000e-03	2.678480942e-01	-5.549889310e-04	1.168535281e-11
-9.500000000e-03	2.678480983e-01	-5.522756665e-04	1.668617336e-11
-9.600000000e-03	2.678481022e-01	-5.495624019e-04	7.488222043e-12
-9.700000000e-03	2.678481061e-01	-5.468491371e-04	7.143691307e-12
-9.800000000e-03	2.678481099e-01	-5.441358723e-04	1.653414502e-11
-9.900000000e-03	2.678481136e-01	-5.414226074e-04	1.203443765e-11
-1.000000000e-02	2.678481173e-01	-5.387093424e-04	1.229971537e-11
-1.010000000e-02	2.678481208e-01	-5.359960773e-04	1.823911022e-11
-1.020000000e-02	2.678481243e-01	-5.332828122e-04	1.440738337e-11
-1.030000000e-02	2.678481277e-01	-5.305695470e-04	1.029439254e-11
-1.040000000e-02	2.678481310e-01	-5.278562817e-04	4.062401188e-12
-1.050000000e-02	2.678481342e-01	-5.251430163e-04	1.585882047e-11
-1.060000000e-02	2.678481374e-01	-5.224297509e-04	1.319424864e-11
-1.070000000e-02	2.678481404e-01	-5.197164855e-04	1.154218880e-11
-1.080000000e-02	2.678481434e-01	-5.170032199e-04	1.194863777e-11
-1.090000000e-02	2.678481463e-01	-5.142899544e-04	1.241580866e-11
-1.100000000e-02	2.678481491e-01	-5.115766888e-04	3.509644891e-11
-1.110000000e-02	2.678481518e-01	-5.088634231e-04	1.742077454e-11
-1.120000000e-02	2.678481545e-01	-5.061501575e-04	1.242861857e-11
-1.130000000e-02	2.678481570e-01	-5.034368918e-04	1.351732393e-11
-1.140000000e-02	2.678481595e-01	-5.007236260e-04	7.195742318e-12
-1.150000000e-02	2.678481619e-01	-4.980103603e-04	7.639118325e-12
-1.160000000e-02	2.678481642e-01	-4.952970945e-04	7.109945849e-12
-1.170000000e-02	2.678481665e-01	-4.925838287e-04	1.952418384e-11
-1.180000000e-02	2.678481686e-01	-4.898705629e-04	5.417783912e-11
-1.190000000e-02	2.678481707e-01	-4.871572971e-04	9.054236003e-12
-1.200000000e-02	2.678481727e-01	-4.844440313e-04	1.035496798e-11
-1.210000000e-02	2.678481746e-01	-4.817307655e-04	1.808770211e-11
-1.220000000e-02	2.678481764e-01	-4.790174998e-04	8.294406849e-12
-1.230000000e-02	2.678481781e-01	-4.763042340e-04	9.902187983e-12
-1.240000000e-02	2.678481798e-01	-4.735909682e-04	1.039509737e-11
-1.250000000e-02	2.678481814e-01	-4.708777025e-04	9.368776586e-12
-1.260000000e-02	2.678481829e-01	-4.681644368e-04	7.241506855e-12
-1.270000000e-02	2.678481843e-01	-4.654511711e-04	9.228907833e-12
-1.280000000e-02	2.678481856e-01	-4.627379054e-04	1.017989366e-11
-1.290000000e-02	2.678481868e-01	-4.600246398e-04	9.736299122e-12
-1.300000000e-02	2.678481880e-01	-4.573113743e-04	1.777445323e-11
-1.310000000e-02	2.678481891e-01	-4.545981087e-04	9.770509208e-12
-1.320000000e-02	2.678481901e-01	-4.518848433e-04	1.238919644e-11
-1.330000000e-02	2.678481910e-01	-4.491715778e-04	9.600236694e-12
-1.340000000e-02	2.678481918e-01	-4.464583125e-04	1.485848019e-11
-1.350000000e-02	2.678481926e-01	-4.437450472e-04	1.059676523e-11
-1.360000000e-02	2.678481933e-01	-4.410317819e-04	1.255719705e-11
-1.370000000e-02	2.678481938e-01	-4.383185168e-04	2.993081098e-11
-1.380000000e-02	2.678481943e-01	-4.356052517e-04	3.118291916e-11
-1.390000000e-02	2.678481948e-01	-4.328919866e-04	1.737354217e-11
-1.400000000e-02	2.678481951e-01	-4.301787217e-04	8.109100211e-12
-1.410000000e-02	2.678481954e-01	-4.274654569e-04	8.036144354e-12
-1.420000000e-02	2.678481955e-01	-4.247521921e-04	7.158770567e-12
-1.430000000e-02	2.678481956e-01	-4.220389275e-04	2.471256086e-11
-1.440000000e-02	2.678481956e-01	-4.193256629e-04	2.536200608e-11
-1.450000000e-02	2.678481956e-01	-4.166123984e-04	2.223321647e-11
-1.460000000e-02	2.678481954e-01	-4.138991341e-04	2.334840326e-11
-1.470000000e-02	2.678481952e-01	-4.111858699e-04	1.633505139e-11
-1.480000000e-02	2.678481948e-01	-4.084726057e-04	9.123716819e-12
-1.490000000e-02	2.678481944e-01	-4.057593418e-04	8.986074426e-12
-1.500000000e-02	2.678481939e-01	-4.030460779e-04	1.140093685e-11
-1.510000000e-02	2.678481934e-01	-4.003328141e-04	2.996909597e-11
-1.520000000e-02	2.678481927e-01	-3.976195505e-04	8.072091762e-12
-1.530000000e-02	2.678481920e-01	-3.949062870e-04	1.374610629e-11
-1.540000000e-02	2.678481912e-01	-3.921930237e-04	2.349389557e-11
-1.550000000e-02	2.678481903e-01	-3.894797605e-04	1.791975974e-11
-1.560000000e-02	2.678481893e-01	-3.867664975e-04	1.227591246e-10
-1.570000000e-02	2.678481882e-01	-3.840532346e-04	1.363043046e-11
-1.580000000e-02	2.678481871e-01	-3.813399719e-04	8.242729630e-11
-1.590000000e-02	2.678481859e-01	-3.786267093e-04	4.052670927e-11
-1.600000000e-02	2.678481846e-01	-3.759134469e-04	1.063373726e-11
-1.610000000e-02	2.678481832e-01	-3.732001847e-04	1.153179359e-11
-1.620000000e-02	2.678481817e-01	-3.704869226e-04	1.241042528e-11
-1.630000000e-02	2.678481801e-01	-3.677736608e-04	1.700021018e-11
-1.640000000e-02	2.678481785e-01	-3.650603991e-04	2.739376482e-11
-1.650000000e-02	2.678481768e-01	-3.623471376e-04	1.063378429e-11
-1.660000000e-02	2.678481750e-01	-3.596338763e-04	2.189951944e-11
-1.670000000e-02	2.678481731e-01	-3.569206151e-04	4.464965131e-11
-1.680000000e-02	2.678481711e-01	-3.542073542e-04	6.089549759e-12
-1.690000000e-02	2.678481690e-01	-3.514940935e-04	4.842607634e-12
-1.700000000e-02	2.678481669e-01	-3.487808330e-04	8.285132889e-12
-1.710000000e-02	2.678481647e-01	-3.460675727e-04	8.604228092e-12
-1.720000000e-02	2.678481624e-01	-3.433543126e-04	1.263108589e-11
-1.730000000e-02	2.678481600e-01	-3.406410528e-04	8.443915792e-12
-1.740000000e-02	2.678481576e-01	-3.379277932e-04	8.239413431e-12
-1.750000000e-02	2.678481550e-01	-3.352145338e-04	3.890678405e-11
-1.760000000e-02	2.678481524e-01	-3.325012746e-04	7.164442583e-12
-1.770000000e-02	2.678481497e-01	-3.297880157e-04	1.027700268e-11
-1.780000000e-02	2.678481469e-01	-3.270747570e-04	9.066118569e-12
-1.790000000e-02	2.678481440e-01	-3.243614985e-04	1.628411879e-11
-1.800000000e-02	2.678481410e-01	-3.216482403e-04	2.887264387e-11
-1.810000000e-02	2.678481380e-01	-3.189349824e-04	1.215025026e-11
-1.820000000e-02	2.678481349e-01	-3.162217247e-04	7.499836404e-12
-1.830000000e-02	2.678481317e-01	-3.135084673e-04	1.210684327e-11
-1.840000000e-02	2.678481284e-01	-3.107952101e-04	1.126271774e-11
-1.850000000e-02	2.678481250e-01	-3.080819533e-04	3.607011503e-11
-1.860000000e-02	2.678481216e-01	-3.053686966e-04	6.521215903e-12
-1.870000000e-02	2.678481180e-01	-3.026554403e-04	3.516341454e-11
-1.880000000e-02	2.678481144e-01	-2.999421843e-04	7.225048455e-12
-1.890000000e-02	2.678481107e-01	-2.972289285e-04	1.249037601e-11
-1.900000000e-02	2.678481069e-01	-2.945156730e-04	1.411468330e-11
-1.910000000e-02	2.678481030e-01	-2.918024179e-04	8.068597279e-12
-1.920000000e-02	2.678480991e-01	-2.890891630e-04	2.356389961e-11
-1.930000000e-02	2.678480951e-01	-2.863759084e-04	5.770021107e-12
-1.940000000e-02	2.678480910e-01	-2.836626542e-04	1.315885129e-11
-1.950000000e-02	2.678480868e-01	-2.809494002e-04	8.690694127e-12
-1.960000000e-02	2.678480825e-01	-2.782361466e-04	8.637012143e-12
-1.970000000e-02	2.678480781e-01	-2.755228933e-04	9.970214057e-12
-1.980000000e-02	2.678480737e-01	-2.728096403e-04	8.394393295e-12
-1.990000000e-02	2.678480692e-01	-2.700963876e-04	9.214849516e-12
-2.000000000e-02	2.678480646e-01	-2.673831353e-04	2.320658472e-11
-2.010000000e-02	2.678480599e-01	-2.646698833e-04	7.433866780e-11
-2.020000000e-02	2.678480551e-01	-2.619566317e-04	2.142630292e-11
-2.030000000e-02	2.678480502e-01	-2.592433804e-04	6.430537663e-12
-2.040000000e-02	2.678480453e-01	-2.565301294e-04	2.140761823e-11
-2.050000000e-02	2.678480403e-01	-2.538168788e-04	1.442584651e-11
-2.060000000e-02	2.678480352e-01	-2.511036286e-04	1.486336370e-10
-2.070000000e-02	2.678480300e-01	-2.483903787e-04	1.338053413e-11
-2.080000000e-02	2.678480247e-01	-2.456771292e-04	1.900644769e-11
-2.090000000e-02	2.678480194e-01	-2.429638801e-04	1.452154508e-11
-2.100000000e-02	2.678480139e-01	-2.402506313e-04	8.584682080e-12
-2.110000000e-02	2.678480084e-01	-2.375373829e-04	9.596302206e-12
-2.120000000e-02	2.678480028e-01	-2.348241349e-04	1.047976126e-11
-2.130000000e-02	2.678479972e-01	-2.321108873e-04	3.082580257e-11
-2.140000000e-02	2.678479914e-01	-2.293976401e-04	7.621761206e-12
-2.150000000e-02	2.678479856e-01	-2.266843933e-04	1.099299796e-11
-2.160000000e-02	2.678479796e-01	-2.239711469e-04	3.020741781e-11
-2.170000000e-02	2.678479736e-01	-2.212579008e-04	5.265027636e-12
-2.180000000e-02	2.678479675e-01	-2.185446552e-04	8.846726602e-12
-2.190000000e-02	2.678479614e-01	-2.158314100e-04	2.161200725e-11
-2.200000000e-02	2.678479551e-01	-2.131181652e-04	1.235190212e-11
-2.210000000e-02	2.678479488e-01	-2.104049209e-04	3.891203303e-11
-2.220000000e-02	2.678479423e-01	-2.076916769e-04	1.077203054e-11
-2.230000000e-02	2.678479358e-01	-2.049784334e-04	1.910630389e-11
-2.240000000e-02	2.678479293e-01	-2.022651904e-04	1.408830042e-11
-2.250000000e-02	2.678479226e-01	-1.995519477e-04	2.852132836e-11
-2.260000000e-02	2.678479158e-01	-1.968387055e-04	1.976118131e-11
-2.270000000e-02	2.678479090e-01	-1.941254638e-04	1.572655575e-11
-2.280000000e-02	2.678479021e-01	-1.914122225e-04	2.162163835e-11
-2.290000000e-02	2.678478951e-01	-1.886989816e-04	1.584199850e-11
-2.300000000e-02	2.678478880e-01	-1.859857412e-04	1.036719615e-11
-2.310000000e-02	2.678478808e-01	-1.832725013e-04	2.595384840e-11
-2.320000000e-02	2.678478736e-01	-1.805592618e-04	2.768754735e-11
-2.330000000e-02	2.678478663e-01	-1.778460229e-04	9.218953755e-12
-2.340000000e-02	2.678478589e-01	-1.751327843e-04	4.787397769e-11
-2.350000000e-02	2.678478514e-01	-1.724195463e-04	1.074959017e-11
-2.360000000e-02	2.678478438e-01	-1.697063088e-04	1.764716616e-11
-2.370000000e-02	2.678478361e-01	-1.669930717e-04	6.303867490e-12
-2.380000000e-02	2.678478284e-01	-1.642798351e-04	1.039142296e-11
-2.390000000e-02	2.678478206e-01	-1.615665991e-04	9.349300561e-12
-2.400000000e-02	2.678478127e-01	-1.588533635e-04	6.218478510e-12
-2.410000000e-02	2.678478047e-01	-1.561401284e-04	3.599408821e-11
-2.420000000e-02	2.678477966e-01	-1.534268938e-04	2.770098802e-11
-2.430000000e-02	2.678477885e-01	-1.507136598e-04	1.268394502e-11
-2.440000000e-02	2.678477802e-01	-1.480004263e-04	1.992064797e-11
-2.450000000e-02	2.678477719e-01	-1.452871932e-04	2.043407037e-11
-2.460000000e-02	2.678477635e-01	-1.425739608e-04	3.779783540e-11
-2.470000000e-02	2.678477550e-01	-1.398607288e-04	7.113507544e-12
-2.480000000e-02	2.678477465e-01	-1.371474974e-04	7.255017071e-12
-2.490000000e-02	2.678477378e-01	-1.344342665e-04	2.515952872e-11
-2.500000000e-02	2.678477291e-01	-1.317210361e-04	2.579837913e-11
-2.510000000e-02	2.678477203e-01	-1.290078063e-04	2.207827085e-11
-2.520000000e-02	2.678477114e-01	-1.262945771e-04	9.132579236e-12
-2.530000000e-02	2.678477024e-01	-1.235813484e-04	1.775449336e-11
-2.540000000e-02	2.678476934e-01	-1.208681203e-04	1.472430417e-11
-2.550000000e-02	2.678476842e-01	-1.181548927e-04	1.131155081e-11
-2.560000000e-02	2.678476750e-01	-1.154416657e-04	2.732554260e-11
-2.570000000e-02	2.678476657e-01	-1.127284392e-04	2.092600394e-11
-2.580000000e-02	2.678476563e-01	-1.100152134e-04	8.855171499e-12
-2.590000000e-02	2.678476468e-01	-1.073019881e-04	1.986108533e-11
-2.600000000e-02	2.678476373e-01	-1.045887634e-04	2.025349187e-11
-2.610000000e-02	2.678476277e-01	-1.018755393e-04	3.647421997e-11
-2.620000000e-02	2.678476179e-01	-9.916231577e-05	1.463279980e-11
-2.630000000e-02	2.678476081e-01	-9.644909285e-05	8.975971265e-12
-2.640000000e-02	2.678475983e-01	-9.373587052e-05	1.753292016e-11
-2.650000000e-02	2.678475883e-01	-9.102264880e-05	3.365626571e-11
-2.660000000e-02	2.678475782e-01	-8.830942769e-05	1.151251544e-10
-2.670000000e-02	2.678475681e-01	-8.559620720e-05	1.208243866e-11
-2.680000000e-02	2.678475579e-01	-8.288298732e-05	1.082673331e-11
-2.690000000e-02	2.678475476e-01	-8.016976806e-05	1.980858825e-11
-2.700000000e-02	2.678475372e-01	-7.745654942e-05	3.015445464e-11
-2.710000000e-02	2.678475268e-01	-7.474333142e-05	1.251857789e-11
-2.720000000e-02	2.678475162e-01	-7.203011405e-05	1.091345504e-11
-2.730000000e-02	2.678475056e-01	-6.931689731e-05	6.979977080e-11
-2.740000000e-02	2.678474949e-01	-6.660368122e-05	2.589309773e-11
-2.750000000e-02	2.678474841e-01	-6.389046577e-05	1.948157727e-11
-2.760000000e-02	2.678474732e-01	-6.117725098e-05	1.089088852e-11
-2.770000000e-02	2.678474623e-01	-5.846403684e-05	6.036788364e-12
-2.780000000e-02	2.678474512e-01	-5.575082335e-05	8.347235887e-12
-2.790000000e-02	2.678474401e-01	-5.303761053e-05	2.045605117e-11
-2.800000000e-02	2.678474289e-01	-5.032439838e-05	1.078824474e-11
-2.810000000e-02	2.678474176e-01	-4.761118690e-05	1.356670846e-11
-2.820000000e-02	2.678474063e-01	-4.489797609e-05	3.172462354e-11
-2.830000000e-02	2.678473948e-01	-4.218476596e-05	8.803521948e-12
-2.840000000e-02	2.678473833e-01	-3.947155652e-05	1.945160271e-11
-2.850000000e-02	2.678473717e-01	-3.675834776e-05	2.148526747e-11
-2.860000000e-02	2.678473600e-01	-3.404513970e-05	1.603443891e-11
-2.870000000e-02	2.678473482e-01	-3.133193233e-05	8.413586436e-12
-2.880000000e-02	2.678473364e-01	-2.861872566e-05	1.541578200e-11
-2.890000000e-02	2.678473244e-01	-2.590551970e-05	1.797464656e-11
-2.900000000e-02	2.678473124e-01	-2.319231444e-05	9.802301207e-12
-2.910000000e-02	2.678473003e-01	-2.047910990e-05	6.264433319e-11
-2.920000000e-02	2.678472881e-01	-1.776590607e-05	2.035948861e-11
-2.930000000e-02	2.678472758e-01	-1.505270297e-05	4.250652712e-11
-2.940000000e-02	2.678472635e-01	-1.233950059e-05	2.517087070e-11
-2.950000000e-02	2.678472510e-01	-9.626298941e-06	1.110571514e-11
-2.960000000e-02	2.678472385e-01	-6.913098024e-06	2.292940501e-11
-2.970000000e-02	2.678472259e-01	-4.199897847e-06	1.954126220e-11
-2.980000000e-02	2.678472132e-01	-1.486698410e-06	1.155251154e-11
-2.990000000e-02	2.678472005e-01	1.226500283e-06	9.090415134e-11
-3.000000000e-02	2.678471876e-01	3.939698219e-06	8.995010801e-12
