# Im(epsi1)     Re(omega/c)      Im(omega/c)      Eq(det).Opt det CON kz, R=0.5 \mum, mu_c=0.3, Re(epsi1)=3.90solve_det_conkz_vs_kz.py
0.000000000e+00	2.678645432e-01	-8.101098273e-04	8.261943203e-12
-1.000000000e-04	2.678645550e-01	-8.073964542e-04	6.047164565e-12
-2.000000000e-04	2.678645667e-01	-8.046830806e-04	1.054974774e-11
-3.000000000e-04	2.678645783e-01	-8.019697066e-04	3.021277576e-11
-4.000000000e-04	2.678645899e-01	-7.992563320e-04	9.891258787e-12
-5.000000000e-04	2.678646014e-01	-7.965429570e-04	2.335175844e-11
-6.000000000e-04	2.678646127e-01	-7.938295815e-04	1.563602766e-12
-7.000000000e-04	2.678646241e-01	-7.911162056e-04	1.541280851e-11
-8.000000000e-04	2.678646353e-01	-7.884028291e-04	2.499197484e-11
-9.000000000e-04	2.678646464e-01	-7.856894522e-04	1.726065938e-11
-1.000000000e-03	2.678646575e-01	-7.829760749e-04	6.710174013e-12
-1.100000000e-03	2.678646684e-01	-7.802626971e-04	3.287725854e-11
-1.200000000e-03	2.678646793e-01	-7.775493188e-04	8.838854983e-11
-1.300000000e-03	2.678646901e-01	-7.748359401e-04	1.229186727e-11
-1.400000000e-03	2.678647009e-01	-7.721225609e-04	1.787774568e-11
-1.500000000e-03	2.678647115e-01	-7.694091813e-04	1.717459375e-11
-1.600000000e-03	2.678647221e-01	-7.666958013e-04	1.051902303e-11
-1.700000000e-03	2.678647325e-01	-7.639824209e-04	1.092327699e-11
-1.800000000e-03	2.678647429e-01	-7.612690400e-04	2.236553548e-11
-1.900000000e-03	2.678647532e-01	-7.585556587e-04	1.910914376e-11
-2.000000000e-03	2.678647635e-01	-7.558422770e-04	1.133805546e-12
-2.100000000e-03	2.678647736e-01	-7.531288948e-04	5.742208966e-12
-2.200000000e-03	2.678647837e-01	-7.504155123e-04	1.748639782e-11
-2.300000000e-03	2.678647937e-01	-7.477021293e-04	6.843108505e-12
-2.400000000e-03	2.678648036e-01	-7.449887460e-04	1.466709496e-11
-2.500000000e-03	2.678648134e-01	-7.422753622e-04	8.704093621e-12
-2.600000000e-03	2.678648231e-01	-7.395619781e-04	2.048808185e-11
-2.700000000e-03	2.678648328e-01	-7.368485936e-04	2.828258762e-12
-2.800000000e-03	2.678648423e-01	-7.341352087e-04	2.107551628e-11
-2.900000000e-03	2.678648518e-01	-7.314218234e-04	7.003882979e-12
-3.000000000e-03	2.678648612e-01	-7.287084377e-04	1.595406422e-11
-3.100000000e-03	2.678648706e-01	-7.259950516e-04	3.308282426e-11
-3.200000000e-03	2.678648798e-01	-7.232816652e-04	3.117801773e-11
-3.300000000e-03	2.678648890e-01	-7.205682785e-04	1.065240828e-11
-3.400000000e-03	2.678648980e-01	-7.178548913e-04	1.414784173e-11
-3.500000000e-03	2.678649070e-01	-7.151415038e-04	1.429353638e-11
-3.600000000e-03	2.678649159e-01	-7.124281160e-04	2.321043456e-11
-3.700000000e-03	2.678649248e-01	-7.097147278e-04	5.502093709e-12
-3.800000000e-03	2.678649335e-01	-7.070013393e-04	1.814775964e-11
-3.900000000e-03	2.678649422e-01	-7.042879504e-04	5.554427045e-11
-4.000000000e-03	2.678649508e-01	-7.015745612e-04	4.006534660e-12
-4.100000000e-03	2.678649593e-01	-6.988611717e-04	1.215651846e-11
-4.200000000e-03	2.678649677e-01	-6.961477818e-04	7.848850799e-12
-4.300000000e-03	2.678649760e-01	-6.934343917e-04	3.740569741e-12
-4.400000000e-03	2.678649843e-01	-6.907210012e-04	1.919521308e-11
-4.500000000e-03	2.678649924e-01	-6.880076104e-04	2.399760640e-11
-4.600000000e-03	2.678650005e-01	-6.852942192e-04	3.175750838e-11
-4.700000000e-03	2.678650085e-01	-6.825808278e-04	1.754891567e-11
-4.800000000e-03	2.678650165e-01	-6.798674361e-04	1.538821941e-11
-4.900000000e-03	2.678650243e-01	-6.771540441e-04	1.022223443e-11
-5.000000000e-03	2.678650321e-01	-6.744406518e-04	2.151816837e-11
-5.100000000e-03	2.678650397e-01	-6.717272592e-04	1.051519115e-11
-5.200000000e-03	2.678650473e-01	-6.690138663e-04	9.324198409e-12
-5.300000000e-03	2.678650548e-01	-6.663004731e-04	1.264026908e-12
-5.400000000e-03	2.678650623e-01	-6.635870797e-04	1.616564600e-11
-5.500000000e-03	2.678650696e-01	-6.608736860e-04	3.517421326e-11
-5.600000000e-03	2.678650769e-01	-6.581602920e-04	1.125777955e-11
-5.700000000e-03	2.678650840e-01	-6.554468977e-04	9.998968802e-12
-5.800000000e-03	2.678650911e-01	-6.527335032e-04	1.532524761e-11
-5.900000000e-03	2.678650982e-01	-6.500201085e-04	1.314847027e-11
-6.000000000e-03	2.678651051e-01	-6.473067135e-04	1.165804586e-11
-6.100000000e-03	2.678651119e-01	-6.445933182e-04	7.252604316e-12
-6.200000000e-03	2.678651187e-01	-6.418799227e-04	1.484421930e-11
-6.300000000e-03	2.678651254e-01	-6.391665270e-04	9.424237012e-12
-6.400000000e-03	2.678651320e-01	-6.364531310e-04	1.236176210e-11
-6.500000000e-03	2.678651385e-01	-6.337397348e-04	1.794438162e-11
-6.600000000e-03	2.678651450e-01	-6.310263384e-04	1.037533936e-10
-6.700000000e-03	2.678651513e-01	-6.283129417e-04	3.799664428e-12
-6.800000000e-03	2.678651576e-01	-6.255995449e-04	9.532865709e-12
-6.900000000e-03	2.678651638e-01	-6.228861478e-04	2.315377504e-11
-7.000000000e-03	2.678651699e-01	-6.201727505e-04	8.885859527e-12
-7.100000000e-03	2.678651759e-01	-6.174593530e-04	1.183749561e-11
-7.200000000e-03	2.678651819e-01	-6.147459553e-04	1.469799091e-11
-7.300000000e-03	2.678651877e-01	-6.120325574e-04	1.932544257e-11
-7.400000000e-03	2.678651935e-01	-6.093191593e-04	8.147586765e-12
-7.500000000e-03	2.678651992e-01	-6.066057610e-04	9.723254510e-12
-7.600000000e-03	2.678652048e-01	-6.038923626e-04	2.383466797e-11
-7.700000000e-03	2.678652104e-01	-6.011789640e-04	4.337376346e-12
-7.800000000e-03	2.678652158e-01	-5.984655651e-04	1.874899727e-11
-7.900000000e-03	2.678652212e-01	-5.957521662e-04	1.044304550e-11
-8.000000000e-03	2.678652265e-01	-5.930387670e-04	1.829066087e-11
-8.100000000e-03	2.678652317e-01	-5.903253677e-04	1.151259818e-11
-8.200000000e-03	2.678652368e-01	-5.876119682e-04	8.252539762e-12
-8.300000000e-03	2.678652418e-01	-5.848985686e-04	7.123336411e-12
-8.400000000e-03	2.678652468e-01	-5.821851688e-04	1.871634337e-11
-8.500000000e-03	2.678652516e-01	-5.794717689e-04	4.832211887e-12
-8.600000000e-03	2.678652564e-01	-5.767583688e-04	8.421132624e-12
-8.700000000e-03	2.678652611e-01	-5.740449686e-04	3.617227998e-11
-8.800000000e-03	2.678652658e-01	-5.713315683e-04	6.267349472e-11
-8.900000000e-03	2.678652703e-01	-5.686181678e-04	2.968729179e-12
-9.000000000e-03	2.678652748e-01	-5.659047672e-04	4.126791745e-12
-9.100000000e-03	2.678652791e-01	-5.631913665e-04	3.316282532e-11
-9.200000000e-03	2.678652834e-01	-5.604779656e-04	4.076212127e-12
-9.300000000e-03	2.678652877e-01	-5.577645647e-04	2.582485345e-11
-9.400000000e-03	2.678652918e-01	-5.550511636e-04	2.459354057e-11
-9.500000000e-03	2.678652958e-01	-5.523377625e-04	6.907666620e-12
-9.600000000e-03	2.678652998e-01	-5.496243612e-04	6.655791940e-12
-9.700000000e-03	2.678653037e-01	-5.469109599e-04	1.347184751e-11
-9.800000000e-03	2.678653075e-01	-5.441975584e-04	4.557566856e-12
-9.900000000e-03	2.678653112e-01	-5.414841569e-04	9.700206984e-12
-1.000000000e-02	2.678653148e-01	-5.387707552e-04	1.958956516e-11
-1.010000000e-02	2.678653184e-01	-5.360573535e-04	1.222583481e-11
-1.020000000e-02	2.678653219e-01	-5.333439518e-04	1.274870527e-11
-1.030000000e-02	2.678653253e-01	-5.306305499e-04	6.384991825e-12
-1.040000000e-02	2.678653286e-01	-5.279171480e-04	1.524955928e-11
-1.050000000e-02	2.678653318e-01	-5.252037460e-04	2.602031049e-11
-1.060000000e-02	2.678653349e-01	-5.224903440e-04	3.479787975e-11
-1.070000000e-02	2.678653380e-01	-5.197769419e-04	1.751070266e-11
-1.080000000e-02	2.678653410e-01	-5.170635397e-04	1.448135480e-11
-1.090000000e-02	2.678653439e-01	-5.143501375e-04	1.522566245e-12
-1.100000000e-02	2.678653467e-01	-5.116367353e-04	4.167343114e-10
-1.110000000e-02	2.678653494e-01	-5.089233330e-04	2.904879437e-11
-1.120000000e-02	2.678653520e-01	-5.062099307e-04	1.517113005e-11
-1.130000000e-02	2.678653546e-01	-5.034965284e-04	7.302677504e-12
-1.140000000e-02	2.678653571e-01	-5.007831260e-04	3.499933263e-11
-1.150000000e-02	2.678653595e-01	-4.980697236e-04	8.091798489e-12
-1.160000000e-02	2.678653618e-01	-4.953563212e-04	1.234323233e-11
-1.170000000e-02	2.678653640e-01	-4.926429188e-04	1.378819769e-11
-1.180000000e-02	2.678653662e-01	-4.899295164e-04	1.555175401e-11
-1.190000000e-02	2.678653683e-01	-4.872161140e-04	1.513211262e-11
-1.200000000e-02	2.678653703e-01	-4.845027115e-04	1.493017015e-11
-1.210000000e-02	2.678653722e-01	-4.817893091e-04	1.406722841e-11
-1.220000000e-02	2.678653740e-01	-4.790759067e-04	3.019511642e-11
-1.230000000e-02	2.678653757e-01	-4.763625043e-04	6.529623351e-12
-1.240000000e-02	2.678653774e-01	-4.736491019e-04	1.054065058e-11
-1.250000000e-02	2.678653790e-01	-4.709356995e-04	1.163385822e-11
-1.260000000e-02	2.678653804e-01	-4.682222972e-04	6.229794321e-12
-1.270000000e-02	2.678653819e-01	-4.655088949e-04	3.089978807e-11
-1.280000000e-02	2.678653832e-01	-4.627954926e-04	1.628343822e-12
-1.290000000e-02	2.678653844e-01	-4.600820904e-04	5.960918447e-12
-1.300000000e-02	2.678653856e-01	-4.573686881e-04	3.073661036e-11
-1.310000000e-02	2.678653867e-01	-4.546552860e-04	2.155501309e-11
-1.320000000e-02	2.678653877e-01	-4.519418839e-04	3.350622678e-12
-1.330000000e-02	2.678653886e-01	-4.492284818e-04	1.860221574e-11
-1.340000000e-02	2.678653894e-01	-4.465150798e-04	7.052569924e-12
-1.350000000e-02	2.678653902e-01	-4.438016779e-04	3.584154214e-12
-1.360000000e-02	2.678653908e-01	-4.410882760e-04	2.410348195e-11
-1.370000000e-02	2.678653914e-01	-4.383748742e-04	1.594599604e-11
-1.380000000e-02	2.678653919e-01	-4.356614725e-04	1.387075693e-11
-1.390000000e-02	2.678653924e-01	-4.329480708e-04	9.002880181e-12
-1.400000000e-02	2.678653927e-01	-4.302346693e-04	1.563769034e-11
-1.410000000e-02	2.678653930e-01	-4.275212678e-04	1.289893609e-11
-1.420000000e-02	2.678653931e-01	-4.248078664e-04	6.220274571e-12
-1.430000000e-02	2.678653932e-01	-4.220944651e-04	1.684696740e-12
-1.440000000e-02	2.678653932e-01	-4.193810639e-04	1.614050336e-11
-1.450000000e-02	2.678653932e-01	-4.166676629e-04	1.076719196e-11
-1.460000000e-02	2.678653930e-01	-4.139542619e-04	3.411180657e-11
-1.470000000e-02	2.678653928e-01	-4.112408610e-04	6.971305507e-12
-1.480000000e-02	2.678653924e-01	-4.085274603e-04	2.384342901e-12
-1.490000000e-02	2.678653920e-01	-4.058140596e-04	6.113676502e-11
-1.500000000e-02	2.678653916e-01	-4.031006591e-04	7.726513830e-12
-1.510000000e-02	2.678653910e-01	-4.003872587e-04	1.110150418e-11
-1.520000000e-02	2.678653903e-01	-3.976738585e-04	4.417383621e-12
-1.530000000e-02	2.678653896e-01	-3.949604584e-04	1.008933210e-11
-1.540000000e-02	2.678653888e-01	-3.922470584e-04	7.132401014e-12
-1.550000000e-02	2.678653879e-01	-3.895336586e-04	4.563700079e-11
-1.560000000e-02	2.678653869e-01	-3.868202589e-04	1.343982519e-11
-1.570000000e-02	2.678653859e-01	-3.841068594e-04	1.353921373e-11
-1.580000000e-02	2.678653847e-01	-3.813934601e-04	1.321879586e-11
-1.590000000e-02	2.678653835e-01	-3.786800609e-04	1.272456596e-11
-1.600000000e-02	2.678653822e-01	-3.759666618e-04	1.833062808e-11
-1.610000000e-02	2.678653808e-01	-3.732532630e-04	1.680409126e-11
-1.620000000e-02	2.678653793e-01	-3.705398643e-04	1.332938267e-11
-1.630000000e-02	2.678653777e-01	-3.678264658e-04	2.980344263e-11
-1.640000000e-02	2.678653761e-01	-3.651130675e-04	1.539624724e-11
-1.650000000e-02	2.678653744e-01	-3.623996693e-04	1.529328435e-11
-1.660000000e-02	2.678653726e-01	-3.596862714e-04	4.342196700e-11
-1.670000000e-02	2.678653707e-01	-3.569728736e-04	2.680421032e-11
-1.680000000e-02	2.678653687e-01	-3.542594761e-04	7.472079773e-12
-1.690000000e-02	2.678653667e-01	-3.515460787e-04	2.278732147e-11
-1.700000000e-02	2.678653645e-01	-3.488326816e-04	3.389833647e-12
-1.710000000e-02	2.678653623e-01	-3.461192847e-04	1.347177938e-11
-1.720000000e-02	2.678653600e-01	-3.434058880e-04	2.270791634e-11
-1.730000000e-02	2.678653576e-01	-3.406924915e-04	4.079502484e-11
-1.740000000e-02	2.678653552e-01	-3.379790952e-04	5.499018676e-12
-1.750000000e-02	2.678653526e-01	-3.352656992e-04	3.713181824e-12
-1.760000000e-02	2.678653500e-01	-3.325523034e-04	9.236951730e-12
-1.770000000e-02	2.678653473e-01	-3.298389078e-04	4.225767351e-12
-1.780000000e-02	2.678653445e-01	-3.271255125e-04	1.545177056e-11
-1.790000000e-02	2.678653416e-01	-3.244121174e-04	1.008423300e-11
-1.800000000e-02	2.678653387e-01	-3.216987226e-04	1.355775101e-11
-1.810000000e-02	2.678653356e-01	-3.189853280e-04	1.325837834e-11
-1.820000000e-02	2.678653325e-01	-3.162719337e-04	4.802039987e-11
-1.830000000e-02	2.678653293e-01	-3.135585396e-04	6.662335097e-12
-1.840000000e-02	2.678653260e-01	-3.108451458e-04	1.263958296e-11
-1.850000000e-02	2.678653226e-01	-3.081317523e-04	1.953074862e-11
-1.860000000e-02	2.678653192e-01	-3.054183591e-04	2.060583151e-11
-1.870000000e-02	2.678653157e-01	-3.027049661e-04	2.125349109e-11
-1.880000000e-02	2.678653120e-01	-2.999915734e-04	1.104311317e-11
-1.890000000e-02	2.678653083e-01	-2.972781810e-04	6.502870048e-12
-1.900000000e-02	2.678653046e-01	-2.945647889e-04	3.539909650e-12
-1.910000000e-02	2.678653007e-01	-2.918513971e-04	6.865871080e-12
-1.920000000e-02	2.678652968e-01	-2.891380056e-04	4.064249024e-11
-1.930000000e-02	2.678652927e-01	-2.864246144e-04	1.653443561e-11
-1.940000000e-02	2.678652886e-01	-2.837112235e-04	1.333811533e-11
-1.950000000e-02	2.678652844e-01	-2.809978329e-04	2.799300750e-12
-1.960000000e-02	2.678652801e-01	-2.782844427e-04	1.391740859e-11
-1.970000000e-02	2.678652758e-01	-2.755710527e-04	1.146938254e-11
-1.980000000e-02	2.678652713e-01	-2.728576631e-04	3.229367406e-11
-1.990000000e-02	2.678652668e-01	-2.701442738e-04	5.109367514e-11
-2.000000000e-02	2.678652622e-01	-2.674308849e-04	3.482651241e-11
-2.010000000e-02	2.678652575e-01	-2.647174962e-04	2.139648700e-11
-2.020000000e-02	2.678652527e-01	-2.620041080e-04	8.381635232e-12
-2.030000000e-02	2.678652479e-01	-2.592907200e-04	3.560352233e-11
-2.040000000e-02	2.678652430e-01	-2.565773324e-04	3.828979710e-12
-2.050000000e-02	2.678652379e-01	-2.538639452e-04	2.413534615e-11
-2.060000000e-02	2.678652328e-01	-2.511505583e-04	7.964529882e-12
-2.070000000e-02	2.678652277e-01	-2.484371718e-04	5.858908125e-12
-2.080000000e-02	2.678652224e-01	-2.457237857e-04	1.128435541e-11
-2.090000000e-02	2.678652170e-01	-2.430103999e-04	2.051775098e-11
-2.100000000e-02	2.678652116e-01	-2.402970145e-04	1.170591227e-11
-2.110000000e-02	2.678652061e-01	-2.375836295e-04	1.595351778e-11
-2.120000000e-02	2.678652005e-01	-2.348702449e-04	6.973651399e-12
-2.130000000e-02	2.678651948e-01	-2.321568606e-04	2.005916236e-11
-2.140000000e-02	2.678651891e-01	-2.294434768e-04	8.439444137e-12
-2.150000000e-02	2.678651832e-01	-2.267300933e-04	1.222890785e-11
-2.160000000e-02	2.678651773e-01	-2.240167102e-04	1.719077663e-11
-2.170000000e-02	2.678651713e-01	-2.213033276e-04	3.928452954e-12
-2.180000000e-02	2.678651652e-01	-2.185899453e-04	1.309813298e-11
-2.190000000e-02	2.678651590e-01	-2.158765635e-04	2.074360681e-11
-2.200000000e-02	2.678651528e-01	-2.131631821e-04	1.107176299e-11
-2.210000000e-02	2.678651464e-01	-2.104498011e-04	9.689625219e-11
-2.220000000e-02	2.678651400e-01	-2.077364205e-04	1.431303747e-11
-2.230000000e-02	2.678651335e-01	-2.050230404e-04	1.312355216e-11
-2.240000000e-02	2.678651269e-01	-2.023096607e-04	1.001548234e-11
-2.250000000e-02	2.678651203e-01	-1.995962814e-04	5.253165024e-12
-2.260000000e-02	2.678651135e-01	-1.968829026e-04	1.537899523e-11
-2.270000000e-02	2.678651067e-01	-1.941695242e-04	2.915780140e-11
-2.280000000e-02	2.678650998e-01	-1.914561462e-04	5.400191549e-12
-2.290000000e-02	2.678650928e-01	-1.887427688e-04	6.564006324e-11
-2.300000000e-02	2.678650857e-01	-1.860293917e-04	1.593522450e-11
-2.310000000e-02	2.678650785e-01	-1.833160152e-04	3.618557147e-11
-2.320000000e-02	2.678650713e-01	-1.806026391e-04	1.144954748e-11
-2.330000000e-02	2.678650640e-01	-1.778892634e-04	1.369632174e-11
-2.340000000e-02	2.678650565e-01	-1.751758883e-04	1.110949568e-11
-2.350000000e-02	2.678650491e-01	-1.724625136e-04	7.829956784e-11
-2.360000000e-02	2.678650415e-01	-1.697491394e-04	2.048711791e-11
-2.370000000e-02	2.678650338e-01	-1.670357657e-04	2.628994700e-11
-2.380000000e-02	2.678650261e-01	-1.643223925e-04	1.388391216e-11
-2.390000000e-02	2.678650183e-01	-1.616090198e-04	2.940990077e-11
-2.400000000e-02	2.678650104e-01	-1.588956476e-04	1.357096381e-11
-2.410000000e-02	2.678650024e-01	-1.561822759e-04	8.058869426e-11
-2.420000000e-02	2.678649943e-01	-1.534689047e-04	1.367727376e-12
-2.430000000e-02	2.678649862e-01	-1.507555340e-04	4.473744862e-12
-2.440000000e-02	2.678649779e-01	-1.480421638e-04	1.211168505e-11
-2.450000000e-02	2.678649696e-01	-1.453287942e-04	3.027658059e-11
-2.460000000e-02	2.678649612e-01	-1.426154251e-04	7.097212043e-12
-2.470000000e-02	2.678649527e-01	-1.399020565e-04	2.053808967e-12
-2.480000000e-02	2.678649442e-01	-1.371886884e-04	3.308123213e-11
-2.490000000e-02	2.678649355e-01	-1.344753209e-04	1.252940680e-11
-2.500000000e-02	2.678649268e-01	-1.317619539e-04	1.965794616e-11
-2.510000000e-02	2.678649180e-01	-1.290485875e-04	1.029134206e-10
-2.520000000e-02	2.678649091e-01	-1.263352216e-04	1.663309084e-11
-2.530000000e-02	2.678649001e-01	-1.236218563e-04	1.159633322e-11
-2.540000000e-02	2.678648911e-01	-1.209084915e-04	3.510556913e-11
-2.550000000e-02	2.678648819e-01	-1.181951273e-04	1.908594395e-11
-2.560000000e-02	2.678648727e-01	-1.154817636e-04	1.440645665e-11
-2.570000000e-02	2.678648634e-01	-1.127684006e-04	5.495425652e-11
-2.580000000e-02	2.678648540e-01	-1.100550381e-04	1.977986023e-11
-2.590000000e-02	2.678648445e-01	-1.073416761e-04	2.249100543e-11
-2.600000000e-02	2.678648350e-01	-1.046283148e-04	3.574344881e-11
-2.610000000e-02	2.678648254e-01	-1.019149541e-04	2.057902428e-11
-2.620000000e-02	2.678648156e-01	-9.920159390e-05	7.785000185e-12
-2.630000000e-02	2.678648058e-01	-9.648823434e-05	1.606744384e-11
-2.640000000e-02	2.678647960e-01	-9.377487538e-05	5.817858941e-12
-2.650000000e-02	2.678647860e-01	-9.106151702e-05	2.076422038e-11
-2.660000000e-02	2.678647759e-01	-8.834815928e-05	3.138152996e-11
-2.670000000e-02	2.678647658e-01	-8.563480214e-05	5.686461418e-11
-2.680000000e-02	2.678647556e-01	-8.292144562e-05	1.197205827e-11
-2.690000000e-02	2.678647453e-01	-8.020808973e-05	2.714996587e-11
-2.700000000e-02	2.678647349e-01	-7.749473446e-05	1.343597876e-11
-2.710000000e-02	2.678647245e-01	-7.478137981e-05	1.175144632e-11
-2.720000000e-02	2.678647139e-01	-7.206802580e-05	9.806353930e-12
-2.730000000e-02	2.678647033e-01	-6.935467243e-05	1.664978600e-11
-2.740000000e-02	2.678646926e-01	-6.664131970e-05	2.374583133e-11
-2.750000000e-02	2.678646818e-01	-6.392796762e-05	9.563226268e-12
-2.760000000e-02	2.678646709e-01	-6.121461619e-05	6.516602631e-12
-2.770000000e-02	2.678646600e-01	-5.850126541e-05	2.945368730e-11
-2.780000000e-02	2.678646490e-01	-5.578791529e-05	1.276586683e-11
-2.790000000e-02	2.678646378e-01	-5.307456583e-05	8.239176297e-12
-2.800000000e-02	2.678646266e-01	-5.036121704e-05	1.983614218e-11
-2.810000000e-02	2.678646154e-01	-4.764786892e-05	4.302447352e-12
-2.820000000e-02	2.678646040e-01	-4.493452147e-05	3.088751713e-11
-2.830000000e-02	2.678645925e-01	-4.222117471e-05	1.788043482e-11
-2.840000000e-02	2.678645810e-01	-3.950782863e-05	1.547376136e-11
-2.850000000e-02	2.678645694e-01	-3.679448323e-05	1.181447552e-11
-2.860000000e-02	2.678645577e-01	-3.408113853e-05	3.448786182e-11
-2.870000000e-02	2.678645459e-01	-3.136779453e-05	3.348937714e-12
-2.880000000e-02	2.678645341e-01	-2.865445122e-05	2.144110719e-11
-2.890000000e-02	2.678645221e-01	-2.594110862e-05	2.828037979e-12
-2.900000000e-02	2.678645101e-01	-2.322776672e-05	1.910468377e-11
-2.910000000e-02	2.678644980e-01	-2.051442554e-05	1.398787453e-11
-2.920000000e-02	2.678644858e-01	-1.780108508e-05	1.212615963e-11
-2.930000000e-02	2.678644735e-01	-1.508774534e-05	1.419165291e-11
-2.940000000e-02	2.678644612e-01	-1.237440632e-05	1.236628853e-11
-2.950000000e-02	2.678644487e-01	-9.661068035e-06	2.484052170e-11
-2.960000000e-02	2.678644362e-01	-6.947730481e-06	2.041833223e-11
-2.970000000e-02	2.678644236e-01	-4.234393665e-06	7.935371879e-12
-2.980000000e-02	2.678644109e-01	-1.521057591e-06	4.370178496e-12
-2.990000000e-02	2.678643982e-01	1.192277736e-06	4.381289124e-11
-3.000000000e-02	2.678643853e-01	3.905612315e-06	1.548766652e-11
