# Im(epsi1)     Re(omega/c)      Im(omega/c)      Eq(det).Opt det CON kz, R=0.5 \mum, mu_c=0.3, Re(epsi1)=3.90solve_det_conkz_vs_kz.py
0.000000000e+00	2.678463287e-01	-8.100303116e-04	1.906005482e-11
-1.000000000e-04	2.678463405e-01	-8.073170832e-04	6.894079282e-12
-2.000000000e-04	2.678463522e-01	-8.046038544e-04	4.788236300e-12
-3.000000000e-04	2.678463638e-01	-8.018906250e-04	1.066456174e-11
-4.000000000e-04	2.678463754e-01	-7.991773952e-04	1.087826562e-11
-5.000000000e-04	2.678463868e-01	-7.964641649e-04	2.598345771e-11
-6.000000000e-04	2.678463982e-01	-7.937509341e-04	1.340762417e-11
-7.000000000e-04	2.678464095e-01	-7.910377028e-04	1.312078564e-11
-8.000000000e-04	2.678464207e-01	-7.883244711e-04	1.360563087e-11
-9.000000000e-04	2.678464319e-01	-7.856112389e-04	6.214862956e-11
-1.000000000e-03	2.678464429e-01	-7.828980063e-04	1.810040542e-11
-1.100000000e-03	2.678464539e-01	-7.801847732e-04	2.002762801e-11
-1.200000000e-03	2.678464648e-01	-7.774715396e-04	1.550798903e-11
-1.300000000e-03	2.678464756e-01	-7.747583056e-04	5.560542962e-12
-1.400000000e-03	2.678464863e-01	-7.720450712e-04	1.122566807e-11
-1.500000000e-03	2.678464969e-01	-7.693318363e-04	1.741874595e-11
-1.600000000e-03	2.678465075e-01	-7.666186010e-04	9.261611319e-12
-1.700000000e-03	2.678465180e-01	-7.639053652e-04	1.319949200e-11
-1.800000000e-03	2.678465284e-01	-7.611921290e-04	8.963157132e-12
-1.900000000e-03	2.678465387e-01	-7.584788924e-04	1.139822845e-11
-2.000000000e-03	2.678465489e-01	-7.557656554e-04	7.801048085e-12
-2.100000000e-03	2.678465591e-01	-7.530524180e-04	1.447843800e-11
-2.200000000e-03	2.678465691e-01	-7.503391802e-04	1.250775921e-11
-2.300000000e-03	2.678465791e-01	-7.476259419e-04	1.799342725e-11
-2.400000000e-03	2.678465890e-01	-7.449127033e-04	4.286745800e-11
-2.500000000e-03	2.678465988e-01	-7.421994642e-04	1.630062631e-11
-2.600000000e-03	2.678466086e-01	-7.394862248e-04	4.180053587e-12
-2.700000000e-03	2.678466182e-01	-7.367729850e-04	2.078713662e-11
-2.800000000e-03	2.678466278e-01	-7.340597448e-04	9.267891063e-12
-2.900000000e-03	2.678466373e-01	-7.313465042e-04	1.214818743e-11
-3.000000000e-03	2.678466467e-01	-7.286332632e-04	1.250572002e-11
-3.100000000e-03	2.678466560e-01	-7.259200219e-04	1.028008098e-11
-3.200000000e-03	2.678466652e-01	-7.232067802e-04	1.020306921e-11
-3.300000000e-03	2.678466744e-01	-7.204935381e-04	1.270500021e-11
-3.400000000e-03	2.678466835e-01	-7.177802957e-04	8.730254727e-12
-3.500000000e-03	2.678466925e-01	-7.150670529e-04	1.256221288e-11
-3.600000000e-03	2.678467014e-01	-7.123538098e-04	7.469608280e-11
-3.700000000e-03	2.678467102e-01	-7.096405663e-04	2.716322893e-11
-3.800000000e-03	2.678467189e-01	-7.069273225e-04	1.210968188e-11
-3.900000000e-03	2.678467276e-01	-7.042140783e-04	8.526669083e-12
-4.000000000e-03	2.678467362e-01	-7.015008338e-04	9.912640039e-12
-4.100000000e-03	2.678467447e-01	-6.987875890e-04	6.353855272e-12
-4.200000000e-03	2.678467531e-01	-6.960743439e-04	3.726952049e-11
-4.300000000e-03	2.678467614e-01	-6.933610984e-04	1.305158152e-11
-4.400000000e-03	2.678467697e-01	-6.906478526e-04	1.517160173e-11
-4.500000000e-03	2.678467778e-01	-6.879346065e-04	1.619649043e-10
-4.600000000e-03	2.678467859e-01	-6.852213601e-04	1.014110441e-11
-4.700000000e-03	2.678467939e-01	-6.825081134e-04	9.913711139e-12
-4.800000000e-03	2.678468019e-01	-6.797948664e-04	4.686080696e-12
-4.900000000e-03	2.678468097e-01	-6.770816191e-04	1.135427810e-11
-5.000000000e-03	2.678468175e-01	-6.743683714e-04	2.306926656e-11
-5.100000000e-03	2.678468251e-01	-6.716551236e-04	1.089105108e-11
-5.200000000e-03	2.678468327e-01	-6.689418754e-04	1.042171942e-11
-5.300000000e-03	2.678468402e-01	-6.662286269e-04	3.328581632e-11
-5.400000000e-03	2.678468477e-01	-6.635153782e-04	2.880233149e-11
-5.500000000e-03	2.678468550e-01	-6.608021292e-04	8.296175667e-12
-5.600000000e-03	2.678468623e-01	-6.580888799e-04	9.205535133e-11
-5.700000000e-03	2.678468694e-01	-6.553756304e-04	3.042011267e-11
-5.800000000e-03	2.678468765e-01	-6.526623806e-04	7.150210640e-12
-5.900000000e-03	2.678468835e-01	-6.499491305e-04	8.539294222e-12
-6.000000000e-03	2.678468905e-01	-6.472358802e-04	6.567633677e-12
-6.100000000e-03	2.678468973e-01	-6.445226297e-04	1.663569482e-11
-6.200000000e-03	2.678469041e-01	-6.418093789e-04	1.404501827e-11
-6.300000000e-03	2.678469108e-01	-6.390961279e-04	2.534283982e-11
-6.400000000e-03	2.678469174e-01	-6.363828766e-04	9.512655290e-12
-6.500000000e-03	2.678469239e-01	-6.336696251e-04	1.123775730e-11
-6.600000000e-03	2.678469303e-01	-6.309563734e-04	7.902973703e-12
-6.700000000e-03	2.678469367e-01	-6.282431214e-04	1.628851451e-11
-6.800000000e-03	2.678469430e-01	-6.255298693e-04	1.716064241e-11
-6.900000000e-03	2.678469492e-01	-6.228166169e-04	8.541141452e-12
-7.000000000e-03	2.678469553e-01	-6.201033643e-04	1.350932187e-11
-7.100000000e-03	2.678469613e-01	-6.173901115e-04	9.831426800e-12
-7.200000000e-03	2.678469672e-01	-6.146768586e-04	5.157547397e-12
-7.300000000e-03	2.678469731e-01	-6.119636054e-04	1.905041991e-11
-7.400000000e-03	2.678469789e-01	-6.092503520e-04	3.393604675e-11
-7.500000000e-03	2.678469846e-01	-6.065370984e-04	9.018314228e-12
-7.600000000e-03	2.678469902e-01	-6.038238447e-04	1.708502639e-11
-7.700000000e-03	2.678469957e-01	-6.011105908e-04	1.331994700e-11
-7.800000000e-03	2.678470012e-01	-5.983973367e-04	1.562810120e-11
-7.900000000e-03	2.678470065e-01	-5.956840824e-04	1.767284237e-11
-8.000000000e-03	2.678470118e-01	-5.929708279e-04	2.806008911e-10
-8.100000000e-03	2.678470170e-01	-5.902575733e-04	1.022524098e-11
-8.200000000e-03	2.678470221e-01	-5.875443186e-04	1.547214208e-11
-8.300000000e-03	2.678470272e-01	-5.848310637e-04	8.072708892e-11
-8.400000000e-03	2.678470321e-01	-5.821178086e-04	1.087920586e-11
-8.500000000e-03	2.678470370e-01	-5.794045534e-04	2.742056808e-11
-8.600000000e-03	2.678470418e-01	-5.766912980e-04	1.059719946e-11
-8.700000000e-03	2.678470465e-01	-5.739780425e-04	1.238644949e-11
-8.800000000e-03	2.678470511e-01	-5.712647869e-04	8.081204445e-12
-8.900000000e-03	2.678470557e-01	-5.685515311e-04	9.820716739e-12
-9.000000000e-03	2.678470601e-01	-5.658382752e-04	6.779732693e-11
-9.100000000e-03	2.678470645e-01	-5.631250192e-04	1.891555710e-11
-9.200000000e-03	2.678470688e-01	-5.604117631e-04	1.977954263e-11
-9.300000000e-03	2.678470730e-01	-5.576985069e-04	1.328894554e-11
-9.400000000e-03	2.678470771e-01	-5.549852505e-04	1.552824380e-11
-9.500000000e-03	2.678470812e-01	-5.522719941e-04	4.565368808e-11
-9.600000000e-03	2.678470851e-01	-5.495587375e-04	1.859515392e-11
-9.700000000e-03	2.678470890e-01	-5.468454809e-04	1.331901038e-11
-9.800000000e-03	2.678470928e-01	-5.441322241e-04	2.253264078e-11
-9.900000000e-03	2.678470965e-01	-5.414189673e-04	1.042717647e-11
-1.000000000e-02	2.678471002e-01	-5.387057104e-04	8.095218149e-12
-1.010000000e-02	2.678471037e-01	-5.359924534e-04	2.241382462e-11
-1.020000000e-02	2.678471072e-01	-5.332791963e-04	4.761703353e-11
-1.030000000e-02	2.678471106e-01	-5.305659392e-04	7.595474071e-12
-1.040000000e-02	2.678471139e-01	-5.278526820e-04	1.234609112e-11
-1.050000000e-02	2.678471171e-01	-5.251394247e-04	1.173364106e-11
-1.060000000e-02	2.678471202e-01	-5.224261674e-04	1.342246324e-11
-1.070000000e-02	2.678471233e-01	-5.197129100e-04	1.226957037e-11
-1.080000000e-02	2.678471263e-01	-5.169996526e-04	8.194754164e-12
-1.090000000e-02	2.678471292e-01	-5.142863951e-04	9.637480264e-12
-1.100000000e-02	2.678471320e-01	-5.115731376e-04	1.604908856e-11
-1.110000000e-02	2.678471347e-01	-5.088598800e-04	1.193385362e-11
-1.120000000e-02	2.678471374e-01	-5.061466224e-04	2.411367908e-11
-1.130000000e-02	2.678471399e-01	-5.034333648e-04	1.777331638e-11
-1.140000000e-02	2.678471424e-01	-5.007201071e-04	1.023694668e-11
-1.150000000e-02	2.678471448e-01	-4.980068495e-04	8.022932782e-12
-1.160000000e-02	2.678471471e-01	-4.952935918e-04	5.845234832e-12
-1.170000000e-02	2.678471494e-01	-4.925803341e-04	8.568326900e-12
-1.180000000e-02	2.678471515e-01	-4.898670763e-04	9.044440428e-12
-1.190000000e-02	2.678471536e-01	-4.871538186e-04	9.291057981e-12
-1.200000000e-02	2.678471556e-01	-4.844405609e-04	1.020782563e-10
-1.210000000e-02	2.678471575e-01	-4.817273032e-04	7.549636178e-12
-1.220000000e-02	2.678471593e-01	-4.790140455e-04	1.005419627e-11
-1.230000000e-02	2.678471610e-01	-4.763007878e-04	1.782697753e-11
-1.240000000e-02	2.678471627e-01	-4.735875301e-04	8.551377741e-11
-1.250000000e-02	2.678471643e-01	-4.708742725e-04	1.754682505e-11
-1.260000000e-02	2.678471657e-01	-4.681610148e-04	6.242755555e-12
-1.270000000e-02	2.678471672e-01	-4.654477572e-04	2.330717197e-11
-1.280000000e-02	2.678471685e-01	-4.627344997e-04	1.859870134e-11
-1.290000000e-02	2.678471697e-01	-4.600212421e-04	8.598828233e-12
-1.300000000e-02	2.678471709e-01	-4.573079846e-04	2.572972846e-11
-1.310000000e-02	2.678471720e-01	-4.545947272e-04	2.330081041e-11
-1.320000000e-02	2.678471730e-01	-4.518814698e-04	4.400656768e-11
-1.330000000e-02	2.678471739e-01	-4.491682125e-04	9.547646011e-12
-1.340000000e-02	2.678471747e-01	-4.464549552e-04	1.412247944e-11
-1.350000000e-02	2.678471755e-01	-4.437416979e-04	3.154680648e-11
-1.360000000e-02	2.678471761e-01	-4.410284408e-04	1.236556037e-11
-1.370000000e-02	2.678471767e-01	-4.383151837e-04	1.074243894e-11
-1.380000000e-02	2.678471772e-01	-4.356019267e-04	1.802530408e-11
-1.390000000e-02	2.678471776e-01	-4.328886697e-04	8.630589813e-12
-1.400000000e-02	2.678471780e-01	-4.301754129e-04	1.157196847e-11
-1.410000000e-02	2.678471782e-01	-4.274621561e-04	1.340412448e-11
-1.420000000e-02	2.678471784e-01	-4.247488995e-04	1.157293974e-11
-1.430000000e-02	2.678471785e-01	-4.220356429e-04	9.526498429e-12
-1.440000000e-02	2.678471785e-01	-4.193223864e-04	3.795759792e-11
-1.450000000e-02	2.678471784e-01	-4.166091300e-04	8.371420769e-12
-1.460000000e-02	2.678471783e-01	-4.138958738e-04	2.969615182e-11
-1.470000000e-02	2.678471780e-01	-4.111826176e-04	1.203846147e-11
-1.480000000e-02	2.678471777e-01	-4.084693616e-04	1.342491078e-11
-1.490000000e-02	2.678471773e-01	-4.057561057e-04	1.753549567e-11
-1.500000000e-02	2.678471768e-01	-4.030428499e-04	4.252760748e-11
-1.510000000e-02	2.678471763e-01	-4.003295942e-04	1.240079199e-11
-1.520000000e-02	2.678471756e-01	-3.976163387e-04	6.770202500e-12
-1.530000000e-02	2.678471749e-01	-3.949030833e-04	1.247377042e-11
-1.540000000e-02	2.678471741e-01	-3.921898280e-04	1.377330847e-11
-1.550000000e-02	2.678471732e-01	-3.894765729e-04	1.552527712e-11
-1.560000000e-02	2.678471722e-01	-3.867633180e-04	7.775773476e-12
-1.570000000e-02	2.678471711e-01	-3.840500632e-04	1.989866919e-11
-1.580000000e-02	2.678471700e-01	-3.813368085e-04	1.243123745e-11
-1.590000000e-02	2.678471687e-01	-3.786235540e-04	1.750305884e-11
-1.600000000e-02	2.678471674e-01	-3.759102997e-04	2.411184646e-11
-1.610000000e-02	2.678471660e-01	-3.731970456e-04	2.151705050e-11
-1.620000000e-02	2.678471646e-01	-3.704837916e-04	4.076999051e-11
-1.630000000e-02	2.678471630e-01	-3.677705378e-04	1.648282596e-11
-1.640000000e-02	2.678471614e-01	-3.650572842e-04	7.540905252e-12
-1.650000000e-02	2.678471596e-01	-3.623440308e-04	1.212925461e-11
-1.660000000e-02	2.678471578e-01	-3.596307775e-04	9.945257987e-12
-1.670000000e-02	2.678471560e-01	-3.569175245e-04	8.113000625e-12
-1.680000000e-02	2.678471540e-01	-3.542042717e-04	6.640342162e-12
-1.690000000e-02	2.678471519e-01	-3.514910190e-04	8.371635440e-12
-1.700000000e-02	2.678471498e-01	-3.487777666e-04	1.666230458e-11
-1.710000000e-02	2.678471476e-01	-3.460645144e-04	4.772768993e-12
-1.720000000e-02	2.678471453e-01	-3.433512624e-04	2.658117976e-11
-1.730000000e-02	2.678471429e-01	-3.406380106e-04	1.851038500e-11
-1.740000000e-02	2.678471404e-01	-3.379247591e-04	1.163471694e-11
-1.750000000e-02	2.678471379e-01	-3.352115078e-04	5.123992419e-11
-1.760000000e-02	2.678471353e-01	-3.324982567e-04	1.267445138e-11
-1.770000000e-02	2.678471325e-01	-3.297850058e-04	1.729986580e-11
-1.780000000e-02	2.678471298e-01	-3.270717552e-04	6.761205578e-12
-1.790000000e-02	2.678471269e-01	-3.243585048e-04	1.290341694e-11
-1.800000000e-02	2.678471239e-01	-3.216452547e-04	9.123129242e-12
-1.810000000e-02	2.678471209e-01	-3.189320049e-04	1.250805975e-11
-1.820000000e-02	2.678471178e-01	-3.162187553e-04	8.214117301e-12
-1.830000000e-02	2.678471145e-01	-3.135055059e-04	1.577633504e-11
-1.840000000e-02	2.678471113e-01	-3.107922568e-04	2.218261561e-11
-1.850000000e-02	2.678471079e-01	-3.080790080e-04	4.887432645e-11
-1.860000000e-02	2.678471044e-01	-3.053657595e-04	1.169490884e-11
-1.870000000e-02	2.678471009e-01	-3.026525113e-04	6.767350861e-11
-1.880000000e-02	2.678470973e-01	-2.999392633e-04	1.202020962e-11
-1.890000000e-02	2.678470936e-01	-2.972260156e-04	2.555091781e-11
-1.900000000e-02	2.678470898e-01	-2.945127682e-04	1.683610808e-11
-1.910000000e-02	2.678470859e-01	-2.917995211e-04	1.192143327e-11
-1.920000000e-02	2.678470820e-01	-2.890862744e-04	6.147268901e-12
-1.930000000e-02	2.678470780e-01	-2.863730279e-04	9.874190776e-12
-1.940000000e-02	2.678470738e-01	-2.836597817e-04	1.836819482e-12
-1.950000000e-02	2.678470696e-01	-2.809465358e-04	4.310815895e-12
-1.960000000e-02	2.678470654e-01	-2.782332903e-04	1.967139559e-11
-1.970000000e-02	2.678470610e-01	-2.755200450e-04	1.673047201e-11
-1.980000000e-02	2.678470566e-01	-2.728068001e-04	5.161937292e-11
-1.990000000e-02	2.678470520e-01	-2.700935556e-04	1.635709932e-11
-2.000000000e-02	2.678470474e-01	-2.673803113e-04	1.156614642e-11
-2.010000000e-02	2.678470427e-01	-2.646670674e-04	3.523021390e-12
-2.020000000e-02	2.678470380e-01	-2.619538238e-04	1.620378779e-11
-2.030000000e-02	2.678470331e-01	-2.592405806e-04	1.142984923e-11
-2.040000000e-02	2.678470282e-01	-2.565273378e-04	1.297002226e-11
-2.050000000e-02	2.678470232e-01	-2.538140952e-04	2.085996464e-11
-2.060000000e-02	2.678470181e-01	-2.511008531e-04	1.761426468e-11
-2.070000000e-02	2.678470129e-01	-2.483876113e-04	2.426756531e-11
-2.080000000e-02	2.678470076e-01	-2.456743699e-04	5.053063977e-12
-2.090000000e-02	2.678470023e-01	-2.429611288e-04	1.237799581e-11
-2.100000000e-02	2.678469968e-01	-2.402478881e-04	8.144154489e-12
-2.110000000e-02	2.678469913e-01	-2.375346478e-04	1.518691710e-11
-2.120000000e-02	2.678469857e-01	-2.348214079e-04	9.283580158e-12
-2.130000000e-02	2.678469800e-01	-2.321081684e-04	2.262819942e-11
-2.140000000e-02	2.678469743e-01	-2.293949292e-04	8.508446291e-12
-2.150000000e-02	2.678469684e-01	-2.266816905e-04	1.178899056e-11
-2.160000000e-02	2.678469625e-01	-2.239684521e-04	1.816528615e-11
-2.170000000e-02	2.678469565e-01	-2.212552142e-04	3.894927273e-11
-2.180000000e-02	2.678469504e-01	-2.185419767e-04	1.490118491e-11
-2.190000000e-02	2.678469442e-01	-2.158287395e-04	1.750361237e-11
-2.200000000e-02	2.678469380e-01	-2.131155028e-04	8.147423491e-11
-2.210000000e-02	2.678469316e-01	-2.104022666e-04	5.026022907e-12
-2.220000000e-02	2.678469252e-01	-2.076890307e-04	1.186801602e-11
-2.230000000e-02	2.678469187e-01	-2.049757953e-04	1.311832697e-11
-2.240000000e-02	2.678469121e-01	-2.022625603e-04	1.230498659e-11
-2.250000000e-02	2.678469055e-01	-1.995493257e-04	1.499853222e-11
-2.260000000e-02	2.678468987e-01	-1.968360916e-04	5.599153923e-12
-2.270000000e-02	2.678468919e-01	-1.941228579e-04	8.017982193e-12
-2.280000000e-02	2.678468850e-01	-1.914096247e-04	2.092425213e-11
-2.290000000e-02	2.678468780e-01	-1.886963919e-04	1.460466161e-11
-2.300000000e-02	2.678468709e-01	-1.859831596e-04	3.744209498e-12
-2.310000000e-02	2.678468637e-01	-1.832699278e-04	7.171333397e-12
-2.320000000e-02	2.678468565e-01	-1.805566964e-04	6.808658545e-12
-2.330000000e-02	2.678468492e-01	-1.778434655e-04	1.302731181e-11
-2.340000000e-02	2.678468417e-01	-1.751302351e-04	1.693592866e-11
-2.350000000e-02	2.678468343e-01	-1.724170051e-04	1.058018291e-11
-2.360000000e-02	2.678468267e-01	-1.697037757e-04	9.012693104e-12
-2.370000000e-02	2.678468190e-01	-1.669905467e-04	6.122364378e-12
-2.380000000e-02	2.678468113e-01	-1.642773182e-04	4.728067736e-12
-2.390000000e-02	2.678468035e-01	-1.615640902e-04	2.043137730e-11
-2.400000000e-02	2.678467956e-01	-1.588508627e-04	1.290153500e-11
-2.410000000e-02	2.678467876e-01	-1.561376357e-04	1.462547202e-11
-2.420000000e-02	2.678467795e-01	-1.534244092e-04	1.513433160e-11
-2.430000000e-02	2.678467713e-01	-1.507111832e-04	1.450416575e-11
-2.440000000e-02	2.678467631e-01	-1.479979578e-04	1.249116016e-11
-2.450000000e-02	2.678467548e-01	-1.452847329e-04	1.218538049e-11
-2.460000000e-02	2.678467464e-01	-1.425715085e-04	8.783606871e-12
-2.470000000e-02	2.678467379e-01	-1.398582846e-04	2.174553411e-11
-2.480000000e-02	2.678467294e-01	-1.371450612e-04	4.531480320e-12
-2.490000000e-02	2.678467207e-01	-1.344318384e-04	1.698712358e-11
-2.500000000e-02	2.678467120e-01	-1.317186162e-04	2.161350142e-11
-2.510000000e-02	2.678467032e-01	-1.290053944e-04	1.091103833e-11
-2.520000000e-02	2.678466943e-01	-1.262921733e-04	4.528342642e-11
-2.530000000e-02	2.678466853e-01	-1.235789527e-04	3.016475041e-11
-2.540000000e-02	2.678466762e-01	-1.208657326e-04	1.280202023e-11
-2.550000000e-02	2.678466671e-01	-1.181525131e-04	2.914836833e-11
-2.560000000e-02	2.678466579e-01	-1.154392942e-04	4.101761513e-12
-2.570000000e-02	2.678466486e-01	-1.127260758e-04	7.287384871e-12
-2.580000000e-02	2.678466392e-01	-1.100128580e-04	1.105416652e-11
-2.590000000e-02	2.678466297e-01	-1.072996408e-04	1.877074092e-11
-2.600000000e-02	2.678466202e-01	-1.045864242e-04	1.427945589e-11
-2.610000000e-02	2.678466105e-01	-1.018732082e-04	1.194595197e-11
-2.620000000e-02	2.678466008e-01	-9.915999275e-05	1.546962412e-11
-2.630000000e-02	2.678465910e-01	-9.644677791e-05	2.642981030e-11
-2.640000000e-02	2.678465811e-01	-9.373356367e-05	1.023770537e-11
-2.650000000e-02	2.678465712e-01	-9.102035003e-05	1.364837747e-11
-2.660000000e-02	2.678465611e-01	-8.830713700e-05	1.295017316e-11
-2.670000000e-02	2.678465510e-01	-8.559392458e-05	1.051736751e-11
-2.680000000e-02	2.678465408e-01	-8.288071278e-05	1.395872621e-11
-2.690000000e-02	2.678465305e-01	-8.016750160e-05	7.279780420e-12
-2.700000000e-02	2.678465201e-01	-7.745429105e-05	7.001401530e-12
-2.710000000e-02	2.678465096e-01	-7.474108112e-05	1.398900797e-11
-2.720000000e-02	2.678464991e-01	-7.202787184e-05	1.748898393e-10
-2.730000000e-02	2.678464885e-01	-6.931466318e-05	1.335471505e-11
-2.740000000e-02	2.678464778e-01	-6.660145517e-05	1.899189889e-11
-2.750000000e-02	2.678464670e-01	-6.388824780e-05	3.939830624e-11
-2.760000000e-02	2.678464561e-01	-6.117504108e-05	3.437498049e-11
-2.770000000e-02	2.678464452e-01	-5.846183502e-05	8.358764580e-12
-2.780000000e-02	2.678464341e-01	-5.574862962e-05	1.463266296e-11
-2.790000000e-02	2.678464230e-01	-5.303542488e-05	2.248535752e-11
-2.800000000e-02	2.678464118e-01	-5.032222081e-05	1.084278866e-11
-2.810000000e-02	2.678464005e-01	-4.760901741e-05	1.395339260e-11
-2.820000000e-02	2.678463892e-01	-4.489581468e-05	9.014466514e-11
-2.830000000e-02	2.678463777e-01	-4.218261263e-05	2.519459727e-11
-2.840000000e-02	2.678463662e-01	-3.946941127e-05	1.370233011e-11
-2.850000000e-02	2.678463546e-01	-3.675621059e-05	7.753623161e-12
-2.860000000e-02	2.678463429e-01	-3.404301061e-05	2.507352661e-11
-2.870000000e-02	2.678463311e-01	-3.132981132e-05	8.576299147e-12
-2.880000000e-02	2.678463192e-01	-2.861661273e-05	4.344453733e-11
-2.890000000e-02	2.678463073e-01	-2.590341485e-05	4.193671399e-11
-2.900000000e-02	2.678462953e-01	-2.319021767e-05	1.186630829e-11
-2.910000000e-02	2.678462832e-01	-2.047702121e-05	1.199010662e-11
-2.920000000e-02	2.678462710e-01	-1.776382547e-05	9.989875202e-12
-2.930000000e-02	2.678462587e-01	-1.505063044e-05	8.458405481e-12
-2.940000000e-02	2.678462463e-01	-1.233743614e-05	4.475813100e-11
-2.950000000e-02	2.678462339e-01	-9.624242577e-06	1.754883289e-11
-2.960000000e-02	2.678462214e-01	-6.911049741e-06	1.626870354e-11
-2.970000000e-02	2.678462088e-01	-4.197857641e-06	8.340302938e-11
-2.980000000e-02	2.678461961e-01	-1.484666289e-06	1.860455264e-11
-2.990000000e-02	2.678461833e-01	1.228524321e-06	7.966938925e-12
-3.000000000e-02	2.678461705e-01	3.941714180e-06	1.278807939e-11
