# Im(epsi1)     Re(omega/c)      Im(omega/c)      Eq(det).Opt det CON kz, R=0.5 \mum, mu_c=0.3, Re(epsi1)=3.90solve_det_conkz_vs_kz.py
0.000000000e+00	2.678550367e-01	-8.100683256e-04	8.942391288e-12
-1.000000000e-04	2.678550485e-01	-8.073550281e-04	9.393217299e-12
-2.000000000e-04	2.678550602e-01	-8.046417301e-04	4.599823907e-11
-3.000000000e-04	2.678550718e-01	-8.019284315e-04	8.748944054e-12
-4.000000000e-04	2.678550834e-01	-7.992151325e-04	1.910827664e-11
-5.000000000e-04	2.678550948e-01	-7.965018330e-04	2.765779937e-11
-6.000000000e-04	2.678551062e-01	-7.937885331e-04	2.084883666e-11
-7.000000000e-04	2.678551175e-01	-7.910752326e-04	7.933890972e-12
-8.000000000e-04	2.678551287e-01	-7.883619317e-04	7.785785308e-11
-9.000000000e-04	2.678551399e-01	-7.856486304e-04	9.064083157e-12
-1.000000000e-03	2.678551509e-01	-7.829353285e-04	7.232728299e-12
-1.100000000e-03	2.678551619e-01	-7.802220263e-04	8.205424697e-12
-1.200000000e-03	2.678551728e-01	-7.775087235e-04	1.789590673e-11
-1.300000000e-03	2.678551836e-01	-7.747954203e-04	1.148389474e-11
-1.400000000e-03	2.678551943e-01	-7.720821167e-04	1.046852786e-11
-1.500000000e-03	2.678552050e-01	-7.693688127e-04	1.370874332e-11
-1.600000000e-03	2.678552155e-01	-7.666555082e-04	7.386353859e-12
-1.700000000e-03	2.678552260e-01	-7.639422032e-04	9.345520334e-12
-1.800000000e-03	2.678552364e-01	-7.612288979e-04	2.595171210e-11
-1.900000000e-03	2.678552467e-01	-7.585155921e-04	2.167040697e-11
-2.000000000e-03	2.678552569e-01	-7.558022859e-04	1.057024109e-11
-2.100000000e-03	2.678552671e-01	-7.530889793e-04	9.688687328e-11
-2.200000000e-03	2.678552771e-01	-7.503756723e-04	2.064217793e-11
-2.300000000e-03	2.678552871e-01	-7.476623649e-04	6.886579044e-12
-2.400000000e-03	2.678552970e-01	-7.449490570e-04	1.123321124e-11
-2.500000000e-03	2.678553068e-01	-7.422357488e-04	7.750691875e-12
-2.600000000e-03	2.678553166e-01	-7.395224402e-04	9.808251451e-12
-2.700000000e-03	2.678553262e-01	-7.368091312e-04	1.180633533e-11
-2.800000000e-03	2.678553358e-01	-7.340958218e-04	9.502881645e-11
-2.900000000e-03	2.678553453e-01	-7.313825121e-04	2.987298746e-11
-3.000000000e-03	2.678553547e-01	-7.286692019e-04	1.953527312e-11
-3.100000000e-03	2.678553640e-01	-7.259558914e-04	1.395669947e-11
-3.200000000e-03	2.678553733e-01	-7.232425805e-04	5.506428014e-12
-3.300000000e-03	2.678553824e-01	-7.205292693e-04	6.494250661e-11
-3.400000000e-03	2.678553915e-01	-7.178159577e-04	1.137167275e-11
-3.500000000e-03	2.678554005e-01	-7.151026457e-04	1.945742615e-11
-3.600000000e-03	2.678554094e-01	-7.123893334e-04	1.172116673e-11
-3.700000000e-03	2.678554182e-01	-7.096760208e-04	6.671857248e-11
-3.800000000e-03	2.678554270e-01	-7.069627078e-04	2.001333452e-11
-3.900000000e-03	2.678554356e-01	-7.042493944e-04	8.368274217e-12
-4.000000000e-03	2.678554442e-01	-7.015360808e-04	8.456591148e-12
-4.100000000e-03	2.678554527e-01	-6.988227668e-04	4.146810541e-11
-4.200000000e-03	2.678554611e-01	-6.961094524e-04	3.098139303e-11
-4.300000000e-03	2.678554695e-01	-6.933961378e-04	1.952310776e-11
-4.400000000e-03	2.678554777e-01	-6.906828228e-04	1.104184813e-11
-4.500000000e-03	2.678554859e-01	-6.879695075e-04	1.031125835e-11
-4.600000000e-03	2.678554940e-01	-6.852561919e-04	3.634301075e-11
-4.700000000e-03	2.678555020e-01	-6.825428760e-04	9.555387318e-12
-4.800000000e-03	2.678555099e-01	-6.798295599e-04	2.716791106e-11
-4.900000000e-03	2.678555177e-01	-6.771162434e-04	3.126242835e-11
-5.000000000e-03	2.678555255e-01	-6.744029266e-04	1.477386494e-11
-5.100000000e-03	2.678555332e-01	-6.716896095e-04	1.341782258e-11
-5.200000000e-03	2.678555408e-01	-6.689762921e-04	1.654724485e-11
-5.300000000e-03	2.678555483e-01	-6.662629745e-04	7.915451238e-12
-5.400000000e-03	2.678555557e-01	-6.635496566e-04	1.857317342e-11
-5.500000000e-03	2.678555630e-01	-6.608363384e-04	1.630050772e-11
-5.600000000e-03	2.678555703e-01	-6.581230200e-04	2.614983222e-11
-5.700000000e-03	2.678555775e-01	-6.554097012e-04	8.480395308e-11
-5.800000000e-03	2.678555846e-01	-6.526963823e-04	1.546917627e-11
-5.900000000e-03	2.678555916e-01	-6.499830630e-04	9.533979976e-12
-6.000000000e-03	2.678555985e-01	-6.472697436e-04	1.867775436e-12
-6.100000000e-03	2.678556054e-01	-6.445564238e-04	1.114535717e-11
-6.200000000e-03	2.678556121e-01	-6.418431039e-04	1.170903783e-11
-6.300000000e-03	2.678556188e-01	-6.391297837e-04	1.385951080e-11
-6.400000000e-03	2.678556254e-01	-6.364164632e-04	4.778401579e-12
-6.500000000e-03	2.678556319e-01	-6.337031425e-04	1.174670325e-11
-6.600000000e-03	2.678556384e-01	-6.309898216e-04	1.394136989e-11
-6.700000000e-03	2.678556447e-01	-6.282765005e-04	1.318340722e-11
-6.800000000e-03	2.678556510e-01	-6.255631792e-04	1.529515575e-11
-6.900000000e-03	2.678556572e-01	-6.228498576e-04	1.258437204e-11
-7.000000000e-03	2.678556633e-01	-6.201365359e-04	8.463335557e-12
-7.100000000e-03	2.678556693e-01	-6.174232139e-04	4.210881985e-11
-7.200000000e-03	2.678556753e-01	-6.147098917e-04	3.029883591e-11
-7.300000000e-03	2.678556811e-01	-6.119965694e-04	1.828714354e-11
-7.400000000e-03	2.678556869e-01	-6.092832468e-04	4.710778873e-12
-7.500000000e-03	2.678556926e-01	-6.065699241e-04	1.973221860e-11
-7.600000000e-03	2.678556982e-01	-6.038566012e-04	2.783078340e-11
-7.700000000e-03	2.678557038e-01	-6.011432781e-04	1.791086588e-11
-7.800000000e-03	2.678557092e-01	-5.984299548e-04	1.220908886e-11
-7.900000000e-03	2.678557146e-01	-5.957166313e-04	1.580105957e-11
-8.000000000e-03	2.678557199e-01	-5.930033077e-04	1.450241575e-11
-8.100000000e-03	2.678557251e-01	-5.902899839e-04	1.398916404e-11
-8.200000000e-03	2.678557302e-01	-5.875766600e-04	1.536363652e-11
-8.300000000e-03	2.678557352e-01	-5.848633359e-04	3.006455275e-11
-8.400000000e-03	2.678557402e-01	-5.821500116e-04	2.865906287e-11
-8.500000000e-03	2.678557450e-01	-5.794366872e-04	9.846267077e-12
-8.600000000e-03	2.678557498e-01	-5.767233627e-04	1.832413465e-11
-8.700000000e-03	2.678557545e-01	-5.740100380e-04	1.615113884e-11
-8.800000000e-03	2.678557592e-01	-5.712967132e-04	8.084174992e-12
-8.900000000e-03	2.678557637e-01	-5.685833883e-04	7.148594964e-12
-9.000000000e-03	2.678557682e-01	-5.658700632e-04	1.069088842e-11
-9.100000000e-03	2.678557725e-01	-5.631567380e-04	1.793352595e-11
-9.200000000e-03	2.678557768e-01	-5.604434127e-04	2.437986606e-11
-9.300000000e-03	2.678557811e-01	-5.577300873e-04	1.834801077e-11
-9.400000000e-03	2.678557852e-01	-5.550167618e-04	1.578510756e-11
-9.500000000e-03	2.678557892e-01	-5.523034361e-04	1.499099869e-11
-9.600000000e-03	2.678557932e-01	-5.495901104e-04	1.200821926e-11
-9.700000000e-03	2.678557971e-01	-5.468767846e-04	2.955090682e-11
-9.800000000e-03	2.678558009e-01	-5.441634586e-04	6.730393115e-12
-9.900000000e-03	2.678558046e-01	-5.414501326e-04	1.289840921e-11
-1.000000000e-02	2.678558082e-01	-5.387368065e-04	1.169513624e-11
-1.010000000e-02	2.678558118e-01	-5.360234804e-04	9.079739803e-12
-1.020000000e-02	2.678558153e-01	-5.333101541e-04	7.762636994e-11
-1.030000000e-02	2.678558186e-01	-5.305968278e-04	3.818523164e-11
-1.040000000e-02	2.678558220e-01	-5.278835014e-04	4.253838655e-11
-1.050000000e-02	2.678558252e-01	-5.251701750e-04	2.256530537e-11
-1.060000000e-02	2.678558283e-01	-5.224568484e-04	1.856575922e-11
-1.070000000e-02	2.678558314e-01	-5.197435219e-04	7.912351887e-12
-1.080000000e-02	2.678558344e-01	-5.170301953e-04	2.465227514e-11
-1.090000000e-02	2.678558372e-01	-5.143168686e-04	3.154549080e-11
-1.100000000e-02	2.678558401e-01	-5.116035419e-04	3.103616073e-11
-1.110000000e-02	2.678558428e-01	-5.088902152e-04	8.524274159e-12
-1.120000000e-02	2.678558454e-01	-5.061768884e-04	7.111449451e-12
-1.130000000e-02	2.678558480e-01	-5.034635616e-04	8.100901008e-12
-1.140000000e-02	2.678558505e-01	-5.007502347e-04	2.055788394e-11
-1.150000000e-02	2.678558529e-01	-4.980369079e-04	1.166351256e-11
-1.160000000e-02	2.678558552e-01	-4.953235810e-04	1.148213869e-11
-1.170000000e-02	2.678558574e-01	-4.926102541e-04	1.051401484e-11
-1.180000000e-02	2.678558596e-01	-4.898969272e-04	2.046685216e-11
-1.190000000e-02	2.678558616e-01	-4.871836003e-04	5.648841053e-12
-1.200000000e-02	2.678558636e-01	-4.844702735e-04	1.661710427e-11
-1.210000000e-02	2.678558655e-01	-4.817569466e-04	1.737618883e-11
-1.220000000e-02	2.678558674e-01	-4.790436197e-04	8.478596963e-12
-1.230000000e-02	2.678558691e-01	-4.763302928e-04	1.125021209e-11
-1.240000000e-02	2.678558708e-01	-4.736169659e-04	1.527157837e-11
-1.250000000e-02	2.678558723e-01	-4.709036391e-04	2.472711705e-11
-1.260000000e-02	2.678558738e-01	-4.681903123e-04	1.510592691e-11
-1.270000000e-02	2.678558752e-01	-4.654769855e-04	9.088956122e-12
-1.280000000e-02	2.678558766e-01	-4.627636588e-04	6.624816960e-12
-1.290000000e-02	2.678558778e-01	-4.600503320e-04	1.284793454e-11
-1.300000000e-02	2.678558790e-01	-4.573370054e-04	6.733036138e-11
-1.310000000e-02	2.678558801e-01	-4.546236787e-04	7.303571057e-12
-1.320000000e-02	2.678558811e-01	-4.519103522e-04	1.460012280e-11
-1.330000000e-02	2.678558820e-01	-4.491970256e-04	1.953940051e-11
-1.340000000e-02	2.678558828e-01	-4.464836992e-04	3.442344865e-11
-1.350000000e-02	2.678558836e-01	-4.437703728e-04	8.911469617e-12
-1.360000000e-02	2.678558842e-01	-4.410570464e-04	1.963118910e-11
-1.370000000e-02	2.678558848e-01	-4.383437202e-04	5.480517449e-12
-1.380000000e-02	2.678558853e-01	-4.356303940e-04	3.329462143e-11
-1.390000000e-02	2.678558857e-01	-4.329170678e-04	2.348857493e-11
-1.400000000e-02	2.678558861e-01	-4.302037418e-04	3.488141516e-12
-1.410000000e-02	2.678558863e-01	-4.274904159e-04	1.304617907e-11
-1.420000000e-02	2.678558865e-01	-4.247770900e-04	1.394747575e-11
-1.430000000e-02	2.678558866e-01	-4.220637643e-04	8.907989348e-12
-1.440000000e-02	2.678558866e-01	-4.193504386e-04	1.891134760e-11
-1.450000000e-02	2.678558865e-01	-4.166371130e-04	8.036204381e-12
-1.460000000e-02	2.678558864e-01	-4.139237876e-04	4.949892679e-11
-1.470000000e-02	2.678558861e-01	-4.112104623e-04	1.597426037e-11
-1.480000000e-02	2.678558858e-01	-4.084971370e-04	1.329217551e-11
-1.490000000e-02	2.678558854e-01	-4.057838119e-04	1.784055161e-11
-1.500000000e-02	2.678558849e-01	-4.030704870e-04	5.139624917e-12
-1.510000000e-02	2.678558844e-01	-4.003571621e-04	2.219520787e-12
-1.520000000e-02	2.678558837e-01	-3.976438374e-04	6.977240766e-11
-1.530000000e-02	2.678558830e-01	-3.949305128e-04	2.224976376e-12
-1.540000000e-02	2.678558822e-01	-3.922171884e-04	1.031747736e-11
-1.550000000e-02	2.678558813e-01	-3.895038641e-04	6.384246721e-12
-1.560000000e-02	2.678558803e-01	-3.867905400e-04	1.534740682e-11
-1.570000000e-02	2.678558792e-01	-3.840772160e-04	9.942889475e-12
-1.580000000e-02	2.678558781e-01	-3.813638922e-04	4.623588185e-11
-1.590000000e-02	2.678558768e-01	-3.786505685e-04	2.316986952e-11
-1.600000000e-02	2.678558755e-01	-3.759372450e-04	1.378032070e-11
-1.610000000e-02	2.678558741e-01	-3.732239217e-04	1.708470697e-11
-1.620000000e-02	2.678558727e-01	-3.705105985e-04	1.730984210e-11
-1.630000000e-02	2.678558711e-01	-3.677972755e-04	5.889058191e-11
-1.640000000e-02	2.678558695e-01	-3.650839527e-04	2.561676872e-11
-1.650000000e-02	2.678558677e-01	-3.623706301e-04	3.309941470e-11
-1.660000000e-02	2.678558659e-01	-3.596573077e-04	1.424959281e-11
-1.670000000e-02	2.678558641e-01	-3.569439855e-04	8.311517503e-12
-1.680000000e-02	2.678558621e-01	-3.542306635e-04	1.559744316e-11
-1.690000000e-02	2.678558600e-01	-3.515173417e-04	1.134441089e-11
-1.700000000e-02	2.678558579e-01	-3.488040201e-04	6.338375613e-12
-1.710000000e-02	2.678558557e-01	-3.460906987e-04	1.945065071e-11
-1.720000000e-02	2.678558534e-01	-3.433773775e-04	4.607066048e-12
-1.730000000e-02	2.678558510e-01	-3.406640565e-04	2.702054324e-12
-1.740000000e-02	2.678558485e-01	-3.379507358e-04	4.846859019e-12
-1.750000000e-02	2.678558460e-01	-3.352374153e-04	7.605528419e-12
-1.760000000e-02	2.678558434e-01	-3.325240950e-04	1.403378887e-11
-1.770000000e-02	2.678558407e-01	-3.298107750e-04	7.315297701e-12
-1.780000000e-02	2.678558379e-01	-3.270974552e-04	3.743876719e-11
-1.790000000e-02	2.678558350e-01	-3.243841357e-04	1.302381595e-11
-1.800000000e-02	2.678558320e-01	-3.216708164e-04	2.933331300e-11
-1.810000000e-02	2.678558290e-01	-3.189574973e-04	8.751654926e-12
-1.820000000e-02	2.678558259e-01	-3.162441785e-04	2.911223958e-12
-1.830000000e-02	2.678558227e-01	-3.135308600e-04	6.178201659e-12
-1.840000000e-02	2.678558194e-01	-3.108175418e-04	8.282353605e-12
-1.850000000e-02	2.678558160e-01	-3.081042238e-04	6.482060033e-11
-1.860000000e-02	2.678558125e-01	-3.053909061e-04	3.175344971e-11
-1.870000000e-02	2.678558090e-01	-3.026775886e-04	1.220213922e-11
-1.880000000e-02	2.678558054e-01	-2.999642715e-04	1.831751360e-11
-1.890000000e-02	2.678558017e-01	-2.972509546e-04	1.578769101e-11
-1.900000000e-02	2.678557979e-01	-2.945376381e-04	1.034549095e-11
-1.910000000e-02	2.678557940e-01	-2.918243218e-04	4.290790007e-11
-1.920000000e-02	2.678557901e-01	-2.891110058e-04	5.432946829e-11
-1.930000000e-02	2.678557861e-01	-2.863976901e-04	2.992285112e-11
-1.940000000e-02	2.678557820e-01	-2.836843748e-04	1.912452526e-11
-1.950000000e-02	2.678557778e-01	-2.809710597e-04	7.880540141e-12
-1.960000000e-02	2.678557735e-01	-2.782577450e-04	1.055450878e-11
-1.970000000e-02	2.678557691e-01	-2.755444306e-04	1.353369124e-11
-1.980000000e-02	2.678557647e-01	-2.728311165e-04	2.514152048e-11
-1.990000000e-02	2.678557602e-01	-2.701178027e-04	1.617910448e-11
-2.000000000e-02	2.678557555e-01	-2.674044893e-04	5.550357004e-12
-2.010000000e-02	2.678557509e-01	-2.646911762e-04	3.062676107e-11
-2.020000000e-02	2.678557461e-01	-2.619778635e-04	2.450440171e-11
-2.030000000e-02	2.678557412e-01	-2.592645511e-04	8.561347867e-12
-2.040000000e-02	2.678557363e-01	-2.565512390e-04	1.487205541e-11
-2.050000000e-02	2.678557313e-01	-2.538379273e-04	2.797751623e-11
-2.060000000e-02	2.678557262e-01	-2.511246160e-04	8.667066649e-12
-2.070000000e-02	2.678557210e-01	-2.484113050e-04	1.091692373e-11
-2.080000000e-02	2.678557157e-01	-2.456979944e-04	1.066400873e-11
-2.090000000e-02	2.678557104e-01	-2.429846842e-04	1.739473877e-11
-2.100000000e-02	2.678557049e-01	-2.402713743e-04	1.841988449e-11
-2.110000000e-02	2.678556994e-01	-2.375580648e-04	1.389264163e-11
-2.120000000e-02	2.678556938e-01	-2.348447557e-04	2.387920729e-11
-2.130000000e-02	2.678556882e-01	-2.321314470e-04	9.946420564e-12
-2.140000000e-02	2.678556824e-01	-2.294181387e-04	2.507178808e-11
-2.150000000e-02	2.678556766e-01	-2.267048308e-04	8.091661771e-12
-2.160000000e-02	2.678556706e-01	-2.239915232e-04	1.532547569e-11
-2.170000000e-02	2.678556646e-01	-2.212782161e-04	3.505913011e-11
-2.180000000e-02	2.678556585e-01	-2.185649094e-04	1.862160785e-11
-2.190000000e-02	2.678556524e-01	-2.158516031e-04	1.551630941e-11
-2.200000000e-02	2.678556461e-01	-2.131382972e-04	1.024414377e-11
-2.210000000e-02	2.678556398e-01	-2.104249917e-04	3.641032883e-11
-2.220000000e-02	2.678556333e-01	-2.077116867e-04	1.185027825e-11
-2.230000000e-02	2.678556268e-01	-2.049983821e-04	1.332878129e-11
-2.240000000e-02	2.678556203e-01	-2.022850779e-04	1.716866418e-11
-2.250000000e-02	2.678556136e-01	-1.995717742e-04	2.686765431e-11
-2.260000000e-02	2.678556068e-01	-1.968584709e-04	8.674721058e-12
-2.270000000e-02	2.678556000e-01	-1.941451680e-04	1.402797240e-11
-2.280000000e-02	2.678555931e-01	-1.914318656e-04	9.344175352e-11
-2.290000000e-02	2.678555861e-01	-1.887185637e-04	3.738390525e-11
-2.300000000e-02	2.678555790e-01	-1.860052622e-04	3.297120476e-11
-2.310000000e-02	2.678555719e-01	-1.832919611e-04	1.250881098e-11
-2.320000000e-02	2.678555646e-01	-1.805786606e-04	7.257173111e-12
-2.330000000e-02	2.678555573e-01	-1.778653605e-04	1.109663198e-11
-2.340000000e-02	2.678555499e-01	-1.751520609e-04	1.540799870e-11
-2.350000000e-02	2.678555424e-01	-1.724387617e-04	1.105182498e-11
-2.360000000e-02	2.678555348e-01	-1.697254631e-04	1.323084992e-11
-2.370000000e-02	2.678555272e-01	-1.670121649e-04	1.045336331e-11
-2.380000000e-02	2.678555194e-01	-1.642988672e-04	1.418945683e-11
-2.390000000e-02	2.678555116e-01	-1.615855701e-04	1.394862725e-11
-2.400000000e-02	2.678555037e-01	-1.588722734e-04	8.381636620e-11
-2.410000000e-02	2.678554957e-01	-1.561589772e-04	1.677376636e-11
-2.420000000e-02	2.678554876e-01	-1.534456815e-04	1.106136015e-11
-2.430000000e-02	2.678554795e-01	-1.507323864e-04	6.163104049e-12
-2.440000000e-02	2.678554712e-01	-1.480190918e-04	2.290840771e-11
-2.450000000e-02	2.678554629e-01	-1.453057976e-04	1.243748367e-11
-2.460000000e-02	2.678554545e-01	-1.425925040e-04	1.468772099e-11
-2.470000000e-02	2.678554461e-01	-1.398792110e-04	4.369550554e-11
-2.480000000e-02	2.678554375e-01	-1.371659185e-04	7.089305986e-12
-2.490000000e-02	2.678554288e-01	-1.344526265e-04	1.531647650e-11
-2.500000000e-02	2.678554201e-01	-1.317393350e-04	5.550070450e-12
-2.510000000e-02	2.678554113e-01	-1.290260441e-04	1.478702783e-11
-2.520000000e-02	2.678554024e-01	-1.263127538e-04	1.837963620e-11
-2.530000000e-02	2.678553934e-01	-1.235994640e-04	2.666451477e-11
-2.540000000e-02	2.678553844e-01	-1.208861747e-04	1.186319933e-11
-2.550000000e-02	2.678553752e-01	-1.181728861e-04	9.488833104e-12
-2.560000000e-02	2.678553660e-01	-1.154595979e-04	4.142309329e-12
-2.570000000e-02	2.678553567e-01	-1.127463104e-04	1.870888616e-11
-2.580000000e-02	2.678553473e-01	-1.100330234e-04	1.337187496e-11
-2.590000000e-02	2.678553379e-01	-1.073197371e-04	1.072136231e-11
-2.600000000e-02	2.678553283e-01	-1.046064512e-04	1.063569049e-11
-2.610000000e-02	2.678553187e-01	-1.018931660e-04	1.252597903e-11
-2.620000000e-02	2.678553090e-01	-9.917988141e-05	2.889363956e-11
-2.630000000e-02	2.678552992e-01	-9.646659739e-05	1.207624336e-11
-2.640000000e-02	2.678552893e-01	-9.375331396e-05	8.547903258e-12
-2.650000000e-02	2.678552793e-01	-9.104003114e-05	2.090700532e-11
-2.660000000e-02	2.678552693e-01	-8.832674893e-05	1.614565338e-11
-2.670000000e-02	2.678552591e-01	-8.561346732e-05	5.858629674e-12
-2.680000000e-02	2.678552489e-01	-8.290018634e-05	2.257343776e-11
-2.690000000e-02	2.678552386e-01	-8.018690598e-05	2.078393796e-11
-2.700000000e-02	2.678552282e-01	-7.747362624e-05	9.527681419e-12
-2.710000000e-02	2.678552178e-01	-7.476034713e-05	8.119335242e-11
-2.720000000e-02	2.678552072e-01	-7.204706866e-05	1.795352860e-11
-2.730000000e-02	2.678551966e-01	-6.933379082e-05	1.136920940e-11
-2.740000000e-02	2.678551859e-01	-6.662051362e-05	1.205301445e-11
-2.750000000e-02	2.678551751e-01	-6.390723707e-05	1.069354371e-11
-2.760000000e-02	2.678551643e-01	-6.119396118e-05	2.644160471e-11
-2.770000000e-02	2.678551533e-01	-5.848068593e-05	1.453776844e-11
-2.780000000e-02	2.678551423e-01	-5.576741134e-05	7.353764418e-11
-2.790000000e-02	2.678551312e-01	-5.305413742e-05	1.719700652e-11
-2.800000000e-02	2.678551200e-01	-5.034086416e-05	1.532829307e-11
-2.810000000e-02	2.678551087e-01	-4.762759158e-05	9.130663315e-12
-2.820000000e-02	2.678550973e-01	-4.491431967e-05	1.984854559e-11
-2.830000000e-02	2.678550859e-01	-4.220104844e-05	9.908397526e-12
-2.840000000e-02	2.678550743e-01	-3.948777789e-05	1.276496035e-11
-2.850000000e-02	2.678550627e-01	-3.677450803e-05	1.863378726e-11
-2.860000000e-02	2.678550510e-01	-3.406123886e-05	1.037212939e-11
-2.870000000e-02	2.678550392e-01	-3.134797039e-05	1.106799358e-11
-2.880000000e-02	2.678550274e-01	-2.863470262e-05	7.995814708e-12
-2.890000000e-02	2.678550154e-01	-2.592143555e-05	9.345816763e-12
-2.900000000e-02	2.678550034e-01	-2.320816919e-05	7.354645818e-12
-2.910000000e-02	2.678549913e-01	-2.049490355e-05	6.768531535e-12
-2.920000000e-02	2.678549791e-01	-1.778163862e-05	7.811761853e-12
-2.930000000e-02	2.678549668e-01	-1.506837441e-05	1.873818480e-11
-2.940000000e-02	2.678549545e-01	-1.235511093e-05	7.244560694e-12
-2.950000000e-02	2.678549421e-01	-9.641848175e-06	9.948848073e-12
-2.960000000e-02	2.678549295e-01	-6.928586156e-06	2.584228500e-11
-2.970000000e-02	2.678549169e-01	-4.215324874e-06	1.088466106e-11
-2.980000000e-02	2.678549042e-01	-1.502064334e-06	1.257246433e-11
-2.990000000e-02	2.678548915e-01	1.211195459e-06	3.048811793e-11
-3.000000000e-02	2.678548786e-01	3.924454503e-06	1.439826348e-11
