# Im(epsi1)     Re(omega/c)      Im(omega/c)      Eq(det).Opt det CON kz, R=0.5 \mum, mu_c=0.3, Re(epsi1)=3.90solve_det_conkz_vs_kz.py
0.000000000e+00	2.678571455e-01	-8.100775319e-04	1.830615424e-11
-1.000000000e-04	2.678571573e-01	-8.073642176e-04	1.734358845e-11
-2.000000000e-04	2.678571690e-01	-8.046509028e-04	1.997663143e-11
-3.000000000e-04	2.678571807e-01	-8.019375875e-04	2.571038680e-11
-4.000000000e-04	2.678571922e-01	-7.992242718e-04	8.800048872e-12
-5.000000000e-04	2.678572037e-01	-7.965109555e-04	1.898218580e-11
-6.000000000e-04	2.678572151e-01	-7.937976388e-04	2.011587661e-11
-7.000000000e-04	2.678572264e-01	-7.910843216e-04	1.828406420e-11
-8.000000000e-04	2.678572376e-01	-7.883710040e-04	1.385067569e-11
-9.000000000e-04	2.678572487e-01	-7.856576858e-04	1.720780723e-11
-1.000000000e-03	2.678572598e-01	-7.829443673e-04	7.772401385e-12
-1.100000000e-03	2.678572708e-01	-7.802310482e-04	1.601013200e-11
-1.200000000e-03	2.678572816e-01	-7.775177287e-04	1.055238724e-11
-1.300000000e-03	2.678572925e-01	-7.748044088e-04	7.537607117e-12
-1.400000000e-03	2.678573032e-01	-7.720910884e-04	3.070419332e-11
-1.500000000e-03	2.678573138e-01	-7.693777676e-04	3.955416230e-12
-1.600000000e-03	2.678573244e-01	-7.666644464e-04	1.068552535e-11
-1.700000000e-03	2.678573349e-01	-7.639511247e-04	7.147152809e-12
-1.800000000e-03	2.678573452e-01	-7.612378026e-04	1.152965378e-11
-1.900000000e-03	2.678573556e-01	-7.585244800e-04	3.743626747e-11
-2.000000000e-03	2.678573658e-01	-7.558111571e-04	1.116132370e-11
-2.100000000e-03	2.678573759e-01	-7.530978337e-04	1.704348167e-11
-2.200000000e-03	2.678573860e-01	-7.503845100e-04	2.378318428e-11
-2.300000000e-03	2.678573960e-01	-7.476711858e-04	1.803418748e-11
-2.400000000e-03	2.678574059e-01	-7.449578612e-04	5.935412659e-11
-2.500000000e-03	2.678574157e-01	-7.422445362e-04	1.149860867e-11
-2.600000000e-03	2.678574254e-01	-7.395312109e-04	8.362452487e-12
-2.700000000e-03	2.678574351e-01	-7.368178851e-04	4.499142514e-11
-2.800000000e-03	2.678574447e-01	-7.341045590e-04	2.008599570e-11
-2.900000000e-03	2.678574541e-01	-7.313912325e-04	1.686940458e-11
-3.000000000e-03	2.678574636e-01	-7.286779056e-04	1.246354619e-11
-3.100000000e-03	2.678574729e-01	-7.259645783e-04	7.083978279e-12
-3.200000000e-03	2.678574821e-01	-7.232512507e-04	2.104647884e-11
-3.300000000e-03	2.678574913e-01	-7.205379227e-04	4.939828597e-12
-3.400000000e-03	2.678575004e-01	-7.178245943e-04	7.326805930e-12
-3.500000000e-03	2.678575093e-01	-7.151112656e-04	1.477652602e-11
-3.600000000e-03	2.678575183e-01	-7.123979365e-04	5.792900710e-12
-3.700000000e-03	2.678575271e-01	-7.096846071e-04	6.616685669e-12
-3.800000000e-03	2.678575358e-01	-7.069712774e-04	2.406668500e-11
-3.900000000e-03	2.678575445e-01	-7.042579473e-04	1.402570254e-11
-4.000000000e-03	2.678575531e-01	-7.015446169e-04	5.664701694e-12
-4.100000000e-03	2.678575616e-01	-6.988312861e-04	7.956619027e-12
-4.200000000e-03	2.678575700e-01	-6.961179550e-04	2.157578581e-11
-4.300000000e-03	2.678575783e-01	-6.934046236e-04	2.474541505e-11
-4.400000000e-03	2.678575866e-01	-6.906912919e-04	2.140637803e-11
-4.500000000e-03	2.678575947e-01	-6.879779599e-04	1.952337340e-11
-4.600000000e-03	2.678576028e-01	-6.852646275e-04	1.289284870e-11
-4.700000000e-03	2.678576108e-01	-6.825512949e-04	8.010412259e-12
-4.800000000e-03	2.678576188e-01	-6.798379619e-04	3.377007693e-11
-4.900000000e-03	2.678576266e-01	-6.771246287e-04	2.037966489e-12
-5.000000000e-03	2.678576344e-01	-6.744112951e-04	8.513458911e-12
-5.100000000e-03	2.678576420e-01	-6.716979613e-04	1.202344871e-11
-5.200000000e-03	2.678576496e-01	-6.689846272e-04	4.642618137e-12
-5.300000000e-03	2.678576571e-01	-6.662712928e-04	6.086573796e-12
-5.400000000e-03	2.678576646e-01	-6.635579581e-04	2.572302843e-11
-5.500000000e-03	2.678576719e-01	-6.608446232e-04	8.635589237e-12
-5.600000000e-03	2.678576792e-01	-6.581312880e-04	1.039583866e-11
-5.700000000e-03	2.678576863e-01	-6.554179525e-04	5.817427045e-12
-5.800000000e-03	2.678576934e-01	-6.527046168e-04	9.731125505e-12
-5.900000000e-03	2.678577005e-01	-6.499912808e-04	6.798603607e-11
-6.000000000e-03	2.678577074e-01	-6.472779446e-04	9.991440365e-12
-6.100000000e-03	2.678577142e-01	-6.445646081e-04	5.354208252e-12
-6.200000000e-03	2.678577210e-01	-6.418512714e-04	3.080139148e-11
-6.300000000e-03	2.678577277e-01	-6.391379344e-04	9.164757001e-12
-6.400000000e-03	2.678577343e-01	-6.364245972e-04	1.222427381e-11
-6.500000000e-03	2.678577408e-01	-6.337112598e-04	1.094995087e-11
-6.600000000e-03	2.678577473e-01	-6.309979221e-04	9.297979256e-12
-6.700000000e-03	2.678577536e-01	-6.282845843e-04	1.103753831e-11
-6.800000000e-03	2.678577599e-01	-6.255712462e-04	2.972633934e-11
-6.900000000e-03	2.678577661e-01	-6.228579079e-04	1.963215404e-11
-7.000000000e-03	2.678577722e-01	-6.201445693e-04	2.254968916e-11
-7.100000000e-03	2.678577782e-01	-6.174312306e-04	1.125067229e-11
-7.200000000e-03	2.678577842e-01	-6.147178917e-04	6.506598766e-11
-7.300000000e-03	2.678577900e-01	-6.120045526e-04	3.503424304e-11
-7.400000000e-03	2.678577958e-01	-6.092912133e-04	3.148269994e-12
-7.500000000e-03	2.678578015e-01	-6.065778738e-04	1.474820016e-11
-7.600000000e-03	2.678578071e-01	-6.038645341e-04	1.622467721e-11
-7.700000000e-03	2.678578126e-01	-6.011511942e-04	1.902155828e-11
-7.800000000e-03	2.678578181e-01	-5.984378542e-04	2.004510356e-11
-7.900000000e-03	2.678578234e-01	-5.957245140e-04	1.473332364e-11
-8.000000000e-03	2.678578287e-01	-5.930111736e-04	8.325640701e-12
-8.100000000e-03	2.678578339e-01	-5.902978331e-04	9.642249517e-12
-8.200000000e-03	2.678578391e-01	-5.875844924e-04	1.000061322e-11
-8.300000000e-03	2.678578441e-01	-5.848711515e-04	3.237568614e-11
-8.400000000e-03	2.678578490e-01	-5.821578105e-04	8.695648385e-12
-8.500000000e-03	2.678578539e-01	-5.794444694e-04	3.591308829e-11
-8.600000000e-03	2.678578587e-01	-5.767311281e-04	1.620069920e-11
-8.700000000e-03	2.678578634e-01	-5.740177867e-04	1.193628356e-11
-8.800000000e-03	2.678578680e-01	-5.713044451e-04	1.033792780e-11
-8.900000000e-03	2.678578726e-01	-5.685911034e-04	1.392034882e-11
-9.000000000e-03	2.678578770e-01	-5.658777616e-04	9.805120459e-12
-9.100000000e-03	2.678578814e-01	-5.631644196e-04	1.411006635e-11
-9.200000000e-03	2.678578857e-01	-5.604510776e-04	2.825532187e-12
-9.300000000e-03	2.678578899e-01	-5.577377354e-04	1.984428291e-11
-9.400000000e-03	2.678578941e-01	-5.550243931e-04	8.046742823e-12
-9.500000000e-03	2.678578981e-01	-5.523110507e-04	1.072408359e-11
-9.600000000e-03	2.678579021e-01	-5.495977082e-04	1.290248748e-11
-9.700000000e-03	2.678579060e-01	-5.468843657e-04	1.447859469e-11
-9.800000000e-03	2.678579098e-01	-5.441710230e-04	1.742247505e-11
-9.900000000e-03	2.678579135e-01	-5.414576802e-04	1.362640747e-11
-1.000000000e-02	2.678579171e-01	-5.387443374e-04	1.945157362e-11
-1.010000000e-02	2.678579207e-01	-5.360309944e-04	2.883655056e-11
-1.020000000e-02	2.678579241e-01	-5.333176514e-04	2.182420787e-11
-1.030000000e-02	2.678579275e-01	-5.306043084e-04	4.179611156e-11
-1.040000000e-02	2.678579308e-01	-5.278909652e-04	2.485103192e-11
-1.050000000e-02	2.678579341e-01	-5.251776220e-04	7.119819703e-12
-1.060000000e-02	2.678579372e-01	-5.224642788e-04	3.712544917e-11
-1.070000000e-02	2.678579403e-01	-5.197509354e-04	1.270768542e-11
-1.080000000e-02	2.678579432e-01	-5.170375921e-04	1.462318927e-11
-1.090000000e-02	2.678579461e-01	-5.143242486e-04	6.498546346e-12
-1.100000000e-02	2.678579489e-01	-5.116109052e-04	1.427702416e-11
-1.110000000e-02	2.678579517e-01	-5.088975617e-04	7.439635315e-12
-1.120000000e-02	2.678579543e-01	-5.061842182e-04	2.252879884e-11
-1.130000000e-02	2.678579569e-01	-5.034708746e-04	2.065106471e-11
-1.140000000e-02	2.678579594e-01	-5.007575310e-04	8.889031081e-12
-1.150000000e-02	2.678579618e-01	-4.980441874e-04	1.758632826e-11
-1.160000000e-02	2.678579641e-01	-4.953308438e-04	7.196150721e-12
-1.170000000e-02	2.678579663e-01	-4.926175001e-04	1.316098374e-11
-1.180000000e-02	2.678579685e-01	-4.899041565e-04	3.231992550e-11
-1.190000000e-02	2.678579705e-01	-4.871908128e-04	1.508797237e-11
-1.200000000e-02	2.678579725e-01	-4.844774692e-04	1.263471797e-11
-1.210000000e-02	2.678579744e-01	-4.817641255e-04	9.953413712e-12
-1.220000000e-02	2.678579762e-01	-4.790507819e-04	1.293795829e-11
-1.230000000e-02	2.678579780e-01	-4.763374383e-04	1.870040497e-11
-1.240000000e-02	2.678579796e-01	-4.736240947e-04	1.007411715e-11
-1.250000000e-02	2.678579812e-01	-4.709107511e-04	1.537473914e-11
-1.260000000e-02	2.678579827e-01	-4.681974075e-04	1.566949776e-11
-1.270000000e-02	2.678579841e-01	-4.654840640e-04	6.498995586e-11
-1.280000000e-02	2.678579854e-01	-4.627707205e-04	2.051187494e-11
-1.290000000e-02	2.678579867e-01	-4.600573770e-04	1.182196324e-11
-1.300000000e-02	2.678579879e-01	-4.573440336e-04	9.499896256e-12
-1.310000000e-02	2.678579889e-01	-4.546306902e-04	5.751871537e-12
-1.320000000e-02	2.678579899e-01	-4.519173468e-04	7.875923221e-12
-1.330000000e-02	2.678579908e-01	-4.492040036e-04	1.303801168e-11
-1.340000000e-02	2.678579917e-01	-4.464906603e-04	2.099984835e-11
-1.350000000e-02	2.678579924e-01	-4.437773172e-04	2.547818292e-11
-1.360000000e-02	2.678579931e-01	-4.410639741e-04	1.078926468e-11
-1.370000000e-02	2.678579937e-01	-4.383506311e-04	1.626167504e-11
-1.380000000e-02	2.678579942e-01	-4.356372881e-04	1.979390285e-11
-1.390000000e-02	2.678579946e-01	-4.329239453e-04	1.341296900e-11
-1.400000000e-02	2.678579949e-01	-4.302106025e-04	9.426591622e-12
-1.410000000e-02	2.678579952e-01	-4.274972598e-04	2.248853488e-11
-1.420000000e-02	2.678579954e-01	-4.247839172e-04	9.120705422e-12
-1.430000000e-02	2.678579955e-01	-4.220705746e-04	1.089590403e-11
-1.440000000e-02	2.678579955e-01	-4.193572322e-04	1.057753787e-11
-1.450000000e-02	2.678579954e-01	-4.166438899e-04	1.444443764e-11
-1.460000000e-02	2.678579953e-01	-4.139305477e-04	6.203520165e-11
-1.470000000e-02	2.678579950e-01	-4.112172056e-04	7.030060790e-12
-1.480000000e-02	2.678579947e-01	-4.085038637e-04	1.660592485e-11
-1.490000000e-02	2.678579943e-01	-4.057905218e-04	8.367167979e-12
-1.500000000e-02	2.678579938e-01	-4.030771801e-04	1.665042981e-12
-1.510000000e-02	2.678579932e-01	-4.003638385e-04	4.194885015e-11
-1.520000000e-02	2.678579926e-01	-3.976504970e-04	1.785144200e-11
-1.530000000e-02	2.678579919e-01	-3.949371557e-04	7.910858393e-12
-1.540000000e-02	2.678579910e-01	-3.922238145e-04	1.997716275e-11
-1.550000000e-02	2.678579901e-01	-3.895104734e-04	5.290178353e-12
-1.560000000e-02	2.678579892e-01	-3.867971325e-04	1.303927079e-11
-1.570000000e-02	2.678579881e-01	-3.840837918e-04	2.638386225e-11
-1.580000000e-02	2.678579870e-01	-3.813704512e-04	1.135372656e-11
-1.590000000e-02	2.678579857e-01	-3.786571108e-04	3.371964735e-11
-1.600000000e-02	2.678579844e-01	-3.759437706e-04	1.038054677e-11
-1.610000000e-02	2.678579830e-01	-3.732304305e-04	1.021538278e-11
-1.620000000e-02	2.678579815e-01	-3.705170906e-04	3.315128763e-11
-1.630000000e-02	2.678579800e-01	-3.678037508e-04	6.560640393e-12
-1.640000000e-02	2.678579784e-01	-3.650904113e-04	1.968124247e-11
-1.650000000e-02	2.678579766e-01	-3.623770719e-04	6.706176842e-12
-1.660000000e-02	2.678579748e-01	-3.596637328e-04	2.287941308e-11
-1.670000000e-02	2.678579729e-01	-3.569503938e-04	1.161117215e-11
-1.680000000e-02	2.678579710e-01	-3.542370550e-04	7.211479380e-12
-1.690000000e-02	2.678579689e-01	-3.515237164e-04	1.347581387e-11
-1.700000000e-02	2.678579668e-01	-3.488103781e-04	4.017021813e-11
-1.710000000e-02	2.678579646e-01	-3.460970399e-04	1.574421553e-11
-1.720000000e-02	2.678579623e-01	-3.433837020e-04	1.190417603e-11
-1.730000000e-02	2.678579599e-01	-3.406703643e-04	1.233803753e-11
-1.740000000e-02	2.678579574e-01	-3.379570268e-04	4.989685766e-11
-1.750000000e-02	2.678579549e-01	-3.352436895e-04	8.971762531e-12
-1.760000000e-02	2.678579522e-01	-3.325303525e-04	5.998400525e-12
-1.770000000e-02	2.678579495e-01	-3.298170157e-04	8.402788947e-12
-1.780000000e-02	2.678579467e-01	-3.271036792e-04	4.700920911e-11
-1.790000000e-02	2.678579439e-01	-3.243903429e-04	1.332792668e-11
-1.800000000e-02	2.678579409e-01	-3.216770068e-04	9.272048142e-12
-1.810000000e-02	2.678579379e-01	-3.189636710e-04	1.137292195e-11
-1.820000000e-02	2.678579347e-01	-3.162503355e-04	1.477166134e-11
-1.830000000e-02	2.678579315e-01	-3.135370002e-04	1.137413022e-11
-1.840000000e-02	2.678579283e-01	-3.108236652e-04	1.348683507e-11
-1.850000000e-02	2.678579249e-01	-3.081103305e-04	9.761596979e-12
-1.860000000e-02	2.678579214e-01	-3.053969960e-04	1.135768446e-11
-1.870000000e-02	2.678579179e-01	-3.026836618e-04	9.467689646e-12
-1.880000000e-02	2.678579143e-01	-2.999703279e-04	2.349267815e-11
-1.890000000e-02	2.678579106e-01	-2.972569943e-04	2.061140880e-11
-1.900000000e-02	2.678579068e-01	-2.945436610e-04	2.677207898e-11
-1.910000000e-02	2.678579029e-01	-2.918303279e-04	1.196150115e-11
-1.920000000e-02	2.678578990e-01	-2.891169952e-04	1.404770923e-11
-1.930000000e-02	2.678578950e-01	-2.864036628e-04	1.956169944e-11
-1.940000000e-02	2.678578908e-01	-2.836903307e-04	3.038824390e-11
-1.950000000e-02	2.678578866e-01	-2.809769989e-04	2.529582949e-12
-1.960000000e-02	2.678578824e-01	-2.782636674e-04	2.987725897e-12
-1.970000000e-02	2.678578780e-01	-2.755503362e-04	8.615967929e-12
-1.980000000e-02	2.678578736e-01	-2.728370054e-04	9.933341804e-12
-1.990000000e-02	2.678578690e-01	-2.701236749e-04	2.380067264e-12
-2.000000000e-02	2.678578644e-01	-2.674103447e-04	4.229010217e-11
-2.010000000e-02	2.678578597e-01	-2.646970148e-04	4.567540045e-12
-2.020000000e-02	2.678578550e-01	-2.619836853e-04	2.968104041e-11
-2.030000000e-02	2.678578501e-01	-2.592703562e-04	2.339992134e-11
-2.040000000e-02	2.678578452e-01	-2.565570274e-04	3.962218559e-12
-2.050000000e-02	2.678578402e-01	-2.538436989e-04	2.756264007e-11
-2.060000000e-02	2.678578351e-01	-2.511303708e-04	1.523531455e-11
-2.070000000e-02	2.678578299e-01	-2.484170431e-04	1.528880736e-11
-2.080000000e-02	2.678578246e-01	-2.457037157e-04	4.167284193e-12
-2.090000000e-02	2.678578193e-01	-2.429903887e-04	6.903248839e-12
-2.100000000e-02	2.678578138e-01	-2.402770621e-04	5.934348811e-12
-2.110000000e-02	2.678578083e-01	-2.375637359e-04	3.328891950e-12
-2.120000000e-02	2.678578027e-01	-2.348504100e-04	1.767906696e-11
-2.130000000e-02	2.678577970e-01	-2.321370845e-04	1.003784692e-11
-2.140000000e-02	2.678577913e-01	-2.294237595e-04	7.831350082e-11
-2.150000000e-02	2.678577854e-01	-2.267104348e-04	2.080325134e-11
-2.160000000e-02	2.678577795e-01	-2.239971105e-04	1.015054562e-11
-2.170000000e-02	2.678577735e-01	-2.212837866e-04	7.045769995e-12
-2.180000000e-02	2.678577674e-01	-2.185704632e-04	1.346656128e-11
-2.190000000e-02	2.678577612e-01	-2.158571401e-04	1.065003765e-11
-2.200000000e-02	2.678577550e-01	-2.131438175e-04	5.501299711e-12
-2.210000000e-02	2.678577487e-01	-2.104304952e-04	1.098899239e-11
-2.220000000e-02	2.678577422e-01	-2.077171734e-04	1.700600479e-11
-2.230000000e-02	2.678577357e-01	-2.050038521e-04	1.194727429e-11
-2.240000000e-02	2.678577291e-01	-2.022905311e-04	1.783915582e-11
-2.250000000e-02	2.678577225e-01	-1.995772106e-04	1.887337375e-11
-2.260000000e-02	2.678577157e-01	-1.968638906e-04	8.557283778e-12
-2.270000000e-02	2.678577089e-01	-1.941505710e-04	1.626075797e-11
-2.280000000e-02	2.678577020e-01	-1.914372518e-04	1.094089188e-11
-2.290000000e-02	2.678576950e-01	-1.887239331e-04	1.845044935e-11
-2.300000000e-02	2.678576879e-01	-1.860106149e-04	1.095916882e-11
-2.310000000e-02	2.678576807e-01	-1.832972971e-04	1.020612839e-11
-2.320000000e-02	2.678576735e-01	-1.805839798e-04	1.222444219e-11
-2.330000000e-02	2.678576662e-01	-1.778706629e-04	1.312620734e-11
-2.340000000e-02	2.678576588e-01	-1.751573466e-04	9.850096311e-12
-2.350000000e-02	2.678576513e-01	-1.724440307e-04	1.069324835e-11
-2.360000000e-02	2.678576437e-01	-1.697307153e-04	1.205994718e-11
-2.370000000e-02	2.678576360e-01	-1.670174003e-04	1.038723841e-11
-2.380000000e-02	2.678576283e-01	-1.643040859e-04	8.255327744e-12
-2.390000000e-02	2.678576205e-01	-1.615907720e-04	4.695665630e-11
-2.400000000e-02	2.678576126e-01	-1.588774585e-04	6.858146725e-12
-2.410000000e-02	2.678576046e-01	-1.561641456e-04	1.460870916e-11
-2.420000000e-02	2.678575965e-01	-1.534508332e-04	8.503761742e-12
-2.430000000e-02	2.678575884e-01	-1.507375213e-04	1.985663455e-11
-2.440000000e-02	2.678575801e-01	-1.480242099e-04	1.912038874e-11
-2.450000000e-02	2.678575718e-01	-1.453108990e-04	1.063279707e-11
-2.460000000e-02	2.678575634e-01	-1.425975887e-04	2.288689733e-11
-2.470000000e-02	2.678575549e-01	-1.398842789e-04	1.307467155e-11
-2.480000000e-02	2.678575464e-01	-1.371709696e-04	8.326444593e-12
-2.490000000e-02	2.678575377e-01	-1.344576608e-04	1.579057013e-11
-2.500000000e-02	2.678575290e-01	-1.317443526e-04	1.959122469e-11
-2.510000000e-02	2.678575202e-01	-1.290310450e-04	2.496976883e-12
-2.520000000e-02	2.678575113e-01	-1.263177379e-04	3.050013639e-12
-2.530000000e-02	2.678575023e-01	-1.236044313e-04	1.205323678e-11
-2.540000000e-02	2.678574933e-01	-1.208911253e-04	1.775779047e-10
-2.550000000e-02	2.678574841e-01	-1.181778199e-04	2.649643563e-11
-2.560000000e-02	2.678574749e-01	-1.154645150e-04	1.211766088e-11
-2.570000000e-02	2.678574656e-01	-1.127512107e-04	1.193885590e-11
-2.580000000e-02	2.678574562e-01	-1.100379070e-04	7.470918652e-12
-2.590000000e-02	2.678574467e-01	-1.073246039e-04	1.356293498e-11
-2.600000000e-02	2.678574372e-01	-1.046113013e-04	1.172559259e-11
-2.610000000e-02	2.678574276e-01	-1.018979993e-04	3.848843815e-11
-2.620000000e-02	2.678574178e-01	-9.918469795e-05	9.030759404e-12
-2.630000000e-02	2.678574080e-01	-9.647139717e-05	1.283431407e-11
-2.640000000e-02	2.678573982e-01	-9.375809699e-05	1.643483438e-11
-2.650000000e-02	2.678573882e-01	-9.104479741e-05	8.699134772e-12
-2.660000000e-02	2.678573782e-01	-8.833149844e-05	2.190218349e-11
-2.670000000e-02	2.678573680e-01	-8.561820008e-05	5.047837558e-11
-2.680000000e-02	2.678573578e-01	-8.290490234e-05	8.919366467e-11
-2.690000000e-02	2.678573475e-01	-8.019160523e-05	9.134216993e-12
-2.700000000e-02	2.678573371e-01	-7.747830873e-05	3.101428807e-11
-2.710000000e-02	2.678573267e-01	-7.476501287e-05	1.093612880e-11
-2.720000000e-02	2.678573161e-01	-7.205171764e-05	2.031634297e-11
-2.730000000e-02	2.678573055e-01	-6.933842305e-05	1.612457717e-11
-2.740000000e-02	2.678572948e-01	-6.662512910e-05	1.386442061e-11
-2.750000000e-02	2.678572840e-01	-6.391183579e-05	5.695042566e-12
-2.760000000e-02	2.678572732e-01	-6.119854314e-05	8.581231813e-12
-2.770000000e-02	2.678572622e-01	-5.848525114e-05	3.061461158e-11
-2.780000000e-02	2.678572512e-01	-5.577195979e-05	2.612325342e-11
-2.790000000e-02	2.678572400e-01	-5.305866912e-05	7.528438223e-12
-2.800000000e-02	2.678572288e-01	-5.034537910e-05	9.615500698e-12
-2.810000000e-02	2.678572176e-01	-4.763208976e-05	8.966989027e-12
-2.820000000e-02	2.678572062e-01	-4.491880110e-05	1.605082204e-11
-2.830000000e-02	2.678571947e-01	-4.220551311e-05	2.664101400e-11
-2.840000000e-02	2.678571832e-01	-3.949222581e-05	2.813567525e-11
-2.850000000e-02	2.678571716e-01	-3.677893919e-05	1.745883852e-11
-2.860000000e-02	2.678571599e-01	-3.406565327e-05	7.403182511e-12
-2.870000000e-02	2.678571481e-01	-3.135236804e-05	8.433501241e-12
-2.880000000e-02	2.678571363e-01	-2.863908351e-05	1.869393578e-11
-2.890000000e-02	2.678571243e-01	-2.592579969e-05	2.156450182e-11
-2.900000000e-02	2.678571123e-01	-2.321251658e-05	7.439540244e-12
-2.910000000e-02	2.678571002e-01	-2.049923418e-05	1.239021286e-11
-2.920000000e-02	2.678570880e-01	-1.778595249e-05	4.954761743e-12
-2.930000000e-02	2.678570757e-01	-1.507267153e-05	4.575719450e-11
-2.940000000e-02	2.678570634e-01	-1.235939129e-05	5.746517101e-12
-2.950000000e-02	2.678570509e-01	-9.646111788e-06	2.368035878e-10
-2.960000000e-02	2.678570384e-01	-6.932833009e-06	2.419975084e-11
-2.970000000e-02	2.678570258e-01	-4.219554971e-06	1.072334685e-11
-2.980000000e-02	2.678570131e-01	-1.506277676e-06	4.894685707e-12
-2.990000000e-02	2.678570004e-01	1.206998872e-06	6.111234435e-11
-3.000000000e-02	2.678569875e-01	3.920274672e-06	3.180150968e-11
