# Im(epsi1)     Re(omega/c)      Im(omega/c)      Eq(det).Opt det CON kz, R=0.5 \mum, mu_c=0.3, Re(epsi1)=3.90solve_det_conkz_vs_kz.py
0.000000000e+00	2.678495625e-01	-8.100444285e-04	7.561510089e-12
-1.000000000e-04	2.678495743e-01	-8.073311744e-04	1.955508761e-11
-2.000000000e-04	2.678495860e-01	-8.046179199e-04	1.275515029e-11
-3.000000000e-04	2.678495977e-01	-8.019046648e-04	2.204659496e-11
-4.000000000e-04	2.678496092e-01	-7.991914093e-04	1.159759883e-11
-5.000000000e-04	2.678496207e-01	-7.964781533e-04	8.005083226e-12
-6.000000000e-04	2.678496321e-01	-7.937648968e-04	1.313924824e-11
-7.000000000e-04	2.678496434e-01	-7.910516399e-04	1.501868292e-11
-8.000000000e-04	2.678496546e-01	-7.883383825e-04	4.711453551e-11
-9.000000000e-04	2.678496657e-01	-7.856251246e-04	5.034790331e-11
-1.000000000e-03	2.678496768e-01	-7.829118663e-04	6.558941060e-12
-1.100000000e-03	2.678496877e-01	-7.801986075e-04	9.801550626e-12
-1.200000000e-03	2.678496986e-01	-7.774853482e-04	4.983718653e-11
-1.300000000e-03	2.678497094e-01	-7.747720885e-04	2.265033048e-11
-1.400000000e-03	2.678497201e-01	-7.720588284e-04	8.138714316e-12
-1.500000000e-03	2.678497308e-01	-7.693455678e-04	6.652607230e-12
-1.600000000e-03	2.678497413e-01	-7.666323068e-04	1.311775517e-11
-1.700000000e-03	2.678497518e-01	-7.639190454e-04	2.330626011e-11
-1.800000000e-03	2.678497622e-01	-7.612057835e-04	2.450387509e-11
-1.900000000e-03	2.678497725e-01	-7.584925212e-04	1.539303437e-11
-2.000000000e-03	2.678497828e-01	-7.557792585e-04	1.049255917e-10
-2.100000000e-03	2.678497929e-01	-7.530659954e-04	3.736747283e-12
-2.200000000e-03	2.678498030e-01	-7.503527319e-04	1.050871088e-11
-2.300000000e-03	2.678498130e-01	-7.476394679e-04	1.642461511e-11
-2.400000000e-03	2.678498228e-01	-7.449262036e-04	2.154055787e-11
-2.500000000e-03	2.678498327e-01	-7.422129389e-04	7.934135699e-12
-2.600000000e-03	2.678498424e-01	-7.394996737e-04	9.184068154e-11
-2.700000000e-03	2.678498521e-01	-7.367864082e-04	6.279023591e-12
-2.800000000e-03	2.678498616e-01	-7.340731423e-04	4.785370519e-11
-2.900000000e-03	2.678498711e-01	-7.313598761e-04	4.935052898e-11
-3.000000000e-03	2.678498805e-01	-7.286466094e-04	8.328750834e-12
-3.100000000e-03	2.678498898e-01	-7.259333424e-04	2.186748978e-11
-3.200000000e-03	2.678498991e-01	-7.232200750e-04	2.778029105e-11
-3.300000000e-03	2.678499082e-01	-7.205068072e-04	7.512165502e-12
-3.400000000e-03	2.678499173e-01	-7.177935391e-04	1.356431918e-11
-3.500000000e-03	2.678499263e-01	-7.150802707e-04	1.944670128e-11
-3.600000000e-03	2.678499352e-01	-7.123670018e-04	1.433099513e-11
-3.700000000e-03	2.678499440e-01	-7.096537327e-04	3.316579963e-11
-3.800000000e-03	2.678499528e-01	-7.069404632e-04	1.412076316e-11
-3.900000000e-03	2.678499614e-01	-7.042271933e-04	4.118675528e-11
-4.000000000e-03	2.678499700e-01	-7.015139231e-04	6.223485115e-12
-4.100000000e-03	2.678499785e-01	-6.988006526e-04	8.766468398e-12
-4.200000000e-03	2.678499869e-01	-6.960873818e-04	2.327505402e-11
-4.300000000e-03	2.678499953e-01	-6.933741106e-04	2.178576932e-11
-4.400000000e-03	2.678500035e-01	-6.906608391e-04	2.048278740e-11
-4.500000000e-03	2.678500117e-01	-6.879475674e-04	1.101747787e-11
-4.600000000e-03	2.678500198e-01	-6.852342953e-04	3.490664909e-11
-4.700000000e-03	2.678500278e-01	-6.825210228e-04	1.609335699e-11
-4.800000000e-03	2.678500357e-01	-6.798077501e-04	8.156146007e-12
-4.900000000e-03	2.678500435e-01	-6.770944771e-04	3.476298140e-11
-5.000000000e-03	2.678500513e-01	-6.743812038e-04	1.553395396e-11
-5.100000000e-03	2.678500590e-01	-6.716679303e-04	1.656067186e-11
-5.200000000e-03	2.678500666e-01	-6.689546564e-04	2.606430535e-11
-5.300000000e-03	2.678500741e-01	-6.662413822e-04	2.945368189e-11
-5.400000000e-03	2.678500815e-01	-6.635281078e-04	1.595301620e-11
-5.500000000e-03	2.678500888e-01	-6.608148331e-04	2.747505624e-11
-5.600000000e-03	2.678500961e-01	-6.581015582e-04	1.110469609e-11
-5.700000000e-03	2.678501033e-01	-6.553882829e-04	5.919578858e-11
-5.800000000e-03	2.678501104e-01	-6.526750074e-04	1.205954819e-11
-5.900000000e-03	2.678501174e-01	-6.499617317e-04	1.561127524e-11
-6.000000000e-03	2.678501243e-01	-6.472484557e-04	2.084300607e-11
-6.100000000e-03	2.678501312e-01	-6.445351795e-04	1.280529648e-11
-6.200000000e-03	2.678501380e-01	-6.418219030e-04	9.781856459e-12
-6.300000000e-03	2.678501446e-01	-6.391086263e-04	2.714720970e-11
-6.400000000e-03	2.678501512e-01	-6.363953493e-04	1.546982310e-11
-6.500000000e-03	2.678501578e-01	-6.336820721e-04	8.682935981e-12
-6.600000000e-03	2.678501642e-01	-6.309687947e-04	1.456942841e-11
-6.700000000e-03	2.678501706e-01	-6.282555171e-04	1.329337521e-11
-6.800000000e-03	2.678501768e-01	-6.255422393e-04	6.955723318e-12
-6.900000000e-03	2.678501830e-01	-6.228289612e-04	1.350111030e-11
-7.000000000e-03	2.678501891e-01	-6.201156829e-04	2.202252301e-11
-7.100000000e-03	2.678501951e-01	-6.174024045e-04	2.109711333e-11
-7.200000000e-03	2.678502011e-01	-6.146891258e-04	9.387854248e-12
-7.300000000e-03	2.678502070e-01	-6.119758469e-04	3.281084596e-11
-7.400000000e-03	2.678502127e-01	-6.092625678e-04	1.928276699e-11
-7.500000000e-03	2.678502184e-01	-6.065492886e-04	2.037836300e-11
-7.600000000e-03	2.678502240e-01	-6.038360091e-04	5.776456034e-12
-7.700000000e-03	2.678502296e-01	-6.011227295e-04	1.922396118e-11
-7.800000000e-03	2.678502350e-01	-5.984094497e-04	3.617713951e-12
-7.900000000e-03	2.678502404e-01	-5.956961698e-04	1.364294246e-11
-8.000000000e-03	2.678502457e-01	-5.929828896e-04	1.392563902e-11
-8.100000000e-03	2.678502509e-01	-5.902696093e-04	1.823263916e-11
-8.200000000e-03	2.678502560e-01	-5.875563289e-04	2.108361693e-11
-8.300000000e-03	2.678502610e-01	-5.848430483e-04	1.253329672e-11
-8.400000000e-03	2.678502660e-01	-5.821297675e-04	7.897777029e-12
-8.500000000e-03	2.678502708e-01	-5.794164866e-04	5.338009181e-11
-8.600000000e-03	2.678502756e-01	-5.767032056e-04	8.352840441e-12
-8.700000000e-03	2.678502803e-01	-5.739899244e-04	5.509484847e-11
-8.800000000e-03	2.678502850e-01	-5.712766431e-04	1.234206823e-10
-8.900000000e-03	2.678502895e-01	-5.685633616e-04	8.994554054e-12
-9.000000000e-03	2.678502940e-01	-5.658500800e-04	1.008014884e-11
-9.100000000e-03	2.678502983e-01	-5.631367983e-04	1.139695562e-11
-9.200000000e-03	2.678503026e-01	-5.604235165e-04	1.025212352e-11
-9.300000000e-03	2.678503069e-01	-5.577102346e-04	1.240205755e-11
-9.400000000e-03	2.678503110e-01	-5.549969526e-04	5.910670427e-12
-9.500000000e-03	2.678503150e-01	-5.522836704e-04	1.178637292e-11
-9.600000000e-03	2.678503190e-01	-5.495703882e-04	1.501297464e-11
-9.700000000e-03	2.678503229e-01	-5.468571058e-04	1.698620879e-11
-9.800000000e-03	2.678503267e-01	-5.441438234e-04	1.798029211e-11
-9.900000000e-03	2.678503304e-01	-5.414305409e-04	6.869944097e-12
-1.000000000e-02	2.678503340e-01	-5.387172583e-04	1.210550800e-11
-1.010000000e-02	2.678503376e-01	-5.360039756e-04	6.050742291e-11
-1.020000000e-02	2.678503411e-01	-5.332906928e-04	3.982966937e-11
-1.030000000e-02	2.678503444e-01	-5.305774100e-04	1.181853753e-11
-1.040000000e-02	2.678503477e-01	-5.278641271e-04	9.278279071e-12
-1.050000000e-02	2.678503510e-01	-5.251508441e-04	2.748254840e-11
-1.060000000e-02	2.678503541e-01	-5.224375611e-04	1.165808579e-11
-1.070000000e-02	2.678503572e-01	-5.197242780e-04	9.515020234e-12
-1.080000000e-02	2.678503601e-01	-5.170109949e-04	9.359075750e-12
-1.090000000e-02	2.678503630e-01	-5.142977117e-04	1.373410861e-11
-1.100000000e-02	2.678503658e-01	-5.115844285e-04	5.455968417e-11
-1.110000000e-02	2.678503686e-01	-5.088711453e-04	1.757902200e-11
-1.120000000e-02	2.678503712e-01	-5.061578620e-04	4.232545646e-11
-1.130000000e-02	2.678503738e-01	-5.034445787e-04	9.878654290e-12
-1.140000000e-02	2.678503763e-01	-5.007312953e-04	9.191872705e-12
-1.150000000e-02	2.678503787e-01	-4.980180120e-04	5.137356790e-11
-1.160000000e-02	2.678503810e-01	-4.953047286e-04	2.383635754e-11
-1.170000000e-02	2.678503832e-01	-4.925914452e-04	2.544361819e-11
-1.180000000e-02	2.678503854e-01	-4.898781618e-04	1.814356262e-11
-1.190000000e-02	2.678503874e-01	-4.871648784e-04	2.178178699e-11
-1.200000000e-02	2.678503894e-01	-4.844515950e-04	6.853740693e-12
-1.210000000e-02	2.678503913e-01	-4.817383116e-04	5.095105744e-11
-1.220000000e-02	2.678503932e-01	-4.790250282e-04	3.979017782e-11
-1.230000000e-02	2.678503949e-01	-4.763117448e-04	1.263070072e-11
-1.240000000e-02	2.678503965e-01	-4.735984614e-04	2.495622054e-11
-1.250000000e-02	2.678503981e-01	-4.708851781e-04	2.896181718e-11
-1.260000000e-02	2.678503996e-01	-4.681718948e-04	4.506763146e-11
-1.270000000e-02	2.678504010e-01	-4.654586115e-04	8.729328677e-12
-1.280000000e-02	2.678504024e-01	-4.627453282e-04	1.837531564e-11
-1.290000000e-02	2.678504036e-01	-4.600320450e-04	1.179129961e-11
-1.300000000e-02	2.678504048e-01	-4.573187618e-04	1.257081351e-11
-1.310000000e-02	2.678504058e-01	-4.546054787e-04	2.057774168e-11
-1.320000000e-02	2.678504068e-01	-4.518921956e-04	1.066160287e-11
-1.330000000e-02	2.678504078e-01	-4.491789125e-04	1.656944663e-11
-1.340000000e-02	2.678504086e-01	-4.464656296e-04	2.422240615e-11
-1.350000000e-02	2.678504093e-01	-4.437523467e-04	1.652474669e-11
-1.360000000e-02	2.678504100e-01	-4.410390638e-04	1.285880841e-11
-1.370000000e-02	2.678504106e-01	-4.383257810e-04	1.569720016e-11
-1.380000000e-02	2.678504111e-01	-4.356124983e-04	1.129388642e-11
-1.390000000e-02	2.678504115e-01	-4.328992157e-04	1.281195134e-11
-1.400000000e-02	2.678504119e-01	-4.301859332e-04	1.916745783e-11
-1.410000000e-02	2.678504121e-01	-4.274726507e-04	1.392177315e-11
-1.420000000e-02	2.678504123e-01	-4.247593683e-04	2.004246018e-11
-1.430000000e-02	2.678504124e-01	-4.220460861e-04	6.414308705e-12
-1.440000000e-02	2.678504124e-01	-4.193328039e-04	1.760904892e-11
-1.450000000e-02	2.678504123e-01	-4.166195218e-04	9.653193367e-12
-1.460000000e-02	2.678504122e-01	-4.139062399e-04	1.699286671e-11
-1.470000000e-02	2.678504119e-01	-4.111929580e-04	3.572625351e-11
-1.480000000e-02	2.678504116e-01	-4.084796763e-04	2.364089010e-11
-1.490000000e-02	2.678504112e-01	-4.057663947e-04	1.586896460e-11
-1.500000000e-02	2.678504107e-01	-4.030531132e-04	1.946992681e-11
-1.510000000e-02	2.678504101e-01	-4.003398319e-04	2.377623685e-11
-1.520000000e-02	2.678504095e-01	-3.976265506e-04	1.415359291e-11
-1.530000000e-02	2.678504087e-01	-3.949132696e-04	1.347893268e-11
-1.540000000e-02	2.678504079e-01	-3.921999886e-04	1.014110349e-11
-1.550000000e-02	2.678504070e-01	-3.894867078e-04	6.781115318e-12
-1.560000000e-02	2.678504061e-01	-3.867734272e-04	8.894626064e-12
-1.570000000e-02	2.678504050e-01	-3.840601467e-04	1.158780390e-11
-1.580000000e-02	2.678504038e-01	-3.813468663e-04	7.204025924e-12
-1.590000000e-02	2.678504026e-01	-3.786335862e-04	8.364231256e-12
-1.600000000e-02	2.678504013e-01	-3.759203062e-04	8.119666866e-12
-1.610000000e-02	2.678503999e-01	-3.732070263e-04	7.619758594e-11
-1.620000000e-02	2.678503984e-01	-3.704937467e-04	8.795543641e-12
-1.630000000e-02	2.678503969e-01	-3.677804672e-04	2.160563176e-11
-1.640000000e-02	2.678503952e-01	-3.650671879e-04	2.017155719e-11
-1.650000000e-02	2.678503935e-01	-3.623539088e-04	1.638163308e-11
-1.660000000e-02	2.678503917e-01	-3.596406298e-04	9.647330749e-12
-1.670000000e-02	2.678503898e-01	-3.569273511e-04	1.374392645e-11
-1.680000000e-02	2.678503879e-01	-3.542140726e-04	5.068765788e-12
-1.690000000e-02	2.678503858e-01	-3.515007943e-04	1.666360440e-11
-1.700000000e-02	2.678503837e-01	-3.487875161e-04	6.579521958e-12
-1.710000000e-02	2.678503815e-01	-3.460742382e-04	8.517540815e-12
-1.720000000e-02	2.678503792e-01	-3.433609605e-04	1.017864244e-11
-1.730000000e-02	2.678503768e-01	-3.406476831e-04	9.016736002e-12
-1.740000000e-02	2.678503743e-01	-3.379344058e-04	3.642905058e-11
-1.750000000e-02	2.678503718e-01	-3.352211288e-04	5.294427004e-12
-1.760000000e-02	2.678503691e-01	-3.325078521e-04	8.638453630e-12
-1.770000000e-02	2.678503664e-01	-3.297945755e-04	1.999938708e-11
-1.780000000e-02	2.678503636e-01	-3.270812992e-04	1.106021675e-10
-1.790000000e-02	2.678503608e-01	-3.243680232e-04	1.641090736e-11
-1.800000000e-02	2.678503578e-01	-3.216547473e-04	6.679572697e-12
-1.810000000e-02	2.678503548e-01	-3.189414718e-04	1.763180219e-11
-1.820000000e-02	2.678503516e-01	-3.162281965e-04	5.909205279e-11
-1.830000000e-02	2.678503484e-01	-3.135149215e-04	1.348798749e-11
-1.840000000e-02	2.678503451e-01	-3.108016467e-04	1.826821449e-11
-1.850000000e-02	2.678503418e-01	-3.080883722e-04	3.031085206e-11
-1.860000000e-02	2.678503383e-01	-3.053750980e-04	2.828149910e-11
-1.870000000e-02	2.678503348e-01	-3.026618241e-04	1.096724201e-11
-1.880000000e-02	2.678503312e-01	-2.999485504e-04	2.137125202e-11
-1.890000000e-02	2.678503275e-01	-2.972352770e-04	2.423902048e-11
-1.900000000e-02	2.678503237e-01	-2.945220039e-04	1.065019979e-11
-1.910000000e-02	2.678503198e-01	-2.918087312e-04	6.133795411e-12
-1.920000000e-02	2.678503159e-01	-2.890954587e-04	9.974970393e-12
-1.930000000e-02	2.678503118e-01	-2.863821865e-04	3.724504789e-11
-1.940000000e-02	2.678503077e-01	-2.836689146e-04	1.181040632e-11
-1.950000000e-02	2.678503035e-01	-2.809556431e-04	7.774563101e-12
-1.960000000e-02	2.678502992e-01	-2.782423718e-04	4.197075782e-12
-1.970000000e-02	2.678502949e-01	-2.755291009e-04	5.326769898e-12
-1.980000000e-02	2.678502904e-01	-2.728158303e-04	3.272359593e-11
-1.990000000e-02	2.678502859e-01	-2.701025600e-04	9.305194958e-12
-2.000000000e-02	2.678502813e-01	-2.673892901e-04	9.269094756e-12
-2.010000000e-02	2.678502766e-01	-2.646760205e-04	5.312511251e-11
-2.020000000e-02	2.678502719e-01	-2.619627513e-04	2.069676694e-11
-2.030000000e-02	2.678502670e-01	-2.592494823e-04	1.115286620e-11
-2.040000000e-02	2.678502621e-01	-2.565362138e-04	8.669995569e-12
-2.050000000e-02	2.678502570e-01	-2.538229456e-04	1.693791647e-11
-2.060000000e-02	2.678502519e-01	-2.511096777e-04	1.125010330e-11
-2.070000000e-02	2.678502468e-01	-2.483964103e-04	9.723897083e-12
-2.080000000e-02	2.678502415e-01	-2.456831431e-04	7.058089896e-12
-2.090000000e-02	2.678502361e-01	-2.429698764e-04	1.176122430e-10
-2.100000000e-02	2.678502307e-01	-2.402566100e-04	1.067967477e-11
-2.110000000e-02	2.678502252e-01	-2.375433440e-04	2.189705411e-11
-2.120000000e-02	2.678502196e-01	-2.348300784e-04	7.444754697e-12
-2.130000000e-02	2.678502139e-01	-2.321168132e-04	7.173581882e-12
-2.140000000e-02	2.678502082e-01	-2.294035483e-04	2.164168888e-11
-2.150000000e-02	2.678502023e-01	-2.266902839e-04	5.198350398e-11
-2.160000000e-02	2.678501964e-01	-2.239770199e-04	1.282557879e-11
-2.170000000e-02	2.678501904e-01	-2.212637562e-04	1.256770130e-11
-2.180000000e-02	2.678501843e-01	-2.185504930e-04	3.758309546e-11
-2.190000000e-02	2.678501781e-01	-2.158372302e-04	2.359524934e-11
-2.200000000e-02	2.678501719e-01	-2.131239678e-04	1.263337906e-11
-2.210000000e-02	2.678501655e-01	-2.104107058e-04	8.784764458e-12
-2.220000000e-02	2.678501591e-01	-2.076974443e-04	1.574712623e-11
-2.230000000e-02	2.678501526e-01	-2.049841832e-04	1.096784720e-11
-2.240000000e-02	2.678501460e-01	-2.022709225e-04	1.057627745e-11
-2.250000000e-02	2.678501393e-01	-1.995576622e-04	8.839902494e-12
-2.260000000e-02	2.678501326e-01	-1.968444024e-04	5.457505193e-12
-2.270000000e-02	2.678501258e-01	-1.941311431e-04	7.787157409e-12
-2.280000000e-02	2.678501188e-01	-1.914178842e-04	1.183726858e-11
-2.290000000e-02	2.678501119e-01	-1.887046257e-04	2.086536032e-11
-2.300000000e-02	2.678501048e-01	-1.859913677e-04	7.456049184e-12
-2.310000000e-02	2.678500976e-01	-1.832781102e-04	1.484084171e-10
-2.320000000e-02	2.678500904e-01	-1.805648531e-04	1.024475855e-11
-2.330000000e-02	2.678500830e-01	-1.778515965e-04	1.075441438e-11
-2.340000000e-02	2.678500756e-01	-1.751383404e-04	1.043079574e-11
-2.350000000e-02	2.678500681e-01	-1.724250847e-04	7.912193330e-11
-2.360000000e-02	2.678500606e-01	-1.697118296e-04	1.401503941e-11
-2.370000000e-02	2.678500529e-01	-1.669985749e-04	1.079547074e-11
-2.380000000e-02	2.678500452e-01	-1.642853207e-04	1.273299012e-11
-2.390000000e-02	2.678500373e-01	-1.615720670e-04	3.199263104e-12
-2.400000000e-02	2.678500294e-01	-1.588588138e-04	1.500612765e-11
-2.410000000e-02	2.678500215e-01	-1.561455612e-04	4.489976157e-11
-2.420000000e-02	2.678500134e-01	-1.534323090e-04	2.773172356e-11
-2.430000000e-02	2.678500052e-01	-1.507190573e-04	3.211221775e-11
-2.440000000e-02	2.678499970e-01	-1.480058062e-04	3.131899355e-11
-2.450000000e-02	2.678499887e-01	-1.452925555e-04	1.105117385e-11
-2.460000000e-02	2.678499803e-01	-1.425793054e-04	9.284683897e-12
-2.470000000e-02	2.678499718e-01	-1.398660559e-04	1.133575134e-11
-2.480000000e-02	2.678499632e-01	-1.371528068e-04	2.140464282e-11
-2.490000000e-02	2.678499546e-01	-1.344395583e-04	1.075765603e-11
-2.500000000e-02	2.678499459e-01	-1.317263104e-04	1.090970078e-11
-2.510000000e-02	2.678499371e-01	-1.290130630e-04	1.026527836e-11
-2.520000000e-02	2.678499282e-01	-1.262998161e-04	1.385993651e-11
-2.530000000e-02	2.678499192e-01	-1.235865698e-04	8.930236331e-12
-2.540000000e-02	2.678499101e-01	-1.208733241e-04	1.671065883e-11
-2.550000000e-02	2.678499010e-01	-1.181600789e-04	1.618324310e-11
-2.560000000e-02	2.678498918e-01	-1.154468343e-04	7.266932510e-12
-2.570000000e-02	2.678498825e-01	-1.127335902e-04	7.068252625e-12
-2.580000000e-02	2.678498731e-01	-1.100203467e-04	1.441147068e-11
-2.590000000e-02	2.678498636e-01	-1.073071038e-04	2.533339315e-11
-2.600000000e-02	2.678498541e-01	-1.045938615e-04	1.290734354e-11
-2.610000000e-02	2.678498444e-01	-1.018806198e-04	1.766980245e-11
-2.620000000e-02	2.678498347e-01	-9.916737868e-05	2.629048703e-11
-2.630000000e-02	2.678498249e-01	-9.645413815e-05	2.238532915e-11
-2.640000000e-02	2.678498150e-01	-9.374089821e-05	1.094380003e-11
-2.650000000e-02	2.678498051e-01	-9.102765888e-05	1.383680688e-11
-2.660000000e-02	2.678497950e-01	-8.831442016e-05	1.121287597e-11
-2.670000000e-02	2.678497849e-01	-8.560118205e-05	3.067043087e-11
-2.680000000e-02	2.678497747e-01	-8.288794456e-05	1.995396718e-11
-2.690000000e-02	2.678497644e-01	-8.017470769e-05	8.250897525e-12
-2.700000000e-02	2.678497540e-01	-7.746147145e-05	1.917291982e-11
-2.710000000e-02	2.678497435e-01	-7.474823583e-05	8.067124440e-12
-2.720000000e-02	2.678497330e-01	-7.203500085e-05	1.252151464e-11
-2.730000000e-02	2.678497224e-01	-6.932176650e-05	2.761213126e-11
-2.740000000e-02	2.678497117e-01	-6.660853280e-05	3.364505613e-11
-2.750000000e-02	2.678497009e-01	-6.389529974e-05	5.162786448e-12
-2.760000000e-02	2.678496900e-01	-6.118206733e-05	7.694524829e-11
-2.770000000e-02	2.678496791e-01	-5.846883558e-05	3.936518918e-11
-2.780000000e-02	2.678496680e-01	-5.575560449e-05	6.719276903e-12
-2.790000000e-02	2.678496569e-01	-5.304237405e-05	1.334930287e-11
-2.800000000e-02	2.678496457e-01	-5.032914429e-05	1.152351251e-11
-2.810000000e-02	2.678496344e-01	-4.761591520e-05	9.156266047e-12
-2.820000000e-02	2.678496230e-01	-4.490268678e-05	2.275078003e-11
-2.830000000e-02	2.678496116e-01	-4.218945904e-05	1.700781278e-11
-2.840000000e-02	2.678496001e-01	-3.947623198e-05	1.110442988e-11
-2.850000000e-02	2.678495885e-01	-3.676300562e-05	1.235092144e-11
-2.860000000e-02	2.678495768e-01	-3.404977994e-05	1.886439861e-11
-2.870000000e-02	2.678495650e-01	-3.133655496e-05	1.780152502e-11
-2.880000000e-02	2.678495531e-01	-2.862333068e-05	2.903982881e-11
-2.890000000e-02	2.678495412e-01	-2.591010711e-05	1.029123176e-11
-2.900000000e-02	2.678495292e-01	-2.319688424e-05	1.092259763e-11
-2.910000000e-02	2.678495170e-01	-2.048366209e-05	6.845557444e-12
-2.920000000e-02	2.678495049e-01	-1.777044065e-05	1.081191208e-11
-2.930000000e-02	2.678494926e-01	-1.505721993e-05	9.053284113e-12
-2.940000000e-02	2.678494802e-01	-1.234399994e-05	6.770726470e-12
-2.950000000e-02	2.678494678e-01	-9.630780682e-06	7.073556867e-12
-2.960000000e-02	2.678494553e-01	-6.917562155e-06	2.302485120e-11
-2.970000000e-02	2.678494427e-01	-4.204344365e-06	8.118705143e-12
-2.980000000e-02	2.678494300e-01	-1.491127317e-06	1.516227028e-11
-2.990000000e-02	2.678494172e-01	1.222088984e-06	1.167887022e-11
-3.000000000e-02	2.678494044e-01	3.935304536e-06	1.991042752e-11
