# Im(epsi1)     Re(omega/c)      Im(omega/c)      Eq(det).Opt det CON kz, R=0.5 \mum, mu_c=0.3, Re(epsi1)=3.90solve_det_conkz_vs_kz.py
0.000000000e+00	2.678569244e-01	-8.100765667e-04	3.515610848e-11
-1.000000000e-04	2.678569362e-01	-8.073632542e-04	7.653105876e-12
-2.000000000e-04	2.678569480e-01	-8.046499412e-04	1.600884152e-11
-3.000000000e-04	2.678569596e-01	-8.019366276e-04	1.108732954e-11
-4.000000000e-04	2.678569711e-01	-7.992233136e-04	2.102993874e-11
-5.000000000e-04	2.678569826e-01	-7.965099992e-04	5.774459287e-12
-6.000000000e-04	2.678569940e-01	-7.937966842e-04	1.464454358e-11
-7.000000000e-04	2.678570053e-01	-7.910833688e-04	2.711878177e-11
-8.000000000e-04	2.678570165e-01	-7.883700529e-04	6.629470503e-12
-9.000000000e-04	2.678570276e-01	-7.856567365e-04	3.483949368e-11
-1.000000000e-03	2.678570387e-01	-7.829434197e-04	8.972081136e-12
-1.100000000e-03	2.678570497e-01	-7.802301024e-04	2.608388644e-11
-1.200000000e-03	2.678570606e-01	-7.775167846e-04	9.908119546e-12
-1.300000000e-03	2.678570714e-01	-7.748034665e-04	1.641884386e-11
-1.400000000e-03	2.678570821e-01	-7.720901478e-04	1.523321156e-11
-1.500000000e-03	2.678570927e-01	-7.693768288e-04	1.354588287e-11
-1.600000000e-03	2.678571033e-01	-7.666635093e-04	3.425350371e-11
-1.700000000e-03	2.678571138e-01	-7.639501894e-04	2.369344795e-11
-1.800000000e-03	2.678571242e-01	-7.612368690e-04	1.308866774e-11
-1.900000000e-03	2.678571345e-01	-7.585235482e-04	1.350703371e-11
-2.000000000e-03	2.678571447e-01	-7.558102271e-04	1.703624271e-11
-2.100000000e-03	2.678571548e-01	-7.530969054e-04	1.599438094e-11
-2.200000000e-03	2.678571649e-01	-7.503835834e-04	1.362004118e-11
-2.300000000e-03	2.678571749e-01	-7.476702610e-04	7.604612245e-12
-2.400000000e-03	2.678571848e-01	-7.449569382e-04	4.558874638e-12
-2.500000000e-03	2.678571946e-01	-7.422436150e-04	3.300534394e-11
-2.600000000e-03	2.678572043e-01	-7.395302914e-04	4.774420456e-11
-2.700000000e-03	2.678572140e-01	-7.368169674e-04	8.151284043e-12
-2.800000000e-03	2.678572236e-01	-7.341036430e-04	1.189153014e-11
-2.900000000e-03	2.678572331e-01	-7.313903182e-04	1.029020388e-11
-3.000000000e-03	2.678572425e-01	-7.286769931e-04	7.706900406e-12
-3.100000000e-03	2.678572518e-01	-7.259636676e-04	5.093479146e-12
-3.200000000e-03	2.678572610e-01	-7.232503417e-04	1.063796387e-11
-3.300000000e-03	2.678572702e-01	-7.205370155e-04	7.228798245e-12
-3.400000000e-03	2.678572793e-01	-7.178236889e-04	1.983760889e-11
-3.500000000e-03	2.678572883e-01	-7.151103619e-04	5.613402745e-12
-3.600000000e-03	2.678572972e-01	-7.123970346e-04	1.494621818e-11
-3.700000000e-03	2.678573060e-01	-7.096837069e-04	6.204302815e-12
-3.800000000e-03	2.678573147e-01	-7.069703790e-04	1.426358809e-11
-3.900000000e-03	2.678573234e-01	-7.042570506e-04	1.114145943e-11
-4.000000000e-03	2.678573320e-01	-7.015437219e-04	8.289516229e-12
-4.100000000e-03	2.678573405e-01	-6.988303929e-04	7.519333855e-12
-4.200000000e-03	2.678573489e-01	-6.961170636e-04	8.690935350e-12
-4.300000000e-03	2.678573572e-01	-6.934037340e-04	4.641066712e-12
-4.400000000e-03	2.678573655e-01	-6.906904040e-04	1.374570656e-11
-4.500000000e-03	2.678573737e-01	-6.879770737e-04	1.158861555e-11
-4.600000000e-03	2.678573817e-01	-6.852637431e-04	7.056135565e-12
-4.700000000e-03	2.678573897e-01	-6.825504123e-04	5.572551199e-12
-4.800000000e-03	2.678573977e-01	-6.798370811e-04	2.656244686e-12
-4.900000000e-03	2.678574055e-01	-6.771237496e-04	2.359368707e-11
-5.000000000e-03	2.678574133e-01	-6.744104178e-04	7.092148897e-12
-5.100000000e-03	2.678574209e-01	-6.716970857e-04	5.151267233e-11
-5.200000000e-03	2.678574285e-01	-6.689837534e-04	3.007853870e-12
-5.300000000e-03	2.678574360e-01	-6.662704207e-04	3.158752404e-12
-5.400000000e-03	2.678574435e-01	-6.635570878e-04	2.107308194e-11
-5.500000000e-03	2.678574508e-01	-6.608437546e-04	5.383300934e-12
-5.600000000e-03	2.678574581e-01	-6.581304212e-04	2.176565000e-11
-5.700000000e-03	2.678574653e-01	-6.554170875e-04	1.210165119e-11
-5.800000000e-03	2.678574724e-01	-6.527037535e-04	1.308706143e-11
-5.900000000e-03	2.678574794e-01	-6.499904193e-04	1.757578297e-11
-6.000000000e-03	2.678574863e-01	-6.472770848e-04	4.649955596e-11
-6.100000000e-03	2.678574932e-01	-6.445637501e-04	1.026569049e-11
-6.200000000e-03	2.678574999e-01	-6.418504151e-04	6.010432712e-12
-6.300000000e-03	2.678575066e-01	-6.391370799e-04	1.251830614e-11
-6.400000000e-03	2.678575132e-01	-6.364237445e-04	1.582931593e-11
-6.500000000e-03	2.678575197e-01	-6.337104088e-04	1.463475863e-11
-6.600000000e-03	2.678575262e-01	-6.309970729e-04	1.570522407e-11
-6.700000000e-03	2.678575325e-01	-6.282837368e-04	2.507518959e-11
-6.800000000e-03	2.678575388e-01	-6.255704004e-04	4.633572975e-12
-6.900000000e-03	2.678575450e-01	-6.228570639e-04	6.916981930e-12
-7.000000000e-03	2.678575511e-01	-6.201437271e-04	7.590943491e-12
-7.100000000e-03	2.678575571e-01	-6.174303902e-04	2.108933454e-11
-7.200000000e-03	2.678575631e-01	-6.147170530e-04	2.783493270e-11
-7.300000000e-03	2.678575689e-01	-6.120037156e-04	3.471667442e-11
-7.400000000e-03	2.678575747e-01	-6.092903781e-04	4.335308448e-11
-7.500000000e-03	2.678575804e-01	-6.065770404e-04	2.696643310e-11
-7.600000000e-03	2.678575860e-01	-6.038637024e-04	8.713988225e-12
-7.700000000e-03	2.678575915e-01	-6.011503643e-04	6.202835579e-12
-7.800000000e-03	2.678575970e-01	-5.984370260e-04	1.316313679e-11
-7.900000000e-03	2.678576024e-01	-5.957236876e-04	3.941974794e-12
-8.000000000e-03	2.678576076e-01	-5.930103490e-04	3.283450622e-11
-8.100000000e-03	2.678576128e-01	-5.902970102e-04	1.404068687e-11
-8.200000000e-03	2.678576180e-01	-5.875836713e-04	8.476123825e-12
-8.300000000e-03	2.678576230e-01	-5.848703322e-04	9.889722135e-12
-8.400000000e-03	2.678576280e-01	-5.821569929e-04	3.466807139e-11
-8.500000000e-03	2.678576328e-01	-5.794436535e-04	1.170915425e-11
-8.600000000e-03	2.678576376e-01	-5.767303140e-04	1.011436699e-11
-8.700000000e-03	2.678576423e-01	-5.740169743e-04	2.273474306e-11
-8.800000000e-03	2.678576470e-01	-5.713036345e-04	1.600511925e-11
-8.900000000e-03	2.678576515e-01	-5.685902946e-04	1.333894344e-11
-9.000000000e-03	2.678576560e-01	-5.658769545e-04	8.193099168e-12
-9.100000000e-03	2.678576603e-01	-5.631636143e-04	2.610747704e-11
-9.200000000e-03	2.678576646e-01	-5.604502740e-04	1.237598456e-11
-9.300000000e-03	2.678576688e-01	-5.577369336e-04	4.063233772e-11
-9.400000000e-03	2.678576730e-01	-5.550235931e-04	1.594136418e-11
-9.500000000e-03	2.678576770e-01	-5.523102524e-04	1.034394047e-11
-9.600000000e-03	2.678576810e-01	-5.495969117e-04	2.084758183e-11
-9.700000000e-03	2.678576849e-01	-5.468835709e-04	2.853293570e-12
-9.800000000e-03	2.678576887e-01	-5.441702300e-04	1.919850109e-11
-9.900000000e-03	2.678576924e-01	-5.414568889e-04	3.639259975e-12
-1.000000000e-02	2.678576960e-01	-5.387435479e-04	5.923907405e-12
-1.010000000e-02	2.678576996e-01	-5.360302067e-04	1.962999321e-11
-1.020000000e-02	2.678577030e-01	-5.333168654e-04	2.139947356e-11
-1.030000000e-02	2.678577064e-01	-5.306035241e-04	2.342840467e-11
-1.040000000e-02	2.678577097e-01	-5.278901827e-04	1.035519590e-11
-1.050000000e-02	2.678577130e-01	-5.251768413e-04	8.798901560e-12
-1.060000000e-02	2.678577161e-01	-5.224634998e-04	1.830566611e-11
-1.070000000e-02	2.678577192e-01	-5.197501582e-04	3.751659612e-11
-1.080000000e-02	2.678577221e-01	-5.170368166e-04	1.053339607e-11
-1.090000000e-02	2.678577250e-01	-5.143234749e-04	4.584688841e-12
-1.100000000e-02	2.678577278e-01	-5.116101332e-04	8.655602904e-12
-1.110000000e-02	2.678577306e-01	-5.088967915e-04	7.420307216e-12
-1.120000000e-02	2.678577332e-01	-5.061834497e-04	1.517039305e-11
-1.130000000e-02	2.678577358e-01	-5.034701079e-04	1.791935454e-11
-1.140000000e-02	2.678577383e-01	-5.007567661e-04	1.010248569e-11
-1.150000000e-02	2.678577407e-01	-4.980434242e-04	2.043213430e-11
-1.160000000e-02	2.678577430e-01	-4.953300824e-04	9.186623287e-12
-1.170000000e-02	2.678577452e-01	-4.926167405e-04	1.223822506e-11
-1.180000000e-02	2.678577474e-01	-4.899033986e-04	9.932428953e-12
-1.190000000e-02	2.678577494e-01	-4.871900567e-04	7.748202024e-12
-1.200000000e-02	2.678577514e-01	-4.844767148e-04	1.136902486e-11
-1.210000000e-02	2.678577533e-01	-4.817633729e-04	1.176008334e-11
-1.220000000e-02	2.678577552e-01	-4.790500310e-04	1.656263961e-11
-1.230000000e-02	2.678577569e-01	-4.763366892e-04	1.743366231e-11
-1.240000000e-02	2.678577585e-01	-4.736233473e-04	2.980727071e-11
-1.250000000e-02	2.678577601e-01	-4.709100055e-04	1.409015147e-11
-1.260000000e-02	2.678577616e-01	-4.681966637e-04	2.528980508e-11
-1.270000000e-02	2.678577630e-01	-4.654833219e-04	1.512054385e-11
-1.280000000e-02	2.678577644e-01	-4.627699801e-04	2.115678396e-11
-1.290000000e-02	2.678577656e-01	-4.600566384e-04	2.496633620e-12
-1.300000000e-02	2.678577668e-01	-4.573432967e-04	1.985449603e-11
-1.310000000e-02	2.678577678e-01	-4.546299551e-04	1.155865298e-11
-1.320000000e-02	2.678577688e-01	-4.519166135e-04	5.308131133e-11
-1.330000000e-02	2.678577698e-01	-4.492032720e-04	9.253189612e-12
-1.340000000e-02	2.678577706e-01	-4.464899306e-04	1.032778932e-11
-1.350000000e-02	2.678577713e-01	-4.437765891e-04	2.795689230e-11
-1.360000000e-02	2.678577720e-01	-4.410632478e-04	2.251400112e-11
-1.370000000e-02	2.678577726e-01	-4.383499065e-04	5.022802135e-12
-1.380000000e-02	2.678577731e-01	-4.356365654e-04	2.503805045e-11
-1.390000000e-02	2.678577735e-01	-4.329232242e-04	1.683422979e-11
-1.400000000e-02	2.678577739e-01	-4.302098832e-04	1.029228175e-11
-1.410000000e-02	2.678577741e-01	-4.274965423e-04	1.020246922e-11
-1.420000000e-02	2.678577743e-01	-4.247832014e-04	3.996142185e-11
-1.430000000e-02	2.678577744e-01	-4.220698607e-04	1.924206293e-11
-1.440000000e-02	2.678577744e-01	-4.193565200e-04	8.343182515e-12
-1.450000000e-02	2.678577743e-01	-4.166431794e-04	1.630032855e-11
-1.460000000e-02	2.678577742e-01	-4.139298390e-04	2.004626908e-11
-1.470000000e-02	2.678577739e-01	-4.112164987e-04	5.487759080e-12
-1.480000000e-02	2.678577736e-01	-4.085031584e-04	8.127588637e-12
-1.490000000e-02	2.678577732e-01	-4.057898184e-04	1.664191826e-11
-1.500000000e-02	2.678577727e-01	-4.030764784e-04	1.181463718e-11
-1.510000000e-02	2.678577721e-01	-4.003631385e-04	1.867538009e-11
-1.520000000e-02	2.678577715e-01	-3.976497988e-04	1.404058785e-11
-1.530000000e-02	2.678577708e-01	-3.949364593e-04	1.017320951e-11
-1.540000000e-02	2.678577699e-01	-3.922231198e-04	3.957727238e-11
-1.550000000e-02	2.678577690e-01	-3.895097805e-04	8.456401016e-12
-1.560000000e-02	2.678577681e-01	-3.867964414e-04	8.839312022e-12
-1.570000000e-02	2.678577670e-01	-3.840831024e-04	2.633242901e-11
-1.580000000e-02	2.678577659e-01	-3.813697636e-04	1.888802178e-11
-1.590000000e-02	2.678577646e-01	-3.786564249e-04	3.833030403e-11
-1.600000000e-02	2.678577633e-01	-3.759430864e-04	3.537858912e-11
-1.610000000e-02	2.678577619e-01	-3.732297481e-04	1.094630092e-11
-1.620000000e-02	2.678577605e-01	-3.705164099e-04	1.150951467e-11
-1.630000000e-02	2.678577589e-01	-3.678030720e-04	1.313476071e-11
-1.640000000e-02	2.678577573e-01	-3.650897342e-04	1.113586287e-11
-1.650000000e-02	2.678577555e-01	-3.623763966e-04	6.639461216e-12
-1.660000000e-02	2.678577537e-01	-3.596630592e-04	3.283150951e-11
-1.670000000e-02	2.678577518e-01	-3.569497220e-04	4.800101580e-12
-1.680000000e-02	2.678577499e-01	-3.542363849e-04	1.772693255e-11
-1.690000000e-02	2.678577478e-01	-3.515230481e-04	9.207473932e-12
-1.700000000e-02	2.678577457e-01	-3.488097115e-04	1.072613414e-11
-1.710000000e-02	2.678577435e-01	-3.460963751e-04	1.294401457e-11
-1.720000000e-02	2.678577412e-01	-3.433830390e-04	1.278139835e-11
-1.730000000e-02	2.678577388e-01	-3.406697030e-04	4.869565296e-12
-1.740000000e-02	2.678577363e-01	-3.379563673e-04	1.783556732e-11
-1.750000000e-02	2.678577338e-01	-3.352430318e-04	8.264421492e-12
-1.760000000e-02	2.678577312e-01	-3.325296965e-04	2.406470422e-11
-1.770000000e-02	2.678577284e-01	-3.298163615e-04	9.601156781e-12
-1.780000000e-02	2.678577257e-01	-3.271030267e-04	1.549330277e-11
-1.790000000e-02	2.678577228e-01	-3.243896921e-04	1.540431457e-11
-1.800000000e-02	2.678577198e-01	-3.216763578e-04	1.735622703e-11
-1.810000000e-02	2.678577168e-01	-3.189630238e-04	1.710834530e-11
-1.820000000e-02	2.678577137e-01	-3.162496900e-04	9.230388751e-12
-1.830000000e-02	2.678577104e-01	-3.135363565e-04	1.444804163e-11
-1.840000000e-02	2.678577072e-01	-3.108230232e-04	9.702986047e-11
-1.850000000e-02	2.678577038e-01	-3.081096903e-04	4.754711224e-11
-1.860000000e-02	2.678577003e-01	-3.053963575e-04	1.528758048e-11
-1.870000000e-02	2.678576968e-01	-3.026830251e-04	4.502075124e-11
-1.880000000e-02	2.678576932e-01	-2.999696930e-04	8.343529407e-12
-1.890000000e-02	2.678576895e-01	-2.972563611e-04	9.304523561e-12
-1.900000000e-02	2.678576857e-01	-2.945430295e-04	7.029412604e-12
-1.910000000e-02	2.678576818e-01	-2.918296983e-04	1.718342623e-10
-1.920000000e-02	2.678576779e-01	-2.891163673e-04	1.175138381e-11
-1.930000000e-02	2.678576739e-01	-2.864030366e-04	1.160248691e-11
-1.940000000e-02	2.678576697e-01	-2.836897063e-04	3.402659527e-11
-1.950000000e-02	2.678576656e-01	-2.809763762e-04	7.790004125e-12
-1.960000000e-02	2.678576613e-01	-2.782630465e-04	8.154550726e-12
-1.970000000e-02	2.678576569e-01	-2.755497171e-04	3.086166737e-11
-1.980000000e-02	2.678576525e-01	-2.728363880e-04	1.165172208e-11
-1.990000000e-02	2.678576480e-01	-2.701230592e-04	1.488928533e-11
-2.000000000e-02	2.678576433e-01	-2.674097308e-04	1.179161515e-11
-2.010000000e-02	2.678576387e-01	-2.646964027e-04	1.442992680e-11
-2.020000000e-02	2.678576339e-01	-2.619830750e-04	8.985270885e-12
-2.030000000e-02	2.678576290e-01	-2.592697476e-04	7.615073265e-12
-2.040000000e-02	2.678576241e-01	-2.565564205e-04	1.184586929e-11
-2.050000000e-02	2.678576191e-01	-2.538430938e-04	1.258044914e-11
-2.060000000e-02	2.678576140e-01	-2.511297675e-04	1.337636138e-11
-2.070000000e-02	2.678576088e-01	-2.484164415e-04	3.315594226e-10
-2.080000000e-02	2.678576035e-01	-2.457031159e-04	1.359532209e-11
-2.090000000e-02	2.678575982e-01	-2.429897907e-04	1.867766851e-11
-2.100000000e-02	2.678575927e-01	-2.402764658e-04	1.499135844e-11
-2.110000000e-02	2.678575872e-01	-2.375631413e-04	1.226226173e-12
-2.120000000e-02	2.678575816e-01	-2.348498172e-04	9.792692449e-12
-2.130000000e-02	2.678575760e-01	-2.321364935e-04	1.123421232e-11
-2.140000000e-02	2.678575702e-01	-2.294231702e-04	1.385950163e-11
-2.150000000e-02	2.678575644e-01	-2.267098473e-04	6.591096479e-12
-2.160000000e-02	2.678575584e-01	-2.239965247e-04	1.073448484e-11
-2.170000000e-02	2.678575524e-01	-2.212832026e-04	1.076719100e-11
-2.180000000e-02	2.678575463e-01	-2.185698809e-04	2.505056558e-11
-2.190000000e-02	2.678575402e-01	-2.158565596e-04	1.239247632e-11
-2.200000000e-02	2.678575339e-01	-2.131432387e-04	1.111026264e-11
-2.210000000e-02	2.678575276e-01	-2.104299183e-04	5.293734129e-12
-2.220000000e-02	2.678575211e-01	-2.077165982e-04	2.269989721e-11
-2.230000000e-02	2.678575146e-01	-2.050032786e-04	2.120980707e-11
-2.240000000e-02	2.678575081e-01	-2.022899594e-04	1.477664243e-11
-2.250000000e-02	2.678575014e-01	-1.995766407e-04	1.688090215e-11
-2.260000000e-02	2.678574946e-01	-1.968633224e-04	1.132361353e-10
-2.270000000e-02	2.678574878e-01	-1.941500045e-04	3.824861663e-12
-2.280000000e-02	2.678574809e-01	-1.914366871e-04	3.970596247e-11
-2.290000000e-02	2.678574739e-01	-1.887233702e-04	3.866109562e-11
-2.300000000e-02	2.678574668e-01	-1.860100537e-04	2.780233244e-11
-2.310000000e-02	2.678574597e-01	-1.832967377e-04	1.347462753e-11
-2.320000000e-02	2.678574524e-01	-1.805834221e-04	3.091881880e-11
-2.330000000e-02	2.678574451e-01	-1.778701070e-04	9.743363905e-12
-2.340000000e-02	2.678574377e-01	-1.751567924e-04	6.455664497e-12
-2.350000000e-02	2.678574302e-01	-1.724434783e-04	7.830945711e-12
-2.360000000e-02	2.678574226e-01	-1.697301646e-04	1.196656684e-11
-2.370000000e-02	2.678574150e-01	-1.670168515e-04	6.956632308e-11
-2.380000000e-02	2.678574072e-01	-1.643035388e-04	1.311308848e-11
-2.390000000e-02	2.678573994e-01	-1.615902266e-04	2.800151140e-11
-2.400000000e-02	2.678573915e-01	-1.588769149e-04	1.408056077e-11
-2.410000000e-02	2.678573835e-01	-1.561636038e-04	1.485612304e-11
-2.420000000e-02	2.678573754e-01	-1.534502931e-04	1.047553862e-11
-2.430000000e-02	2.678573673e-01	-1.507369829e-04	5.505446927e-12
-2.440000000e-02	2.678573590e-01	-1.480236733e-04	2.169361052e-11
-2.450000000e-02	2.678573507e-01	-1.453103642e-04	4.872493149e-11
-2.460000000e-02	2.678573423e-01	-1.425970556e-04	3.466125840e-11
-2.470000000e-02	2.678573339e-01	-1.398837475e-04	5.905457613e-12
-2.480000000e-02	2.678573253e-01	-1.371704400e-04	1.026468387e-11
-2.490000000e-02	2.678573166e-01	-1.344571330e-04	7.113577622e-12
-2.500000000e-02	2.678573079e-01	-1.317438266e-04	7.309239900e-12
-2.510000000e-02	2.678572991e-01	-1.290305207e-04	1.328141063e-11
-2.520000000e-02	2.678572902e-01	-1.263172153e-04	8.481450799e-12
-2.530000000e-02	2.678572812e-01	-1.236039105e-04	9.872154603e-12
-2.540000000e-02	2.678572722e-01	-1.208906063e-04	9.430836495e-13
-2.550000000e-02	2.678572630e-01	-1.181773026e-04	8.441219309e-12
-2.560000000e-02	2.678572538e-01	-1.154639995e-04	2.143802501e-11
-2.570000000e-02	2.678572445e-01	-1.127506970e-04	2.820310346e-11
-2.580000000e-02	2.678572351e-01	-1.100373950e-04	2.425792670e-11
-2.590000000e-02	2.678572257e-01	-1.073240936e-04	3.127050071e-12
-2.600000000e-02	2.678572161e-01	-1.046107928e-04	3.557132807e-11
-2.610000000e-02	2.678572065e-01	-1.018974926e-04	5.223271232e-12
-2.620000000e-02	2.678571968e-01	-9.918419299e-05	1.119444848e-11
-2.630000000e-02	2.678571870e-01	-9.647089397e-05	8.074867302e-11
-2.640000000e-02	2.678571771e-01	-9.375759554e-05	9.667916087e-12
-2.650000000e-02	2.678571671e-01	-9.104429772e-05	5.003125526e-12
-2.660000000e-02	2.678571571e-01	-8.833100051e-05	4.631361749e-12
-2.670000000e-02	2.678571469e-01	-8.561770391e-05	3.251577331e-11
-2.680000000e-02	2.678571367e-01	-8.290440793e-05	3.036282659e-11
-2.690000000e-02	2.678571264e-01	-8.019111257e-05	3.238345843e-11
-2.700000000e-02	2.678571161e-01	-7.747781783e-05	2.384965398e-11
-2.710000000e-02	2.678571056e-01	-7.476452372e-05	2.389740493e-12
-2.720000000e-02	2.678570951e-01	-7.205123025e-05	1.528516331e-11
-2.730000000e-02	2.678570844e-01	-6.933793741e-05	9.924427237e-12
-2.740000000e-02	2.678570737e-01	-6.662464522e-05	1.511324997e-11
-2.750000000e-02	2.678570629e-01	-6.391135367e-05	1.638247413e-11
-2.760000000e-02	2.678570521e-01	-6.119806277e-05	5.816689229e-12
-2.770000000e-02	2.678570411e-01	-5.848477253e-05	3.347851734e-12
-2.780000000e-02	2.678570301e-01	-5.577148295e-05	7.756999028e-12
-2.790000000e-02	2.678570190e-01	-5.305819402e-05	2.350712068e-11
-2.800000000e-02	2.678570078e-01	-5.034490577e-05	5.601108615e-12
-2.810000000e-02	2.678569965e-01	-4.763161818e-05	1.059334267e-11
-2.820000000e-02	2.678569851e-01	-4.491833127e-05	1.711174298e-11
-2.830000000e-02	2.678569737e-01	-4.220504504e-05	1.083600913e-11
-2.840000000e-02	2.678569621e-01	-3.949175950e-05	2.790790568e-11
-2.850000000e-02	2.678569505e-01	-3.677847464e-05	1.557425938e-11
-2.860000000e-02	2.678569388e-01	-3.406519047e-05	2.167208775e-11
-2.870000000e-02	2.678569270e-01	-3.135190700e-05	1.158543248e-11
-2.880000000e-02	2.678569152e-01	-2.863862423e-05	3.109133417e-11
-2.890000000e-02	2.678569032e-01	-2.592534217e-05	1.011541597e-11
-2.900000000e-02	2.678568912e-01	-2.321206081e-05	1.929639533e-11
-2.910000000e-02	2.678568791e-01	-2.049878016e-05	1.938727859e-11
-2.920000000e-02	2.678568669e-01	-1.778550024e-05	8.836965334e-12
-2.930000000e-02	2.678568546e-01	-1.507222103e-05	2.788622460e-11
-2.940000000e-02	2.678568423e-01	-1.235894255e-05	6.079838699e-12
-2.950000000e-02	2.678568299e-01	-9.645664796e-06	3.289128203e-12
-2.960000000e-02	2.678568173e-01	-6.932387778e-06	3.441703330e-11
-2.970000000e-02	2.678568047e-01	-4.219111498e-06	1.206939323e-11
-2.980000000e-02	2.678567921e-01	-1.505835959e-06	1.509376489e-11
-2.990000000e-02	2.678567793e-01	1.207438833e-06	7.089765300e-12
-3.000000000e-02	2.678567664e-01	3.920712876e-06	4.602073674e-11
