# Im(epsi1)     Re(omega/c)      Im(omega/c)      Eq(det).Opt det CON kz, R=0.5 \mum, mu_c=0.3, Re(epsi1)=3.90solve_det_conkz_vs_kz.py
0.000000000e+00	2.678636895e-01	-8.101061004e-04	1.191255437e-10
-1.000000000e-04	2.678637013e-01	-8.073927341e-04	9.311021013e-12
-2.000000000e-04	2.678637130e-01	-8.046793673e-04	1.283455704e-11
-3.000000000e-04	2.678637247e-01	-8.019660000e-04	6.045900781e-11
-4.000000000e-04	2.678637362e-01	-7.992526323e-04	2.280228226e-11
-5.000000000e-04	2.678637477e-01	-7.965392640e-04	1.021005381e-11
-6.000000000e-04	2.678637591e-01	-7.938258953e-04	4.227511740e-11
-7.000000000e-04	2.678637704e-01	-7.911125261e-04	1.684995690e-11
-8.000000000e-04	2.678637816e-01	-7.883991565e-04	1.029440987e-11
-9.000000000e-04	2.678637927e-01	-7.856857864e-04	1.277508763e-10
-1.000000000e-03	2.678638038e-01	-7.829724158e-04	1.841742270e-11
-1.100000000e-03	2.678638148e-01	-7.802590448e-04	1.422340919e-11
-1.200000000e-03	2.678638256e-01	-7.775456733e-04	2.065763269e-11
-1.300000000e-03	2.678638364e-01	-7.748323014e-04	2.042429253e-11
-1.400000000e-03	2.678638472e-01	-7.721189290e-04	3.174676172e-11
-1.500000000e-03	2.678638578e-01	-7.694055562e-04	4.093796175e-12
-1.600000000e-03	2.678638684e-01	-7.666921829e-04	1.100418936e-10
-1.700000000e-03	2.678638789e-01	-7.639788093e-04	1.532241991e-11
-1.800000000e-03	2.678638892e-01	-7.612654352e-04	3.766553858e-11
-1.900000000e-03	2.678638996e-01	-7.585520607e-04	1.954223598e-11
-2.000000000e-03	2.678639098e-01	-7.558386857e-04	3.152004245e-12
-2.100000000e-03	2.678639199e-01	-7.531253104e-04	7.679742343e-12
-2.200000000e-03	2.678639300e-01	-7.504119346e-04	6.972894892e-12
-2.300000000e-03	2.678639400e-01	-7.476985584e-04	1.026902482e-11
-2.400000000e-03	2.678639499e-01	-7.449851819e-04	8.290685224e-12
-2.500000000e-03	2.678639597e-01	-7.422718049e-04	1.359218339e-10
-2.600000000e-03	2.678639694e-01	-7.395584275e-04	7.241594956e-12
-2.700000000e-03	2.678639791e-01	-7.368450498e-04	1.239427209e-10
-2.800000000e-03	2.678639887e-01	-7.341316717e-04	3.852724574e-11
-2.900000000e-03	2.678639982e-01	-7.314182932e-04	1.415955943e-11
-3.000000000e-03	2.678640076e-01	-7.287049143e-04	1.535672608e-11
-3.100000000e-03	2.678640169e-01	-7.259915350e-04	2.842029136e-11
-3.200000000e-03	2.678640261e-01	-7.232781554e-04	1.927036823e-11
-3.300000000e-03	2.678640353e-01	-7.205647754e-04	1.492081299e-11
-3.400000000e-03	2.678640444e-01	-7.178513951e-04	1.446743142e-11
-3.500000000e-03	2.678640534e-01	-7.151380144e-04	5.107905735e-12
-3.600000000e-03	2.678640623e-01	-7.124246333e-04	1.656064274e-11
-3.700000000e-03	2.678640711e-01	-7.097112519e-04	3.005416325e-11
-3.800000000e-03	2.678640798e-01	-7.069978701e-04	1.475326170e-11
-3.900000000e-03	2.678640885e-01	-7.042844881e-04	5.132953656e-12
-4.000000000e-03	2.678640971e-01	-7.015711056e-04	1.471534125e-11
-4.100000000e-03	2.678641056e-01	-6.988577229e-04	1.635270194e-11
-4.200000000e-03	2.678641140e-01	-6.961443398e-04	2.584472485e-11
-4.300000000e-03	2.678641223e-01	-6.934309564e-04	8.771443523e-12
-4.400000000e-03	2.678641306e-01	-6.907175727e-04	1.846688525e-11
-4.500000000e-03	2.678641388e-01	-6.880041887e-04	5.974006887e-11
-4.600000000e-03	2.678641468e-01	-6.852908044e-04	1.965912616e-12
-4.700000000e-03	2.678641548e-01	-6.825774197e-04	1.098291380e-11
-4.800000000e-03	2.678641628e-01	-6.798640348e-04	2.217004297e-11
-4.900000000e-03	2.678641706e-01	-6.771506495e-04	1.558395150e-12
-5.000000000e-03	2.678641784e-01	-6.744372640e-04	2.741373792e-11
-5.100000000e-03	2.678641860e-01	-6.717238782e-04	1.434251237e-11
-5.200000000e-03	2.678641936e-01	-6.690104921e-04	5.441304806e-11
-5.300000000e-03	2.678642011e-01	-6.662971057e-04	1.403808013e-11
-5.400000000e-03	2.678642086e-01	-6.635837190e-04	6.025817343e-12
-5.500000000e-03	2.678642159e-01	-6.608703321e-04	1.175229287e-11
-5.600000000e-03	2.678642232e-01	-6.581569449e-04	9.497993480e-12
-5.700000000e-03	2.678642304e-01	-6.554435575e-04	1.417626436e-11
-5.800000000e-03	2.678642375e-01	-6.527301697e-04	1.572108543e-11
-5.900000000e-03	2.678642445e-01	-6.500167818e-04	1.231701543e-11
-6.000000000e-03	2.678642514e-01	-6.473033935e-04	1.220540174e-11
-6.100000000e-03	2.678642583e-01	-6.445900051e-04	7.966774520e-12
-6.200000000e-03	2.678642650e-01	-6.418766163e-04	9.570694514e-12
-6.300000000e-03	2.678642717e-01	-6.391632274e-04	4.254219754e-12
-6.400000000e-03	2.678642783e-01	-6.364498382e-04	1.006796066e-11
-6.500000000e-03	2.678642848e-01	-6.337364488e-04	9.315926414e-12
-6.600000000e-03	2.678642913e-01	-6.310230591e-04	4.086128506e-11
-6.700000000e-03	2.678642976e-01	-6.283096693e-04	1.039262912e-10
-6.800000000e-03	2.678643039e-01	-6.255962792e-04	9.170873309e-12
-6.900000000e-03	2.678643101e-01	-6.228828889e-04	3.475543728e-11
-7.000000000e-03	2.678643162e-01	-6.201694984e-04	2.936086305e-11
-7.100000000e-03	2.678643222e-01	-6.174561077e-04	1.594779746e-11
-7.200000000e-03	2.678643282e-01	-6.147427168e-04	1.807558166e-11
-7.300000000e-03	2.678643340e-01	-6.120293256e-04	1.538204224e-11
-7.400000000e-03	2.678643398e-01	-6.093159343e-04	1.310093929e-11
-7.500000000e-03	2.678643455e-01	-6.066025429e-04	4.433574786e-11
-7.600000000e-03	2.678643511e-01	-6.038891512e-04	3.041002839e-11
-7.700000000e-03	2.678643567e-01	-6.011757593e-04	3.040479621e-11
-7.800000000e-03	2.678643621e-01	-5.984623673e-04	2.203219011e-11
-7.900000000e-03	2.678643675e-01	-5.957489751e-04	7.909231844e-12
-8.000000000e-03	2.678643728e-01	-5.930355827e-04	4.128039684e-11
-8.100000000e-03	2.678643780e-01	-5.903221902e-04	1.461688793e-11
-8.200000000e-03	2.678643831e-01	-5.876087975e-04	1.252789521e-11
-8.300000000e-03	2.678643881e-01	-5.848954047e-04	7.125177746e-12
-8.400000000e-03	2.678643931e-01	-5.821820117e-04	7.001100038e-12
-8.500000000e-03	2.678643980e-01	-5.794686185e-04	1.627064844e-11
-8.600000000e-03	2.678644027e-01	-5.767552252e-04	7.213553812e-12
-8.700000000e-03	2.678644074e-01	-5.740418318e-04	2.217882006e-11
-8.800000000e-03	2.678644121e-01	-5.713284383e-04	1.937961637e-11
-8.900000000e-03	2.678644166e-01	-5.686150446e-04	8.728344181e-12
-9.000000000e-03	2.678644211e-01	-5.659016508e-04	9.585009268e-12
-9.100000000e-03	2.678644255e-01	-5.631882568e-04	2.664729864e-11
-9.200000000e-03	2.678644298e-01	-5.604748628e-04	2.503308485e-11
-9.300000000e-03	2.678644340e-01	-5.577614686e-04	8.921800081e-12
-9.400000000e-03	2.678644381e-01	-5.550480743e-04	1.294685288e-11
-9.500000000e-03	2.678644421e-01	-5.523346799e-04	3.475274463e-11
-9.600000000e-03	2.678644461e-01	-5.496212855e-04	1.238276293e-11
-9.700000000e-03	2.678644500e-01	-5.469078909e-04	6.938904651e-12
-9.800000000e-03	2.678644538e-01	-5.441944962e-04	2.552858942e-11
-9.900000000e-03	2.678644575e-01	-5.414811015e-04	7.289479567e-12
-1.000000000e-02	2.678644611e-01	-5.387677066e-04	5.558062121e-12
-1.010000000e-02	2.678644647e-01	-5.360543117e-04	1.277986027e-11
-1.020000000e-02	2.678644682e-01	-5.333409167e-04	9.507615206e-11
-1.030000000e-02	2.678644716e-01	-5.306275216e-04	6.504903659e-12
-1.040000000e-02	2.678644749e-01	-5.279141265e-04	2.670183990e-11
-1.050000000e-02	2.678644781e-01	-5.252007313e-04	9.630211325e-12
-1.060000000e-02	2.678644812e-01	-5.224873360e-04	1.592280051e-11
-1.070000000e-02	2.678644843e-01	-5.197739407e-04	1.423024122e-11
-1.080000000e-02	2.678644873e-01	-5.170605454e-04	1.803453670e-11
-1.090000000e-02	2.678644902e-01	-5.143471500e-04	6.337232937e-12
-1.100000000e-02	2.678644930e-01	-5.116337545e-04	1.500439403e-11
-1.110000000e-02	2.678644957e-01	-5.089203590e-04	1.719047095e-11
-1.120000000e-02	2.678644984e-01	-5.062069635e-04	2.545154751e-11
-1.130000000e-02	2.678645009e-01	-5.034935679e-04	1.243444567e-11
-1.140000000e-02	2.678645034e-01	-5.007801724e-04	1.602916311e-11
-1.150000000e-02	2.678645058e-01	-4.980667768e-04	1.130640688e-11
-1.160000000e-02	2.678645081e-01	-4.953533811e-04	6.264835389e-12
-1.170000000e-02	2.678645104e-01	-4.926399855e-04	7.309731499e-12
-1.180000000e-02	2.678645125e-01	-4.899265899e-04	1.222151325e-11
-1.190000000e-02	2.678645146e-01	-4.872131942e-04	1.307020046e-11
-1.200000000e-02	2.678645166e-01	-4.844997986e-04	8.045118375e-12
-1.210000000e-02	2.678645185e-01	-4.817864029e-04	1.831648217e-11
-1.220000000e-02	2.678645203e-01	-4.790730073e-04	1.709072514e-11
-1.230000000e-02	2.678645220e-01	-4.763596117e-04	4.603405894e-11
-1.240000000e-02	2.678645237e-01	-4.736462161e-04	1.653133422e-11
-1.250000000e-02	2.678645253e-01	-4.709328205e-04	9.795543360e-12
-1.260000000e-02	2.678645268e-01	-4.682194249e-04	5.372728471e-11
-1.270000000e-02	2.678645282e-01	-4.655060294e-04	1.839385691e-11
-1.280000000e-02	2.678645295e-01	-4.627926339e-04	2.862710900e-11
-1.290000000e-02	2.678645307e-01	-4.600792384e-04	4.968042284e-12
-1.300000000e-02	2.678645319e-01	-4.573658430e-04	2.383062210e-11
-1.310000000e-02	2.678645330e-01	-4.546524476e-04	2.910526123e-11
-1.320000000e-02	2.678645340e-01	-4.519390523e-04	1.546274953e-11
-1.330000000e-02	2.678645349e-01	-4.492256570e-04	1.618970710e-11
-1.340000000e-02	2.678645357e-01	-4.465122618e-04	1.662328478e-11
-1.350000000e-02	2.678645365e-01	-4.437988667e-04	6.005022534e-12
-1.360000000e-02	2.678645372e-01	-4.410854716e-04	2.292772054e-11
-1.370000000e-02	2.678645377e-01	-4.383720766e-04	4.915382939e-12
-1.380000000e-02	2.678645382e-01	-4.356586816e-04	1.336021924e-11
-1.390000000e-02	2.678645387e-01	-4.329452868e-04	1.183819718e-11
-1.400000000e-02	2.678645390e-01	-4.302318920e-04	1.244551520e-11
-1.410000000e-02	2.678645393e-01	-4.275184973e-04	1.530129103e-11
-1.420000000e-02	2.678645394e-01	-4.248051027e-04	1.701639741e-11
-1.430000000e-02	2.678645395e-01	-4.220917082e-04	7.468575988e-11
-1.440000000e-02	2.678645395e-01	-4.193783138e-04	1.679287944e-11
-1.450000000e-02	2.678645395e-01	-4.166649195e-04	2.735864889e-12
-1.460000000e-02	2.678645393e-01	-4.139515253e-04	1.842578638e-11
-1.470000000e-02	2.678645391e-01	-4.112381312e-04	1.565720993e-11
-1.480000000e-02	2.678645388e-01	-4.085247372e-04	2.615450857e-12
-1.490000000e-02	2.678645383e-01	-4.058113434e-04	8.387214770e-12
-1.500000000e-02	2.678645379e-01	-4.030979496e-04	4.384170063e-12
-1.510000000e-02	2.678645373e-01	-4.003845561e-04	2.517284601e-11
-1.520000000e-02	2.678645366e-01	-3.976711626e-04	6.250439187e-12
-1.530000000e-02	2.678645359e-01	-3.949577693e-04	3.949405625e-12
-1.540000000e-02	2.678645351e-01	-3.922443761e-04	1.424922215e-11
-1.550000000e-02	2.678645342e-01	-3.895309831e-04	2.824171735e-11
-1.560000000e-02	2.678645332e-01	-3.868175902e-04	4.694945756e-12
-1.570000000e-02	2.678645322e-01	-3.841041974e-04	1.611977670e-11
-1.580000000e-02	2.678645310e-01	-3.813908049e-04	1.506723128e-11
-1.590000000e-02	2.678645298e-01	-3.786774124e-04	2.180114357e-11
-1.600000000e-02	2.678645285e-01	-3.759640202e-04	3.278401919e-12
-1.610000000e-02	2.678645271e-01	-3.732506281e-04	1.375216793e-11
-1.620000000e-02	2.678645256e-01	-3.705372362e-04	1.511801626e-11
-1.630000000e-02	2.678645241e-01	-3.678238445e-04	2.362868845e-11
-1.640000000e-02	2.678645224e-01	-3.651104529e-04	3.318807615e-12
-1.650000000e-02	2.678645207e-01	-3.623970616e-04	1.418577395e-11
-1.660000000e-02	2.678645189e-01	-3.596836704e-04	9.893597960e-12
-1.670000000e-02	2.678645170e-01	-3.569702795e-04	1.655567989e-11
-1.680000000e-02	2.678645150e-01	-3.542568887e-04	7.627621271e-12
-1.690000000e-02	2.678645130e-01	-3.515434981e-04	2.472557778e-11
-1.700000000e-02	2.678645109e-01	-3.488301078e-04	1.643122015e-11
-1.710000000e-02	2.678645086e-01	-3.461167176e-04	2.598702304e-11
-1.720000000e-02	2.678645063e-01	-3.434033277e-04	1.710198390e-11
-1.730000000e-02	2.678645040e-01	-3.406899380e-04	5.133687961e-12
-1.740000000e-02	2.678645015e-01	-3.379765485e-04	8.477506378e-12
-1.750000000e-02	2.678644989e-01	-3.352631593e-04	2.190198884e-11
-1.760000000e-02	2.678644963e-01	-3.325497703e-04	1.140171396e-11
-1.770000000e-02	2.678644936e-01	-3.298363815e-04	3.306437246e-11
-1.780000000e-02	2.678644908e-01	-3.271229929e-04	1.934997208e-11
-1.790000000e-02	2.678644879e-01	-3.244096046e-04	1.012921308e-11
-1.800000000e-02	2.678644850e-01	-3.216962166e-04	6.106119955e-12
-1.810000000e-02	2.678644819e-01	-3.189828288e-04	2.371826569e-11
-1.820000000e-02	2.678644788e-01	-3.162694413e-04	2.624743172e-11
-1.830000000e-02	2.678644756e-01	-3.135560540e-04	1.354324070e-11
-1.840000000e-02	2.678644723e-01	-3.108426670e-04	6.875023421e-12
-1.850000000e-02	2.678644690e-01	-3.081292803e-04	1.379143208e-11
-1.860000000e-02	2.678644655e-01	-3.054158938e-04	8.460717998e-12
-1.870000000e-02	2.678644620e-01	-3.027025076e-04	7.241130731e-12
-1.880000000e-02	2.678644584e-01	-2.999891217e-04	1.273663682e-11
-1.890000000e-02	2.678644547e-01	-2.972757361e-04	1.072859774e-11
-1.900000000e-02	2.678644509e-01	-2.945623508e-04	8.553824296e-12
-1.910000000e-02	2.678644470e-01	-2.918489658e-04	1.192644446e-11
-1.920000000e-02	2.678644431e-01	-2.891355810e-04	9.745384140e-12
-1.930000000e-02	2.678644390e-01	-2.864221966e-04	1.495931778e-11
-1.940000000e-02	2.678644349e-01	-2.837088125e-04	1.844277891e-11
-1.950000000e-02	2.678644307e-01	-2.809954287e-04	2.304336481e-11
-1.960000000e-02	2.678644264e-01	-2.782820452e-04	9.184688649e-12
-1.970000000e-02	2.678644221e-01	-2.755686621e-04	9.694049133e-12
-1.980000000e-02	2.678644176e-01	-2.728552792e-04	1.187032565e-11
-1.990000000e-02	2.678644131e-01	-2.701418967e-04	4.145290115e-12
-2.000000000e-02	2.678644085e-01	-2.674285145e-04	2.704486132e-11
-2.010000000e-02	2.678644038e-01	-2.647151327e-04	1.967347917e-11
-2.020000000e-02	2.678643991e-01	-2.620017512e-04	1.134383479e-11
-2.030000000e-02	2.678643942e-01	-2.592883701e-04	2.268966021e-11
-2.040000000e-02	2.678643893e-01	-2.565749893e-04	6.898588516e-12
-2.050000000e-02	2.678643842e-01	-2.538616088e-04	7.688302518e-12
-2.060000000e-02	2.678643791e-01	-2.511482287e-04	1.262256587e-11
-2.070000000e-02	2.678643740e-01	-2.484348490e-04	1.451780662e-11
-2.080000000e-02	2.678643687e-01	-2.457214696e-04	1.863303129e-11
-2.090000000e-02	2.678643633e-01	-2.430080906e-04	1.063438635e-11
-2.100000000e-02	2.678643579e-01	-2.402947120e-04	2.376743190e-11
-2.110000000e-02	2.678643524e-01	-2.375813338e-04	1.140087733e-11
-2.120000000e-02	2.678643468e-01	-2.348679559e-04	7.304227932e-12
-2.130000000e-02	2.678643411e-01	-2.321545785e-04	4.380696079e-12
-2.140000000e-02	2.678643354e-01	-2.294412014e-04	2.935436092e-11
-2.150000000e-02	2.678643295e-01	-2.267278247e-04	1.277815440e-11
-2.160000000e-02	2.678643236e-01	-2.240144485e-04	8.808459438e-11
-2.170000000e-02	2.678643176e-01	-2.213010726e-04	2.933124758e-11
-2.180000000e-02	2.678643115e-01	-2.185876971e-04	2.486102675e-11
-2.190000000e-02	2.678643053e-01	-2.158743221e-04	3.705174298e-11
-2.200000000e-02	2.678642991e-01	-2.131609474e-04	1.021434105e-11
-2.210000000e-02	2.678642927e-01	-2.104475732e-04	1.716284300e-11
-2.220000000e-02	2.678642863e-01	-2.077341994e-04	1.670960263e-11
-2.230000000e-02	2.678642798e-01	-2.050208261e-04	1.424271331e-11
-2.240000000e-02	2.678642732e-01	-2.023074531e-04	1.549156751e-11
-2.250000000e-02	2.678642666e-01	-1.995940806e-04	1.983126338e-11
-2.260000000e-02	2.678642598e-01	-1.968807086e-04	2.849409214e-12
-2.270000000e-02	2.678642530e-01	-1.941673370e-04	8.813947440e-12
-2.280000000e-02	2.678642461e-01	-1.914539658e-04	3.315885589e-11
-2.290000000e-02	2.678642391e-01	-1.887405951e-04	1.269424650e-11
-2.300000000e-02	2.678642320e-01	-1.860272249e-04	2.295673929e-11
-2.310000000e-02	2.678642248e-01	-1.833138551e-04	2.536559608e-12
-2.320000000e-02	2.678642176e-01	-1.806004858e-04	1.476457099e-11
-2.330000000e-02	2.678642103e-01	-1.778871170e-04	1.598225109e-11
-2.340000000e-02	2.678642029e-01	-1.751737486e-04	1.151691331e-11
-2.350000000e-02	2.678641954e-01	-1.724603807e-04	2.361749089e-11
-2.360000000e-02	2.678641878e-01	-1.697470133e-04	1.835416702e-11
-2.370000000e-02	2.678641801e-01	-1.670336464e-04	1.981201398e-11
-2.380000000e-02	2.678641724e-01	-1.643202800e-04	1.141345756e-11
-2.390000000e-02	2.678641646e-01	-1.616069140e-04	9.326108264e-12
-2.400000000e-02	2.678641567e-01	-1.588935486e-04	5.531569979e-12
-2.410000000e-02	2.678641487e-01	-1.561801837e-04	1.371051358e-11
-2.420000000e-02	2.678641406e-01	-1.534668193e-04	1.451920008e-11
-2.430000000e-02	2.678641325e-01	-1.507534554e-04	1.183878322e-11
-2.440000000e-02	2.678641242e-01	-1.480400920e-04	1.325071311e-11
-2.450000000e-02	2.678641159e-01	-1.453267291e-04	1.612289486e-11
-2.460000000e-02	2.678641075e-01	-1.426133668e-04	7.250425656e-12
-2.470000000e-02	2.678640990e-01	-1.399000050e-04	7.157027912e-11
-2.480000000e-02	2.678640905e-01	-1.371866437e-04	1.352778890e-11
-2.490000000e-02	2.678640818e-01	-1.344732829e-04	2.060097992e-11
-2.500000000e-02	2.678640731e-01	-1.317599227e-04	1.398406735e-11
-2.510000000e-02	2.678640643e-01	-1.290465631e-04	1.100723225e-11
-2.520000000e-02	2.678640554e-01	-1.263332040e-04	1.676898778e-11
-2.530000000e-02	2.678640464e-01	-1.236198454e-04	2.162268405e-11
-2.540000000e-02	2.678640374e-01	-1.209064874e-04	3.064983358e-11
-2.550000000e-02	2.678640282e-01	-1.181931300e-04	9.563365594e-13
-2.560000000e-02	2.678640190e-01	-1.154797732e-04	2.546162803e-11
-2.570000000e-02	2.678640097e-01	-1.127664169e-04	2.993576320e-11
-2.580000000e-02	2.678640003e-01	-1.100530612e-04	9.735732873e-11
-2.590000000e-02	2.678639908e-01	-1.073397060e-04	5.710115640e-12
-2.600000000e-02	2.678639813e-01	-1.046263515e-04	4.675437512e-12
-2.610000000e-02	2.678639717e-01	-1.019129975e-04	1.164406946e-11
-2.620000000e-02	2.678639619e-01	-9.919964413e-05	7.692125560e-12
-2.630000000e-02	2.678639521e-01	-9.648629135e-05	2.335611826e-12
-2.640000000e-02	2.678639423e-01	-9.377293917e-05	1.755965093e-11
-2.650000000e-02	2.678639323e-01	-9.105958760e-05	1.252748970e-11
-2.660000000e-02	2.678639223e-01	-8.834623664e-05	1.920148069e-11
-2.670000000e-02	2.678639121e-01	-8.563288629e-05	1.814389020e-11
-2.680000000e-02	2.678639019e-01	-8.291953655e-05	1.460442152e-11
-2.690000000e-02	2.678638916e-01	-8.020618744e-05	1.274974434e-12
-2.700000000e-02	2.678638812e-01	-7.749283895e-05	3.075468205e-11
-2.710000000e-02	2.678638708e-01	-7.477949109e-05	4.903460775e-12
-2.720000000e-02	2.678638602e-01	-7.206614386e-05	1.928957687e-11
-2.730000000e-02	2.678638496e-01	-6.935279728e-05	6.084192935e-12
-2.740000000e-02	2.678638389e-01	-6.663945133e-05	1.652450127e-11
-2.750000000e-02	2.678638281e-01	-6.392610603e-05	4.679401575e-12
-2.760000000e-02	2.678638173e-01	-6.121276138e-05	6.483970566e-12
-2.770000000e-02	2.678638063e-01	-5.849941738e-05	3.086295928e-11
-2.780000000e-02	2.678637953e-01	-5.578607405e-05	6.001047045e-12
-2.790000000e-02	2.678637841e-01	-5.307273137e-05	1.782383883e-11
-2.800000000e-02	2.678637729e-01	-5.035938937e-05	1.214215592e-11
-2.810000000e-02	2.678637617e-01	-4.764604803e-05	2.345525504e-11
-2.820000000e-02	2.678637503e-01	-4.493270737e-05	3.415111798e-12
-2.830000000e-02	2.678637389e-01	-4.221936738e-05	1.225774515e-11
-2.840000000e-02	2.678637273e-01	-3.950602809e-05	5.453808212e-11
-2.850000000e-02	2.678637157e-01	-3.679268948e-05	2.420355087e-11
-2.860000000e-02	2.678637040e-01	-3.407935156e-05	5.627958357e-12
-2.870000000e-02	2.678636922e-01	-3.136601433e-05	6.429417340e-12
-2.880000000e-02	2.678636804e-01	-2.865267781e-05	1.967175882e-11
-2.890000000e-02	2.678636684e-01	-2.593934199e-05	4.158771309e-11
-2.900000000e-02	2.678636564e-01	-2.322600688e-05	1.305530310e-11
-2.910000000e-02	2.678636443e-01	-2.051267249e-05	1.633901642e-11
-2.920000000e-02	2.678636321e-01	-1.779933881e-05	2.892225244e-12
-2.930000000e-02	2.678636198e-01	-1.508600585e-05	3.164253759e-11
-2.940000000e-02	2.678636075e-01	-1.237267361e-05	1.447579487e-11
-2.950000000e-02	2.678635951e-01	-9.659342110e-06	7.760791238e-12
-2.960000000e-02	2.678635825e-01	-6.946011339e-06	1.315384217e-11
-2.970000000e-02	2.678635699e-01	-4.232681306e-06	4.454892651e-12
-2.980000000e-02	2.678635572e-01	-1.519352015e-06	1.477796686e-11
-2.990000000e-02	2.678635445e-01	1.193976530e-06	2.374001334e-11
-3.000000000e-02	2.678635316e-01	3.907304324e-06	8.228141805e-12
