# Im(epsi1)     Re(omega/c)      Im(omega/c)      Eq(det).Opt det CON kz, R=0.5 \mum, mu_c=0.3, Re(epsi1)=3.90solve_det_conkz_vs_kz.py
0.000000000e+00	2.678470827e-01	-8.100336032e-04	1.462317288e-11
-1.000000000e-04	2.678470945e-01	-8.073203689e-04	5.945096743e-12
-2.000000000e-04	2.678471062e-01	-8.046071340e-04	1.381757498e-11
-3.000000000e-04	2.678471179e-01	-8.018938987e-04	4.578726128e-11
-4.000000000e-04	2.678471294e-01	-7.991806629e-04	1.490190755e-11
-5.000000000e-04	2.678471409e-01	-7.964674266e-04	1.318553467e-11
-6.000000000e-04	2.678471523e-01	-7.937541898e-04	1.629799653e-11
-7.000000000e-04	2.678471636e-01	-7.910409526e-04	3.081467576e-11
-8.000000000e-04	2.678471748e-01	-7.883277148e-04	9.002436426e-12
-9.000000000e-04	2.678471859e-01	-7.856144767e-04	2.159853431e-11
-1.000000000e-03	2.678471970e-01	-7.829012380e-04	1.820536293e-11
-1.100000000e-03	2.678472079e-01	-7.801879989e-04	1.172168781e-11
-1.200000000e-03	2.678472188e-01	-7.774747594e-04	1.438876829e-11
-1.300000000e-03	2.678472296e-01	-7.747615194e-04	1.055477424e-11
-1.400000000e-03	2.678472403e-01	-7.720482789e-04	1.358961507e-11
-1.500000000e-03	2.678472510e-01	-7.693350381e-04	7.381704735e-12
-1.600000000e-03	2.678472615e-01	-7.666217968e-04	1.003561763e-11
-1.700000000e-03	2.678472720e-01	-7.639085550e-04	2.963199247e-11
-1.800000000e-03	2.678472824e-01	-7.611953129e-04	1.936264343e-11
-1.900000000e-03	2.678472927e-01	-7.584820703e-04	7.333165597e-12
-2.000000000e-03	2.678473030e-01	-7.557688273e-04	3.052541436e-11
-2.100000000e-03	2.678473131e-01	-7.530555839e-04	7.712442546e-12
-2.200000000e-03	2.678473232e-01	-7.503423400e-04	8.839122043e-12
-2.300000000e-03	2.678473332e-01	-7.476290958e-04	9.948373469e-12
-2.400000000e-03	2.678473430e-01	-7.449158512e-04	1.304044359e-11
-2.500000000e-03	2.678473529e-01	-7.422026061e-04	1.095713994e-11
-2.600000000e-03	2.678473626e-01	-7.394893607e-04	2.128807191e-11
-2.700000000e-03	2.678473723e-01	-7.367761149e-04	7.364484583e-12
-2.800000000e-03	2.678473818e-01	-7.340628687e-04	5.413360364e-11
-2.900000000e-03	2.678473913e-01	-7.313496221e-04	1.545700902e-11
-3.000000000e-03	2.678474007e-01	-7.286363752e-04	1.312684239e-11
-3.100000000e-03	2.678474100e-01	-7.259231278e-04	4.114662270e-12
-3.200000000e-03	2.678474193e-01	-7.232098802e-04	1.218718066e-10
-3.300000000e-03	2.678474284e-01	-7.204966321e-04	1.966670161e-11
-3.400000000e-03	2.678474375e-01	-7.177833837e-04	4.373226970e-12
-3.500000000e-03	2.678474465e-01	-7.150701349e-04	7.668440219e-12
-3.600000000e-03	2.678474554e-01	-7.123568858e-04	1.995460079e-11
-3.700000000e-03	2.678474642e-01	-7.096436363e-04	1.953950690e-11
-3.800000000e-03	2.678474730e-01	-7.069303865e-04	5.936184060e-11
-3.900000000e-03	2.678474816e-01	-7.042171364e-04	1.984110236e-11
-4.000000000e-03	2.678474902e-01	-7.015038859e-04	1.658326300e-11
-4.100000000e-03	2.678474987e-01	-6.987906351e-04	1.268204677e-11
-4.200000000e-03	2.678475071e-01	-6.960773839e-04	8.719664461e-12
-4.300000000e-03	2.678475155e-01	-6.933641325e-04	5.804226457e-11
-4.400000000e-03	2.678475237e-01	-6.906508807e-04	3.734153982e-11
-4.500000000e-03	2.678475319e-01	-6.879376286e-04	2.782098317e-11
-4.600000000e-03	2.678475400e-01	-6.852243762e-04	1.527486449e-11
-4.700000000e-03	2.678475480e-01	-6.825111235e-04	8.641528192e-12
-4.800000000e-03	2.678475559e-01	-6.797978705e-04	1.555744417e-11
-4.900000000e-03	2.678475637e-01	-6.770846172e-04	7.986740653e-12
-5.000000000e-03	2.678475715e-01	-6.743713636e-04	6.113787326e-12
-5.100000000e-03	2.678475792e-01	-6.716581097e-04	2.419526743e-11
-5.200000000e-03	2.678475868e-01	-6.689448555e-04	1.702949513e-11
-5.300000000e-03	2.678475943e-01	-6.662316011e-04	1.192495200e-11
-5.400000000e-03	2.678476017e-01	-6.635183464e-04	2.981156456e-11
-5.500000000e-03	2.678476090e-01	-6.608050914e-04	1.056560682e-10
-5.600000000e-03	2.678476163e-01	-6.580918361e-04	1.114431920e-11
-5.700000000e-03	2.678476235e-01	-6.553785806e-04	1.897382464e-11
-5.800000000e-03	2.678476306e-01	-6.526653248e-04	2.459706596e-11
-5.900000000e-03	2.678476376e-01	-6.499520688e-04	2.873340597e-11
-6.000000000e-03	2.678476445e-01	-6.472388125e-04	1.430356699e-11
-6.100000000e-03	2.678476514e-01	-6.445255559e-04	1.032333159e-11
-6.200000000e-03	2.678476581e-01	-6.418122991e-04	1.177544438e-11
-6.300000000e-03	2.678476648e-01	-6.390990421e-04	6.408273498e-12
-6.400000000e-03	2.678476714e-01	-6.363857849e-04	1.405203304e-11
-6.500000000e-03	2.678476779e-01	-6.336725274e-04	1.261978814e-11
-6.600000000e-03	2.678476844e-01	-6.309592697e-04	8.430981539e-12
-6.700000000e-03	2.678476907e-01	-6.282460118e-04	9.945920560e-12
-6.800000000e-03	2.678476970e-01	-6.255327536e-04	4.111234805e-11
-6.900000000e-03	2.678477032e-01	-6.228194952e-04	2.044282143e-11
-7.000000000e-03	2.678477093e-01	-6.201062367e-04	1.283502640e-11
-7.100000000e-03	2.678477153e-01	-6.173929779e-04	6.278951426e-12
-7.200000000e-03	2.678477213e-01	-6.146797189e-04	1.383399155e-11
-7.300000000e-03	2.678477271e-01	-6.119664598e-04	2.679114014e-11
-7.400000000e-03	2.678477329e-01	-6.092532004e-04	9.780809637e-12
-7.500000000e-03	2.678477386e-01	-6.065399408e-04	1.704744196e-11
-7.600000000e-03	2.678477442e-01	-6.038266811e-04	1.461932278e-11
-7.700000000e-03	2.678477498e-01	-6.011134212e-04	6.912143156e-12
-7.800000000e-03	2.678477552e-01	-5.984001611e-04	6.750431464e-12
-7.900000000e-03	2.678477606e-01	-5.956869008e-04	2.554469923e-11
-8.000000000e-03	2.678477659e-01	-5.929736404e-04	1.562118972e-11
-8.100000000e-03	2.678477711e-01	-5.902603798e-04	1.306869093e-11
-8.200000000e-03	2.678477762e-01	-5.875471190e-04	7.032150092e-12
-8.300000000e-03	2.678477812e-01	-5.848338581e-04	2.896627773e-11
-8.400000000e-03	2.678477862e-01	-5.821205971e-04	5.697202300e-12
-8.500000000e-03	2.678477910e-01	-5.794073359e-04	2.071790463e-11
-8.600000000e-03	2.678477958e-01	-5.766940745e-04	8.956655477e-12
-8.700000000e-03	2.678478005e-01	-5.739808130e-04	2.036672254e-11
-8.800000000e-03	2.678478052e-01	-5.712675514e-04	1.095627114e-11
-8.900000000e-03	2.678478097e-01	-5.685542897e-04	1.104441592e-11
-9.000000000e-03	2.678478142e-01	-5.658410278e-04	1.812538169e-11
-9.100000000e-03	2.678478185e-01	-5.631277658e-04	8.270197033e-12
-9.200000000e-03	2.678478228e-01	-5.604145037e-04	9.987961235e-12
-9.300000000e-03	2.678478270e-01	-5.577012414e-04	3.518021667e-11
-9.400000000e-03	2.678478312e-01	-5.549879791e-04	1.210645487e-11
-9.500000000e-03	2.678478352e-01	-5.522747167e-04	1.480890544e-11
-9.600000000e-03	2.678478392e-01	-5.495614541e-04	4.332689265e-11
-9.700000000e-03	2.678478431e-01	-5.468481915e-04	1.342596695e-11
-9.800000000e-03	2.678478469e-01	-5.441349288e-04	2.298457078e-11
-9.900000000e-03	2.678478506e-01	-5.414216659e-04	2.311675255e-11
-1.000000000e-02	2.678478542e-01	-5.387084030e-04	2.660424424e-11
-1.010000000e-02	2.678478578e-01	-5.359951400e-04	9.071286829e-12
-1.020000000e-02	2.678478612e-01	-5.332818770e-04	1.414736666e-11
-1.030000000e-02	2.678478646e-01	-5.305686139e-04	1.564549609e-11
-1.040000000e-02	2.678478679e-01	-5.278553507e-04	1.302260598e-11
-1.050000000e-02	2.678478712e-01	-5.251420874e-04	8.825131089e-12
-1.060000000e-02	2.678478743e-01	-5.224288241e-04	4.450980323e-11
-1.070000000e-02	2.678478774e-01	-5.197155607e-04	1.913966491e-11
-1.080000000e-02	2.678478803e-01	-5.170022973e-04	1.577899997e-11
-1.090000000e-02	2.678478832e-01	-5.142890338e-04	2.591542698e-11
-1.100000000e-02	2.678478860e-01	-5.115757703e-04	5.042522969e-12
-1.110000000e-02	2.678478888e-01	-5.088625067e-04	2.432832940e-11
-1.120000000e-02	2.678478914e-01	-5.061492432e-04	8.764222543e-12
-1.130000000e-02	2.678478940e-01	-5.034359795e-04	2.183624817e-11
-1.140000000e-02	2.678478965e-01	-5.007227159e-04	1.515723261e-11
-1.150000000e-02	2.678478989e-01	-4.980094522e-04	1.633551690e-11
-1.160000000e-02	2.678479012e-01	-4.952961886e-04	1.466553008e-11
-1.170000000e-02	2.678479034e-01	-4.925829249e-04	6.727335807e-12
-1.180000000e-02	2.678479056e-01	-4.898696612e-04	9.025030745e-12
-1.190000000e-02	2.678479076e-01	-4.871563975e-04	2.539227898e-11
-1.200000000e-02	2.678479096e-01	-4.844431337e-04	9.587040268e-12
-1.210000000e-02	2.678479115e-01	-4.817298700e-04	8.432526438e-12
-1.220000000e-02	2.678479133e-01	-4.790166063e-04	1.208747692e-11
-1.230000000e-02	2.678479151e-01	-4.763033427e-04	1.166657533e-11
-1.240000000e-02	2.678479167e-01	-4.735900790e-04	8.316039869e-12
-1.250000000e-02	2.678479183e-01	-4.708768154e-04	2.042677887e-11
-1.260000000e-02	2.678479198e-01	-4.681635517e-04	1.256958394e-11
-1.270000000e-02	2.678479212e-01	-4.654502881e-04	9.807164952e-12
-1.280000000e-02	2.678479225e-01	-4.627370246e-04	1.631320296e-11
-1.290000000e-02	2.678479238e-01	-4.600237611e-04	6.407991397e-12
-1.300000000e-02	2.678479249e-01	-4.573104976e-04	9.648839050e-12
-1.310000000e-02	2.678479260e-01	-4.545972341e-04	1.194792707e-11
-1.320000000e-02	2.678479270e-01	-4.518839707e-04	9.873411284e-12
-1.330000000e-02	2.678479279e-01	-4.491707074e-04	2.207321850e-11
-1.340000000e-02	2.678479288e-01	-4.464574441e-04	1.518925617e-11
-1.350000000e-02	2.678479295e-01	-4.437441809e-04	1.763890807e-11
-1.360000000e-02	2.678479302e-01	-4.410309178e-04	7.262276095e-12
-1.370000000e-02	2.678479308e-01	-4.383176547e-04	3.020965768e-11
-1.380000000e-02	2.678479313e-01	-4.356043917e-04	8.799004785e-12
-1.390000000e-02	2.678479317e-01	-4.328911288e-04	1.804221704e-11
-1.400000000e-02	2.678479320e-01	-4.301778659e-04	1.890460744e-11
-1.410000000e-02	2.678479323e-01	-4.274646032e-04	9.482274335e-11
-1.420000000e-02	2.678479325e-01	-4.247513405e-04	1.545508346e-11
-1.430000000e-02	2.678479326e-01	-4.220380779e-04	9.804052569e-12
-1.440000000e-02	2.678479326e-01	-4.193248155e-04	1.857950469e-11
-1.450000000e-02	2.678479325e-01	-4.166115531e-04	1.273182930e-11
-1.460000000e-02	2.678479323e-01	-4.138982909e-04	3.446243273e-11
-1.470000000e-02	2.678479321e-01	-4.111850287e-04	8.176730710e-12
-1.480000000e-02	2.678479318e-01	-4.084717667e-04	1.629095369e-11
-1.490000000e-02	2.678479314e-01	-4.057585048e-04	1.129378111e-11
-1.500000000e-02	2.678479309e-01	-4.030452430e-04	1.077728175e-11
-1.510000000e-02	2.678479303e-01	-4.003319813e-04	7.242020843e-12
-1.520000000e-02	2.678479297e-01	-3.976187198e-04	1.002511170e-11
-1.530000000e-02	2.678479289e-01	-3.949054584e-04	1.088928014e-11
-1.540000000e-02	2.678479281e-01	-3.921921972e-04	1.151304641e-11
-1.550000000e-02	2.678479272e-01	-3.894789361e-04	8.809622550e-12
-1.560000000e-02	2.678479262e-01	-3.867656751e-04	1.440997841e-11
-1.570000000e-02	2.678479252e-01	-3.840524143e-04	1.417402876e-11
-1.580000000e-02	2.678479240e-01	-3.813391537e-04	1.369848040e-11
-1.590000000e-02	2.678479228e-01	-3.786258932e-04	9.168312698e-12
-1.600000000e-02	2.678479215e-01	-3.759126329e-04	4.145446794e-11
-1.610000000e-02	2.678479201e-01	-3.731993728e-04	7.752101784e-12
-1.620000000e-02	2.678479186e-01	-3.704861128e-04	2.238212714e-11
-1.630000000e-02	2.678479171e-01	-3.677728530e-04	1.194432140e-11
-1.640000000e-02	2.678479154e-01	-3.650595934e-04	1.480155348e-11
-1.650000000e-02	2.678479137e-01	-3.623463340e-04	1.119805168e-11
-1.660000000e-02	2.678479119e-01	-3.596330748e-04	1.329610959e-11
-1.670000000e-02	2.678479100e-01	-3.569198158e-04	1.466068904e-11
-1.680000000e-02	2.678479080e-01	-3.542065570e-04	1.236915813e-11
-1.690000000e-02	2.678479060e-01	-3.514932983e-04	1.814728429e-11
-1.700000000e-02	2.678479038e-01	-3.487800399e-04	1.214350682e-11
-1.710000000e-02	2.678479016e-01	-3.460667817e-04	1.513913356e-11
-1.720000000e-02	2.678478993e-01	-3.433535237e-04	1.801419403e-11
-1.730000000e-02	2.678478969e-01	-3.406402660e-04	1.345592344e-11
-1.740000000e-02	2.678478945e-01	-3.379270084e-04	1.752628679e-11
-1.750000000e-02	2.678478919e-01	-3.352137511e-04	9.344799244e-12
-1.760000000e-02	2.678478893e-01	-3.325004940e-04	2.632284292e-11
-1.770000000e-02	2.678478866e-01	-3.297872372e-04	7.604604676e-11
-1.780000000e-02	2.678478838e-01	-3.270739806e-04	3.657860227e-12
-1.790000000e-02	2.678478809e-01	-3.243607242e-04	9.340817528e-12
-1.800000000e-02	2.678478780e-01	-3.216474681e-04	1.199758624e-11
-1.810000000e-02	2.678478749e-01	-3.189342123e-04	1.448334842e-11
-1.820000000e-02	2.678478718e-01	-3.162209567e-04	7.949184564e-12
-1.830000000e-02	2.678478686e-01	-3.135077014e-04	2.764804961e-11
-1.840000000e-02	2.678478653e-01	-3.107944463e-04	6.484617554e-12
-1.850000000e-02	2.678478619e-01	-3.080811915e-04	6.835391973e-12
-1.860000000e-02	2.678478585e-01	-3.053679370e-04	1.010105605e-11
-1.870000000e-02	2.678478549e-01	-3.026546827e-04	7.639929364e-12
-1.880000000e-02	2.678478513e-01	-2.999414288e-04	1.128510736e-11
-1.890000000e-02	2.678478476e-01	-2.972281751e-04	1.013985773e-11
-1.900000000e-02	2.678478438e-01	-2.945149217e-04	3.680680223e-11
-1.910000000e-02	2.678478400e-01	-2.918016687e-04	6.623207763e-12
-1.920000000e-02	2.678478360e-01	-2.890884159e-04	1.428652141e-11
-1.930000000e-02	2.678478320e-01	-2.863751634e-04	1.158695549e-11
-1.940000000e-02	2.678478279e-01	-2.836619112e-04	1.398319923e-11
-1.950000000e-02	2.678478237e-01	-2.809486594e-04	1.145100919e-11
-1.960000000e-02	2.678478194e-01	-2.782354078e-04	7.662616485e-12
-1.970000000e-02	2.678478151e-01	-2.755221566e-04	1.142639387e-11
-1.980000000e-02	2.678478106e-01	-2.728089057e-04	9.360815739e-12
-1.990000000e-02	2.678478061e-01	-2.700956552e-04	3.693000061e-11
-2.000000000e-02	2.678478015e-01	-2.673824049e-04	2.377109505e-12
-2.010000000e-02	2.678477968e-01	-2.646691550e-04	1.899266869e-11
-2.020000000e-02	2.678477920e-01	-2.619559055e-04	1.914638839e-11
-2.030000000e-02	2.678477872e-01	-2.592426563e-04	1.160124336e-11
-2.040000000e-02	2.678477822e-01	-2.565294074e-04	4.795302694e-11
-2.050000000e-02	2.678477772e-01	-2.538161589e-04	1.098141900e-11
-2.060000000e-02	2.678477721e-01	-2.511029107e-04	4.937640576e-11
-2.070000000e-02	2.678477669e-01	-2.483896630e-04	1.119425619e-11
-2.080000000e-02	2.678477617e-01	-2.456764155e-04	1.511528054e-11
-2.090000000e-02	2.678477563e-01	-2.429631685e-04	1.388237229e-11
-2.100000000e-02	2.678477509e-01	-2.402499218e-04	5.999449131e-12
-2.110000000e-02	2.678477454e-01	-2.375366755e-04	4.398714012e-11
-2.120000000e-02	2.678477398e-01	-2.348234296e-04	2.593570640e-11
-2.130000000e-02	2.678477341e-01	-2.321101841e-04	1.383562939e-11
-2.140000000e-02	2.678477283e-01	-2.293969390e-04	1.607576389e-11
-2.150000000e-02	2.678477225e-01	-2.266836942e-04	7.929464528e-12
-2.160000000e-02	2.678477166e-01	-2.239704499e-04	1.772191095e-11
-2.170000000e-02	2.678477106e-01	-2.212572060e-04	2.266858383e-11
-2.180000000e-02	2.678477045e-01	-2.185439624e-04	4.334900881e-11
-2.190000000e-02	2.678476983e-01	-2.158307193e-04	1.239713555e-11
-2.200000000e-02	2.678476920e-01	-2.131174766e-04	6.550516641e-12
-2.210000000e-02	2.678476857e-01	-2.104042344e-04	2.164487435e-11
-2.220000000e-02	2.678476793e-01	-2.076909925e-04	5.357077401e-12
-2.230000000e-02	2.678476728e-01	-2.049777511e-04	2.152782807e-11
-2.240000000e-02	2.678476662e-01	-2.022645101e-04	9.957344450e-12
-2.250000000e-02	2.678476595e-01	-1.995512696e-04	6.968786927e-12
-2.260000000e-02	2.678476528e-01	-1.968380295e-04	5.120969162e-12
-2.270000000e-02	2.678476459e-01	-1.941247898e-04	1.180632519e-11
-2.280000000e-02	2.678476390e-01	-1.914115506e-04	8.634114014e-12
-2.290000000e-02	2.678476320e-01	-1.886983118e-04	2.582229582e-11
-2.300000000e-02	2.678476249e-01	-1.859850735e-04	9.557087674e-12
-2.310000000e-02	2.678476178e-01	-1.832718357e-04	1.056648994e-11
-2.320000000e-02	2.678476105e-01	-1.805585983e-04	1.792899401e-11
-2.330000000e-02	2.678476032e-01	-1.778453614e-04	1.143814662e-11
-2.340000000e-02	2.678475958e-01	-1.751321250e-04	7.099071815e-12
-2.350000000e-02	2.678475883e-01	-1.724188891e-04	1.934318425e-11
-2.360000000e-02	2.678475807e-01	-1.697056536e-04	5.061982486e-12
-2.370000000e-02	2.678475731e-01	-1.669924186e-04	1.514929620e-11
-2.380000000e-02	2.678475653e-01	-1.642791841e-04	2.399892666e-11
-2.390000000e-02	2.678475575e-01	-1.615659502e-04	1.283612280e-11
-2.400000000e-02	2.678475496e-01	-1.588527167e-04	1.641465052e-11
-2.410000000e-02	2.678475416e-01	-1.561394837e-04	8.968731561e-12
-2.420000000e-02	2.678475336e-01	-1.534262512e-04	7.789079727e-12
-2.430000000e-02	2.678475254e-01	-1.507130193e-04	1.824592349e-11
-2.440000000e-02	2.678475172e-01	-1.479997878e-04	2.454683241e-11
-2.450000000e-02	2.678475089e-01	-1.452865569e-04	8.897022148e-12
-2.460000000e-02	2.678475005e-01	-1.425733265e-04	1.200654061e-11
-2.470000000e-02	2.678474920e-01	-1.398600966e-04	2.080786910e-11
-2.480000000e-02	2.678474834e-01	-1.371468673e-04	7.408895926e-12
-2.490000000e-02	2.678474748e-01	-1.344336385e-04	4.385155835e-12
-2.500000000e-02	2.678474660e-01	-1.317204102e-04	8.501241880e-12
-2.510000000e-02	2.678474572e-01	-1.290071825e-04	7.775680131e-12
-2.520000000e-02	2.678474483e-01	-1.262939554e-04	3.173393548e-11
-2.530000000e-02	2.678474394e-01	-1.235807288e-04	2.674991276e-11
-2.540000000e-02	2.678474303e-01	-1.208675027e-04	6.841374996e-12
-2.550000000e-02	2.678474212e-01	-1.181542772e-04	4.767284463e-12
-2.560000000e-02	2.678474119e-01	-1.154410523e-04	1.378942134e-11
-2.570000000e-02	2.678474026e-01	-1.127278280e-04	1.517886104e-11
-2.580000000e-02	2.678473932e-01	-1.100146042e-04	6.767581537e-12
-2.590000000e-02	2.678473838e-01	-1.073013810e-04	8.679586505e-12
-2.600000000e-02	2.678473742e-01	-1.045881584e-04	2.717230466e-11
-2.610000000e-02	2.678473646e-01	-1.018749364e-04	1.637939647e-11
-2.620000000e-02	2.678473549e-01	-9.916171495e-05	1.959499919e-11
-2.630000000e-02	2.678473451e-01	-9.644849411e-05	4.216979222e-12
-2.640000000e-02	2.678473352e-01	-9.373527388e-05	6.586588398e-11
-2.650000000e-02	2.678473252e-01	-9.102205425e-05	1.329114602e-11
-2.660000000e-02	2.678473152e-01	-8.830883523e-05	9.743530614e-12
-2.670000000e-02	2.678473050e-01	-8.559561682e-05	1.165910003e-11
-2.680000000e-02	2.678472948e-01	-8.288239903e-05	1.042308479e-11
-2.690000000e-02	2.678472845e-01	-8.016918186e-05	2.441349580e-11
-2.700000000e-02	2.678472742e-01	-7.745596532e-05	1.665404117e-11
-2.710000000e-02	2.678472637e-01	-7.474274940e-05	1.076132882e-11
-2.720000000e-02	2.678472532e-01	-7.202953412e-05	1.057063240e-11
-2.730000000e-02	2.678472425e-01	-6.931631948e-05	3.642471897e-11
-2.740000000e-02	2.678472318e-01	-6.660310548e-05	1.536394980e-11
-2.750000000e-02	2.678472210e-01	-6.388989212e-05	1.705394483e-11
-2.760000000e-02	2.678472102e-01	-6.117667941e-05	1.804142293e-11
-2.770000000e-02	2.678471992e-01	-5.846346736e-05	2.258771591e-11
-2.780000000e-02	2.678471882e-01	-5.575025597e-05	5.436980523e-11
-2.790000000e-02	2.678471771e-01	-5.303704524e-05	3.319821032e-11
-2.800000000e-02	2.678471659e-01	-5.032383517e-05	1.596535338e-11
-2.810000000e-02	2.678471546e-01	-4.761062578e-05	6.433255706e-12
-2.820000000e-02	2.678471432e-01	-4.489741707e-05	6.762869725e-12
-2.830000000e-02	2.678471318e-01	-4.218420903e-05	1.606844004e-11
-2.840000000e-02	2.678471202e-01	-3.947100167e-05	1.113581138e-11
-2.850000000e-02	2.678471086e-01	-3.675779501e-05	1.443095702e-11
-2.860000000e-02	2.678470969e-01	-3.404458903e-05	8.216436060e-12
-2.870000000e-02	2.678470851e-01	-3.133138375e-05	1.434439588e-11
-2.880000000e-02	2.678470733e-01	-2.861817918e-05	1.574781987e-11
-2.890000000e-02	2.678470613e-01	-2.590497530e-05	8.769668123e-12
-2.900000000e-02	2.678470493e-01	-2.319177214e-05	6.698847776e-12
-2.910000000e-02	2.678470372e-01	-2.047856968e-05	2.970108306e-11
-2.920000000e-02	2.678470250e-01	-1.776536795e-05	3.736889858e-11
-2.930000000e-02	2.678470127e-01	-1.505216693e-05	1.674283399e-11
-2.940000000e-02	2.678470004e-01	-1.233896665e-05	8.258929247e-12
-2.950000000e-02	2.678469880e-01	-9.625767085e-06	9.671972074e-12
-2.960000000e-02	2.678469754e-01	-6.912568259e-06	1.100270211e-11
-2.970000000e-02	2.678469628e-01	-4.199370169e-06	6.879987992e-11
-2.980000000e-02	2.678469502e-01	-1.486172825e-06	1.347708034e-11
-2.990000000e-02	2.678469374e-01	1.227023776e-06	1.509718350e-11
-3.000000000e-02	2.678469245e-01	3.940219626e-06	2.314424104e-11
