# Im(epsi1)     Re(omega/c)      Im(omega/c)      Eq(det).Opt det CON kz, R=0.5 \mum, mu_c=0.3, Re(epsi1)=3.90solve_det_conkz_vs_kz.py
0.000000000e+00	2.678657132e-01	-8.101149350e-04	1.724145898e-11
-1.000000000e-04	2.678657250e-01	-8.074015526e-04	3.439215970e-11
-2.000000000e-04	2.678657367e-01	-8.046881698e-04	3.008107247e-12
-3.000000000e-04	2.678657483e-01	-8.019747864e-04	6.394047497e-12
-4.000000000e-04	2.678657599e-01	-7.992614026e-04	4.552139685e-12
-5.000000000e-04	2.678657713e-01	-7.965480183e-04	9.917555061e-12
-6.000000000e-04	2.678657827e-01	-7.938346335e-04	5.380274592e-11
-7.000000000e-04	2.678657940e-01	-7.911212482e-04	1.682871580e-11
-8.000000000e-04	2.678658052e-01	-7.884078625e-04	1.978055792e-11
-9.000000000e-04	2.678658164e-01	-7.856944763e-04	3.230307108e-11
-1.000000000e-03	2.678658274e-01	-7.829810897e-04	5.848546227e-12
-1.100000000e-03	2.678658384e-01	-7.802677026e-04	5.227328269e-11
-1.200000000e-03	2.678658493e-01	-7.775543150e-04	7.080984237e-12
-1.300000000e-03	2.678658601e-01	-7.748409270e-04	1.755315378e-11
-1.400000000e-03	2.678658708e-01	-7.721275385e-04	1.897418965e-11
-1.500000000e-03	2.678658815e-01	-7.694141497e-04	4.795186215e-12
-1.600000000e-03	2.678658920e-01	-7.667007603e-04	5.439653451e-12
-1.700000000e-03	2.678659025e-01	-7.639873706e-04	1.887702402e-11
-1.800000000e-03	2.678659129e-01	-7.612739804e-04	4.346468210e-12
-1.900000000e-03	2.678659232e-01	-7.585605898e-04	3.670856842e-11
-2.000000000e-03	2.678659334e-01	-7.558471988e-04	2.006768146e-11
-2.100000000e-03	2.678659436e-01	-7.531338074e-04	3.493462691e-11
-2.200000000e-03	2.678659537e-01	-7.504204155e-04	1.279326377e-11
-2.300000000e-03	2.678659636e-01	-7.477070233e-04	2.014652498e-11
-2.400000000e-03	2.678659735e-01	-7.449936306e-04	1.477119738e-11
-2.500000000e-03	2.678659834e-01	-7.422802376e-04	9.993179155e-12
-2.600000000e-03	2.678659931e-01	-7.395668441e-04	1.288777983e-12
-2.700000000e-03	2.678660028e-01	-7.368534503e-04	2.435304104e-12
-2.800000000e-03	2.678660123e-01	-7.341400561e-04	1.806262098e-11
-2.900000000e-03	2.678660218e-01	-7.314266615e-04	3.424756561e-12
-3.000000000e-03	2.678660312e-01	-7.287132666e-04	4.004103569e-11
-3.100000000e-03	2.678660405e-01	-7.259998712e-04	3.060856571e-11
-3.200000000e-03	2.678660498e-01	-7.232864755e-04	2.529370183e-11
-3.300000000e-03	2.678660589e-01	-7.205730795e-04	4.164697119e-12
-3.400000000e-03	2.678660680e-01	-7.178596830e-04	7.174215605e-12
-3.500000000e-03	2.678660770e-01	-7.151462862e-04	6.040220938e-12
-3.600000000e-03	2.678660859e-01	-7.124328891e-04	6.863449418e-11
-3.700000000e-03	2.678660948e-01	-7.097194916e-04	1.144395414e-11
-3.800000000e-03	2.678661035e-01	-7.070060938e-04	3.890654957e-12
-3.900000000e-03	2.678661122e-01	-7.042926956e-04	1.091928931e-11
-4.000000000e-03	2.678661207e-01	-7.015792972e-04	1.096812173e-11
-4.100000000e-03	2.678661292e-01	-6.988658983e-04	4.139153083e-11
-4.200000000e-03	2.678661377e-01	-6.961524992e-04	4.238785489e-11
-4.300000000e-03	2.678661460e-01	-6.934390997e-04	1.860997318e-11
-4.400000000e-03	2.678661543e-01	-6.907256999e-04	1.992388471e-11
-4.500000000e-03	2.678661624e-01	-6.880122998e-04	1.190181497e-12
-4.600000000e-03	2.678661705e-01	-6.852988994e-04	1.597688489e-11
-4.700000000e-03	2.678661785e-01	-6.825854987e-04	1.961250232e-11
-4.800000000e-03	2.678661864e-01	-6.798720977e-04	4.088397494e-11
-4.900000000e-03	2.678661943e-01	-6.771586963e-04	1.056988546e-11
-5.000000000e-03	2.678662020e-01	-6.744452947e-04	5.189962101e-11
-5.100000000e-03	2.678662097e-01	-6.717318928e-04	7.616472844e-12
-5.200000000e-03	2.678662173e-01	-6.690184906e-04	3.915573892e-11
-5.300000000e-03	2.678662248e-01	-6.663050882e-04	1.681686313e-11
-5.400000000e-03	2.678662322e-01	-6.635916854e-04	3.297736209e-12
-5.500000000e-03	2.678662396e-01	-6.608782824e-04	3.568694248e-11
-5.600000000e-03	2.678662468e-01	-6.581648792e-04	3.703404197e-12
-5.700000000e-03	2.678662540e-01	-6.554514756e-04	1.425725772e-11
-5.800000000e-03	2.678662611e-01	-6.527380718e-04	1.137164941e-11
-5.900000000e-03	2.678662681e-01	-6.500246678e-04	1.231040652e-11
-6.000000000e-03	2.678662751e-01	-6.473112635e-04	1.565109159e-11
-6.100000000e-03	2.678662819e-01	-6.445978589e-04	7.737634572e-11
-6.200000000e-03	2.678662887e-01	-6.418844541e-04	1.037875977e-11
-6.300000000e-03	2.678662954e-01	-6.391710491e-04	1.193364533e-11
-6.400000000e-03	2.678663020e-01	-6.364576438e-04	1.359901923e-11
-6.500000000e-03	2.678663085e-01	-6.337442383e-04	1.738681120e-11
-6.600000000e-03	2.678663149e-01	-6.310308326e-04	5.447143503e-12
-6.700000000e-03	2.678663213e-01	-6.283174266e-04	5.651675669e-12
-6.800000000e-03	2.678663276e-01	-6.256040205e-04	1.921132708e-11
-6.900000000e-03	2.678663338e-01	-6.228906141e-04	1.696717574e-11
-7.000000000e-03	2.678663399e-01	-6.201772075e-04	1.707627397e-11
-7.100000000e-03	2.678663459e-01	-6.174638007e-04	5.715061640e-11
-7.200000000e-03	2.678663518e-01	-6.147503937e-04	1.033433059e-11
-7.300000000e-03	2.678663577e-01	-6.120369866e-04	1.086283154e-11
-7.400000000e-03	2.678663635e-01	-6.093235792e-04	1.882636715e-11
-7.500000000e-03	2.678663692e-01	-6.066101716e-04	1.276357036e-11
-7.600000000e-03	2.678663748e-01	-6.038967639e-04	2.459659980e-11
-7.700000000e-03	2.678663803e-01	-6.011833559e-04	4.161183954e-12
-7.800000000e-03	2.678663858e-01	-5.984699478e-04	1.539247384e-11
-7.900000000e-03	2.678663911e-01	-5.957565395e-04	1.192480399e-11
-8.000000000e-03	2.678663964e-01	-5.930431311e-04	3.231041555e-11
-8.100000000e-03	2.678664016e-01	-5.903297225e-04	5.790288322e-12
-8.200000000e-03	2.678664068e-01	-5.876163137e-04	1.092106097e-11
-8.300000000e-03	2.678664118e-01	-5.849029048e-04	3.493540986e-12
-8.400000000e-03	2.678664167e-01	-5.821894957e-04	1.262348083e-11
-8.500000000e-03	2.678664216e-01	-5.794760865e-04	1.842904493e-11
-8.600000000e-03	2.678664264e-01	-5.767626771e-04	3.150954482e-11
-8.700000000e-03	2.678664311e-01	-5.740492676e-04	1.776228822e-11
-8.800000000e-03	2.678664357e-01	-5.713358580e-04	1.227669257e-11
-8.900000000e-03	2.678664403e-01	-5.686224482e-04	2.959378507e-11
-9.000000000e-03	2.678664447e-01	-5.659090383e-04	1.279734322e-11
-9.100000000e-03	2.678664491e-01	-5.631956283e-04	5.648036648e-12
-9.200000000e-03	2.678664534e-01	-5.604822182e-04	7.935447021e-12
-9.300000000e-03	2.678664576e-01	-5.577688079e-04	1.194257508e-11
-9.400000000e-03	2.678664618e-01	-5.550553976e-04	5.848043831e-12
-9.500000000e-03	2.678664658e-01	-5.523419871e-04	2.451932158e-11
-9.600000000e-03	2.678664698e-01	-5.496285766e-04	1.384444416e-11
-9.700000000e-03	2.678664737e-01	-5.469151659e-04	4.192908040e-12
-9.800000000e-03	2.678664775e-01	-5.442017552e-04	1.108231494e-11
-9.900000000e-03	2.678664812e-01	-5.414883443e-04	9.850926981e-12
-1.000000000e-02	2.678664848e-01	-5.387749334e-04	6.183459520e-12
-1.010000000e-02	2.678664884e-01	-5.360615224e-04	1.092314149e-11
-1.020000000e-02	2.678664918e-01	-5.333481113e-04	6.237491771e-12
-1.030000000e-02	2.678664952e-01	-5.306347002e-04	1.724419864e-11
-1.040000000e-02	2.678664985e-01	-5.279212890e-04	1.206181112e-11
-1.050000000e-02	2.678665018e-01	-5.252078777e-04	1.262534412e-11
-1.060000000e-02	2.678665049e-01	-5.224944664e-04	2.953198438e-11
-1.070000000e-02	2.678665080e-01	-5.197810550e-04	2.915586792e-11
-1.080000000e-02	2.678665109e-01	-5.170676435e-04	1.258916848e-11
-1.090000000e-02	2.678665138e-01	-5.143542320e-04	2.131437291e-11
-1.100000000e-02	2.678665166e-01	-5.116408205e-04	4.373976634e-11
-1.110000000e-02	2.678665194e-01	-5.089274089e-04	4.633044181e-12
-1.120000000e-02	2.678665220e-01	-5.062139973e-04	4.854486628e-11
-1.130000000e-02	2.678665246e-01	-5.035005857e-04	2.309323427e-12
-1.140000000e-02	2.678665271e-01	-5.007871740e-04	4.667218125e-12
-1.150000000e-02	2.678665295e-01	-4.980737624e-04	1.678227100e-11
-1.160000000e-02	2.678665318e-01	-4.953603507e-04	4.883136732e-12
-1.170000000e-02	2.678665340e-01	-4.926469390e-04	9.395561094e-12
-1.180000000e-02	2.678665362e-01	-4.899335272e-04	1.994249510e-11
-1.190000000e-02	2.678665382e-01	-4.872201155e-04	2.088227537e-11
-1.200000000e-02	2.678665402e-01	-4.845067038e-04	1.452761795e-11
-1.210000000e-02	2.678665421e-01	-4.817932921e-04	1.476126188e-11
-1.220000000e-02	2.678665440e-01	-4.790798804e-04	7.811965113e-11
-1.230000000e-02	2.678665457e-01	-4.763664686e-04	1.179915931e-11
-1.240000000e-02	2.678665474e-01	-4.736530570e-04	3.698421215e-11
-1.250000000e-02	2.678665489e-01	-4.709396453e-04	1.586341108e-11
-1.260000000e-02	2.678665504e-01	-4.682262337e-04	1.329618194e-11
-1.270000000e-02	2.678665518e-01	-4.655128220e-04	1.847327405e-11
-1.280000000e-02	2.678665532e-01	-4.627994105e-04	2.511771901e-11
-1.290000000e-02	2.678665544e-01	-4.600859989e-04	7.454795942e-12
-1.300000000e-02	2.678665556e-01	-4.573725874e-04	1.728642204e-12
-1.310000000e-02	2.678665567e-01	-4.546591760e-04	2.285410223e-11
-1.320000000e-02	2.678665577e-01	-4.519457646e-04	1.832515697e-11
-1.330000000e-02	2.678665586e-01	-4.492323532e-04	2.338266248e-11
-1.340000000e-02	2.678665594e-01	-4.465189419e-04	1.150161856e-11
-1.350000000e-02	2.678665602e-01	-4.438055307e-04	6.873642045e-12
-1.360000000e-02	2.678665608e-01	-4.410921195e-04	1.117183457e-11
-1.370000000e-02	2.678665614e-01	-4.383787084e-04	1.224182683e-11
-1.380000000e-02	2.678665619e-01	-4.356652974e-04	1.283924548e-11
-1.390000000e-02	2.678665623e-01	-4.329518865e-04	6.633832264e-11
-1.400000000e-02	2.678665627e-01	-4.302384756e-04	5.478941119e-11
-1.410000000e-02	2.678665629e-01	-4.275250648e-04	3.562099645e-11
-1.420000000e-02	2.678665631e-01	-4.248116541e-04	3.212045519e-11
-1.430000000e-02	2.678665632e-01	-4.220982436e-04	1.831315196e-11
-1.440000000e-02	2.678665632e-01	-4.193848331e-04	1.054313110e-11
-1.450000000e-02	2.678665631e-01	-4.166714227e-04	7.753728908e-12
-1.460000000e-02	2.678665630e-01	-4.139580124e-04	1.605600968e-11
-1.470000000e-02	2.678665627e-01	-4.112446023e-04	1.292911476e-11
-1.480000000e-02	2.678665624e-01	-4.085311922e-04	9.411046771e-12
-1.490000000e-02	2.678665620e-01	-4.058177823e-04	2.049270494e-11
-1.500000000e-02	2.678665615e-01	-4.031043725e-04	2.739409515e-11
-1.510000000e-02	2.678665610e-01	-4.003909628e-04	3.211933017e-11
-1.520000000e-02	2.678665603e-01	-3.976775533e-04	1.861733255e-11
-1.530000000e-02	2.678665596e-01	-3.949641439e-04	1.461654237e-11
-1.540000000e-02	2.678665588e-01	-3.922507346e-04	6.957247763e-12
-1.550000000e-02	2.678665579e-01	-3.895373255e-04	1.509006972e-11
-1.560000000e-02	2.678665569e-01	-3.868239165e-04	4.727899275e-12
-1.570000000e-02	2.678665558e-01	-3.841105077e-04	1.488484001e-11
-1.580000000e-02	2.678665547e-01	-3.813970991e-04	3.481874108e-11
-1.590000000e-02	2.678665535e-01	-3.786836906e-04	1.900661705e-11
-1.600000000e-02	2.678665522e-01	-3.759702822e-04	8.032187126e-12
-1.610000000e-02	2.678665508e-01	-3.732568741e-04	2.566136073e-11
-1.620000000e-02	2.678665493e-01	-3.705434661e-04	1.268621556e-11
-1.630000000e-02	2.678665477e-01	-3.678300583e-04	4.385908534e-12
-1.640000000e-02	2.678665461e-01	-3.651166507e-04	3.573007546e-11
-1.650000000e-02	2.678665444e-01	-3.624032432e-04	1.502799367e-11
-1.660000000e-02	2.678665426e-01	-3.596898360e-04	1.252725278e-11
-1.670000000e-02	2.678665407e-01	-3.569764290e-04	6.959335836e-12
-1.680000000e-02	2.678665387e-01	-3.542630221e-04	2.775606181e-11
-1.690000000e-02	2.678665367e-01	-3.515496155e-04	9.929486492e-12
-1.700000000e-02	2.678665345e-01	-3.488362090e-04	1.264348751e-11
-1.710000000e-02	2.678665323e-01	-3.461228028e-04	1.999928105e-11
-1.720000000e-02	2.678665300e-01	-3.434093968e-04	1.875258927e-11
-1.730000000e-02	2.678665276e-01	-3.406959910e-04	6.030208543e-11
-1.740000000e-02	2.678665252e-01	-3.379825855e-04	4.375214739e-11
-1.750000000e-02	2.678665226e-01	-3.352691801e-04	2.981977848e-11
-1.760000000e-02	2.678665200e-01	-3.325557750e-04	6.601589542e-12
-1.770000000e-02	2.678665173e-01	-3.298423702e-04	1.662026257e-11
-1.780000000e-02	2.678665145e-01	-3.271289655e-04	1.859844189e-11
-1.790000000e-02	2.678665116e-01	-3.244155612e-04	1.685248626e-11
-1.800000000e-02	2.678665087e-01	-3.217021570e-04	9.403368695e-11
-1.810000000e-02	2.678665056e-01	-3.189887532e-04	6.544479987e-11
-1.820000000e-02	2.678665025e-01	-3.162753496e-04	1.688984269e-11
-1.830000000e-02	2.678664993e-01	-3.135619462e-04	7.667090088e-12
-1.840000000e-02	2.678664960e-01	-3.108485431e-04	1.701894665e-11
-1.850000000e-02	2.678664926e-01	-3.081351403e-04	2.630534055e-11
-1.860000000e-02	2.678664892e-01	-3.054217378e-04	6.340605841e-11
-1.870000000e-02	2.678664857e-01	-3.027083355e-04	4.175938084e-11
-1.880000000e-02	2.678664820e-01	-2.999949335e-04	1.388329894e-11
-1.890000000e-02	2.678664783e-01	-2.972815318e-04	4.275734015e-11
-1.900000000e-02	2.678664746e-01	-2.945681304e-04	2.432896480e-12
-1.910000000e-02	2.678664707e-01	-2.918547293e-04	2.695108511e-11
-1.920000000e-02	2.678664667e-01	-2.891413285e-04	9.094308356e-12
-1.930000000e-02	2.678664627e-01	-2.864279280e-04	1.692821868e-11
-1.940000000e-02	2.678664586e-01	-2.837145279e-04	4.443149545e-12
-1.950000000e-02	2.678664544e-01	-2.810011280e-04	3.445808344e-12
-1.960000000e-02	2.678664501e-01	-2.782877284e-04	1.228163844e-11
-1.970000000e-02	2.678664458e-01	-2.755743292e-04	7.887012419e-12
-1.980000000e-02	2.678664413e-01	-2.728609303e-04	1.161861161e-10
-1.990000000e-02	2.678664368e-01	-2.701475317e-04	2.283492126e-11
-2.000000000e-02	2.678664322e-01	-2.674341334e-04	1.620330197e-11
-2.010000000e-02	2.678664275e-01	-2.647207355e-04	1.078024748e-11
-2.020000000e-02	2.678664227e-01	-2.620073379e-04	4.431262365e-11
-2.030000000e-02	2.678664179e-01	-2.592939407e-04	1.859993737e-11
-2.040000000e-02	2.678664129e-01	-2.565805438e-04	5.225289240e-12
-2.050000000e-02	2.678664079e-01	-2.538671473e-04	1.710853767e-11
-2.060000000e-02	2.678664028e-01	-2.511537511e-04	2.149651287e-11
-2.070000000e-02	2.678663976e-01	-2.484403553e-04	7.947640926e-12
-2.080000000e-02	2.678663924e-01	-2.457269599e-04	1.582177406e-12
-2.090000000e-02	2.678663870e-01	-2.430135648e-04	1.483351625e-11
-2.100000000e-02	2.678663816e-01	-2.403001701e-04	3.942226905e-11
-2.110000000e-02	2.678663761e-01	-2.375867758e-04	6.828849245e-12
-2.120000000e-02	2.678663705e-01	-2.348733819e-04	2.487642047e-11
-2.130000000e-02	2.678663648e-01	-2.321599883e-04	1.227848468e-11
-2.140000000e-02	2.678663591e-01	-2.294465952e-04	1.502454228e-11
-2.150000000e-02	2.678663532e-01	-2.267332024e-04	4.648888843e-12
-2.160000000e-02	2.678663473e-01	-2.240198101e-04	1.330511321e-11
-2.170000000e-02	2.678663413e-01	-2.213064181e-04	8.028566892e-12
-2.180000000e-02	2.678663352e-01	-2.185930266e-04	3.240186692e-11
-2.190000000e-02	2.678663290e-01	-2.158796354e-04	5.758212908e-12
-2.200000000e-02	2.678663228e-01	-2.131662447e-04	1.535404461e-11
-2.210000000e-02	2.678663164e-01	-2.104528544e-04	3.782208587e-12
-2.220000000e-02	2.678663100e-01	-2.077394645e-04	6.562448240e-13
-2.230000000e-02	2.678663035e-01	-2.050260751e-04	7.943852950e-12
-2.240000000e-02	2.678662969e-01	-2.023126861e-04	1.519209729e-11
-2.250000000e-02	2.678662903e-01	-1.995992975e-04	1.425812394e-11
-2.260000000e-02	2.678662835e-01	-1.968859094e-04	1.049047312e-11
-2.270000000e-02	2.678662767e-01	-1.941725217e-04	9.045280525e-12
-2.280000000e-02	2.678662698e-01	-1.914591345e-04	4.350176552e-12
-2.290000000e-02	2.678662628e-01	-1.887457477e-04	7.873701011e-11
-2.300000000e-02	2.678662557e-01	-1.860323614e-04	1.630099809e-11
-2.310000000e-02	2.678662485e-01	-1.833189755e-04	8.807680451e-12
-2.320000000e-02	2.678662413e-01	-1.806055901e-04	1.127912754e-11
-2.330000000e-02	2.678662339e-01	-1.778922052e-04	3.688994388e-12
-2.340000000e-02	2.678662265e-01	-1.751788208e-04	1.737668744e-11
-2.350000000e-02	2.678662190e-01	-1.724654368e-04	7.531773966e-12
-2.360000000e-02	2.678662115e-01	-1.697520533e-04	1.588072964e-11
-2.370000000e-02	2.678662038e-01	-1.670386703e-04	2.363005127e-11
-2.380000000e-02	2.678661961e-01	-1.643252878e-04	3.027973599e-11
-2.390000000e-02	2.678661883e-01	-1.616119058e-04	1.067512036e-11
-2.400000000e-02	2.678661804e-01	-1.588985243e-04	1.559154591e-12
-2.410000000e-02	2.678661724e-01	-1.561851433e-04	1.197262140e-11
-2.420000000e-02	2.678661643e-01	-1.534717628e-04	1.545274611e-11
-2.430000000e-02	2.678661562e-01	-1.507583828e-04	9.536016809e-12
-2.440000000e-02	2.678661479e-01	-1.480450034e-04	8.779992001e-12
-2.450000000e-02	2.678661396e-01	-1.453316244e-04	9.490984271e-12
-2.460000000e-02	2.678661312e-01	-1.426182460e-04	1.203186913e-11
-2.470000000e-02	2.678661227e-01	-1.399048681e-04	3.333550347e-12
-2.480000000e-02	2.678661142e-01	-1.371914907e-04	6.680941998e-12
-2.490000000e-02	2.678661055e-01	-1.344781139e-04	2.261039027e-11
-2.500000000e-02	2.678660968e-01	-1.317647376e-04	6.229402545e-12
-2.510000000e-02	2.678660880e-01	-1.290513619e-04	1.145639228e-11
-2.520000000e-02	2.678660791e-01	-1.263379867e-04	1.415430215e-11
-2.530000000e-02	2.678660701e-01	-1.236246121e-04	1.572476814e-11
-2.540000000e-02	2.678660611e-01	-1.209112380e-04	2.562709183e-11
-2.550000000e-02	2.678660519e-01	-1.181978645e-04	4.484384917e-11
-2.560000000e-02	2.678660427e-01	-1.154844916e-04	7.932721479e-12
-2.570000000e-02	2.678660334e-01	-1.127711192e-04	4.186855486e-12
-2.580000000e-02	2.678660240e-01	-1.100577474e-04	4.186461303e-12
-2.590000000e-02	2.678660145e-01	-1.073443762e-04	3.406485641e-12
-2.600000000e-02	2.678660050e-01	-1.046310056e-04	2.342869757e-11
-2.610000000e-02	2.678659953e-01	-1.019176355e-04	1.759934766e-11
-2.620000000e-02	2.678659856e-01	-9.920426607e-05	1.833874180e-11
-2.630000000e-02	2.678659758e-01	-9.649089721e-05	8.564130048e-12
-2.640000000e-02	2.678659660e-01	-9.377752896e-05	8.972351768e-12
-2.650000000e-02	2.678659560e-01	-9.106416130e-05	1.325421786e-11
-2.660000000e-02	2.678659459e-01	-8.835079426e-05	1.661805494e-11
-2.670000000e-02	2.678659358e-01	-8.563742783e-05	8.218548072e-12
-2.680000000e-02	2.678659256e-01	-8.292406202e-05	4.761483722e-12
-2.690000000e-02	2.678659153e-01	-8.021069682e-05	2.017550173e-12
-2.700000000e-02	2.678659049e-01	-7.749733225e-05	4.342716092e-11
-2.710000000e-02	2.678658945e-01	-7.478396831e-05	4.797532310e-12
-2.720000000e-02	2.678658839e-01	-7.207060501e-05	2.011127404e-11
-2.730000000e-02	2.678658733e-01	-6.935724234e-05	3.013929220e-11
-2.740000000e-02	2.678658626e-01	-6.664388031e-05	8.051153391e-11
-2.750000000e-02	2.678658518e-01	-6.393051894e-05	9.328043456e-12
-2.760000000e-02	2.678658409e-01	-6.121715821e-05	6.430292485e-12
-2.770000000e-02	2.678658300e-01	-5.850379813e-05	3.774689243e-11
-2.780000000e-02	2.678658190e-01	-5.579043871e-05	3.280101761e-12
-2.790000000e-02	2.678658078e-01	-5.307707996e-05	8.765376295e-12
-2.800000000e-02	2.678657966e-01	-5.036372187e-05	1.115220278e-11
-2.810000000e-02	2.678657854e-01	-4.765036446e-05	3.021890516e-12
-2.820000000e-02	2.678657740e-01	-4.493700771e-05	6.061681787e-12
-2.830000000e-02	2.678657625e-01	-4.222365165e-05	1.722810000e-11
-2.840000000e-02	2.678657510e-01	-3.951029627e-05	7.711557519e-12
-2.850000000e-02	2.678657394e-01	-3.679694158e-05	3.961943095e-11
-2.860000000e-02	2.678657277e-01	-3.408358759e-05	2.091502120e-11
-2.870000000e-02	2.678657159e-01	-3.137023428e-05	1.401310253e-11
-2.880000000e-02	2.678657041e-01	-2.865688168e-05	3.196024146e-11
-2.890000000e-02	2.678656921e-01	-2.594352978e-05	2.208444218e-11
-2.900000000e-02	2.678656801e-01	-2.323017859e-05	2.290599546e-11
-2.910000000e-02	2.678656680e-01	-2.051682812e-05	9.198287567e-12
-2.920000000e-02	2.678656558e-01	-1.780347836e-05	1.325124177e-11
-2.930000000e-02	2.678656435e-01	-1.509012932e-05	1.576244293e-11
-2.940000000e-02	2.678656312e-01	-1.237678101e-05	6.309388551e-12
-2.950000000e-02	2.678656187e-01	-9.663433421e-06	9.203397652e-12
-2.960000000e-02	2.678656062e-01	-6.950086571e-06	1.804139079e-12
-2.970000000e-02	2.678655936e-01	-4.236740459e-06	1.803163718e-11
-2.980000000e-02	2.678655809e-01	-1.523395088e-06	1.470626153e-11
-2.990000000e-02	2.678655682e-01	1.189949537e-06	9.482347691e-12
-3.000000000e-02	2.678655553e-01	3.903293412e-06	9.726863650e-11
