# Im(epsi1)     Re(omega/c)      Im(omega/c)      Eq(det).Opt det CON kz, R=0.5 \mum, mu_c=0.3, Re(epsi1)=3.90solve_det_conkz_vs_kz.py
0.000000000e+00	2.678580526e-01	-8.100814916e-04	2.878206486e-12
-1.000000000e-04	2.678580644e-01	-8.073681701e-04	1.906521855e-11
-2.000000000e-04	2.678580761e-01	-8.046548481e-04	2.004111748e-11
-3.000000000e-04	2.678580877e-01	-8.019415256e-04	1.221420835e-11
-4.000000000e-04	2.678580992e-01	-7.992282026e-04	1.221671028e-11
-5.000000000e-04	2.678581107e-01	-7.965148792e-04	4.419624305e-13
-6.000000000e-04	2.678581221e-01	-7.938015552e-04	1.071764934e-11
-7.000000000e-04	2.678581334e-01	-7.910882308e-04	7.577589618e-12
-8.000000000e-04	2.678581446e-01	-7.883749060e-04	1.008108420e-12
-9.000000000e-04	2.678581558e-01	-7.856615806e-04	1.255839567e-11
-1.000000000e-03	2.678581668e-01	-7.829482549e-04	1.236308051e-11
-1.100000000e-03	2.678581778e-01	-7.802349286e-04	2.613996868e-11
-1.200000000e-03	2.678581887e-01	-7.775216019e-04	1.220738104e-11
-1.300000000e-03	2.678581995e-01	-7.748082748e-04	4.167387345e-11
-1.400000000e-03	2.678582102e-01	-7.720949472e-04	9.531909844e-12
-1.500000000e-03	2.678582208e-01	-7.693816192e-04	9.043169015e-12
-1.600000000e-03	2.678582314e-01	-7.666682907e-04	1.849542262e-11
-1.700000000e-03	2.678582419e-01	-7.639549618e-04	1.280100272e-11
-1.800000000e-03	2.678582523e-01	-7.612416325e-04	5.367543527e-11
-1.900000000e-03	2.678582626e-01	-7.585283028e-04	5.950271036e-12
-2.000000000e-03	2.678582728e-01	-7.558149726e-04	1.645766498e-11
-2.100000000e-03	2.678582830e-01	-7.531016421e-04	3.179904360e-11
-2.200000000e-03	2.678582930e-01	-7.503883111e-04	2.007290562e-11
-2.300000000e-03	2.678583030e-01	-7.476749797e-04	9.829008024e-12
-2.400000000e-03	2.678583129e-01	-7.449616479e-04	1.121124146e-11
-2.500000000e-03	2.678583227e-01	-7.422483157e-04	1.088264107e-11
-2.600000000e-03	2.678583325e-01	-7.395349832e-04	8.325377018e-12
-2.700000000e-03	2.678583421e-01	-7.368216502e-04	1.186518791e-11
-2.800000000e-03	2.678583517e-01	-7.341083169e-04	2.708962338e-11
-2.900000000e-03	2.678583612e-01	-7.313949831e-04	2.081362464e-11
-3.000000000e-03	2.678583706e-01	-7.286816490e-04	2.501440984e-11
-3.100000000e-03	2.678583799e-01	-7.259683146e-04	1.234372086e-11
-3.200000000e-03	2.678583891e-01	-7.232549797e-04	1.608468864e-11
-3.300000000e-03	2.678583983e-01	-7.205416445e-04	1.251999203e-11
-3.400000000e-03	2.678584074e-01	-7.178283090e-04	1.761103752e-11
-3.500000000e-03	2.678584164e-01	-7.151149730e-04	1.111637239e-11
-3.600000000e-03	2.678584253e-01	-7.124016368e-04	1.275391785e-11
-3.700000000e-03	2.678584341e-01	-7.096883002e-04	1.647022247e-11
-3.800000000e-03	2.678584429e-01	-7.069749632e-04	7.616642800e-12
-3.900000000e-03	2.678584515e-01	-7.042616259e-04	1.773340817e-11
-4.000000000e-03	2.678584601e-01	-7.015482883e-04	1.788144963e-11
-4.100000000e-03	2.678584686e-01	-6.988349503e-04	1.079132786e-11
-4.200000000e-03	2.678584770e-01	-6.961216120e-04	5.010889893e-11
-4.300000000e-03	2.678584853e-01	-6.934082734e-04	1.144560096e-11
-4.400000000e-03	2.678584936e-01	-6.906949345e-04	1.205443668e-11
-4.500000000e-03	2.678585018e-01	-6.879815952e-04	1.437351811e-11
-4.600000000e-03	2.678585099e-01	-6.852682557e-04	3.197938063e-11
-4.700000000e-03	2.678585179e-01	-6.825549158e-04	3.695447697e-11
-4.800000000e-03	2.678585258e-01	-6.798415757e-04	6.758023655e-12
-4.900000000e-03	2.678585336e-01	-6.771282352e-04	1.064513892e-11
-5.000000000e-03	2.678585414e-01	-6.744148945e-04	2.675647938e-11
-5.100000000e-03	2.678585491e-01	-6.717015535e-04	2.629573967e-11
-5.200000000e-03	2.678585566e-01	-6.689882121e-04	1.725357022e-11
-5.300000000e-03	2.678585642e-01	-6.662748705e-04	1.026079665e-11
-5.400000000e-03	2.678585716e-01	-6.635615287e-04	2.679740995e-11
-5.500000000e-03	2.678585789e-01	-6.608481865e-04	4.801524087e-11
-5.600000000e-03	2.678585862e-01	-6.581348441e-04	5.602365173e-12
-5.700000000e-03	2.678585934e-01	-6.554215014e-04	1.018242985e-11
-5.800000000e-03	2.678586005e-01	-6.527081585e-04	1.614553182e-11
-5.900000000e-03	2.678586075e-01	-6.499948153e-04	1.422742525e-11
-6.000000000e-03	2.678586144e-01	-6.472814719e-04	1.312932736e-11
-6.100000000e-03	2.678586213e-01	-6.445681282e-04	6.923455976e-12
-6.200000000e-03	2.678586280e-01	-6.418547842e-04	5.448158279e-12
-6.300000000e-03	2.678586347e-01	-6.391414401e-04	8.989024290e-12
-6.400000000e-03	2.678586413e-01	-6.364280957e-04	1.025955718e-11
-6.500000000e-03	2.678586478e-01	-6.337147510e-04	2.742388405e-11
-6.600000000e-03	2.678586543e-01	-6.310014062e-04	5.119317366e-11
-6.700000000e-03	2.678586606e-01	-6.282880611e-04	2.152743328e-11
-6.800000000e-03	2.678586669e-01	-6.255747158e-04	1.460537779e-11
-6.900000000e-03	2.678586731e-01	-6.228613703e-04	5.069959706e-12
-7.000000000e-03	2.678586792e-01	-6.201480246e-04	4.235092847e-11
-7.100000000e-03	2.678586852e-01	-6.174346786e-04	3.474458335e-12
-7.200000000e-03	2.678586912e-01	-6.147213325e-04	4.769744122e-12
-7.300000000e-03	2.678586970e-01	-6.120079862e-04	1.192682626e-11
-7.400000000e-03	2.678587028e-01	-6.092946397e-04	5.680500496e-11
-7.500000000e-03	2.678587085e-01	-6.065812930e-04	5.227033560e-12
-7.600000000e-03	2.678587141e-01	-6.038679461e-04	2.867061490e-11
-7.700000000e-03	2.678587197e-01	-6.011545990e-04	9.439010811e-12
-7.800000000e-03	2.678587251e-01	-5.984412518e-04	7.537042968e-12
-7.900000000e-03	2.678587305e-01	-5.957279044e-04	4.823416126e-12
-8.000000000e-03	2.678587358e-01	-5.930145568e-04	4.478815969e-11
-8.100000000e-03	2.678587410e-01	-5.903012090e-04	3.845129759e-12
-8.200000000e-03	2.678587461e-01	-5.875878611e-04	3.208354985e-11
-8.300000000e-03	2.678587511e-01	-5.848745131e-04	1.215830241e-11
-8.400000000e-03	2.678587561e-01	-5.821611649e-04	6.523131094e-12
-8.500000000e-03	2.678587609e-01	-5.794478165e-04	8.633188205e-12
-8.600000000e-03	2.678587657e-01	-5.767344680e-04	2.918540820e-12
-8.700000000e-03	2.678587704e-01	-5.740211194e-04	6.796818945e-12
-8.800000000e-03	2.678587751e-01	-5.713077706e-04	1.957863982e-11
-8.900000000e-03	2.678587796e-01	-5.685944217e-04	9.707337675e-12
-9.000000000e-03	2.678587841e-01	-5.658810727e-04	1.217411938e-11
-9.100000000e-03	2.678587884e-01	-5.631677235e-04	2.607330758e-11
-9.200000000e-03	2.678587927e-01	-5.604543743e-04	4.747277518e-12
-9.300000000e-03	2.678587970e-01	-5.577410249e-04	6.553144148e-12
-9.400000000e-03	2.678588011e-01	-5.550276754e-04	8.245744141e-12
-9.500000000e-03	2.678588051e-01	-5.523143258e-04	6.902043443e-12
-9.600000000e-03	2.678588091e-01	-5.496009761e-04	8.444017445e-12
-9.700000000e-03	2.678588130e-01	-5.468876263e-04	8.423482751e-12
-9.800000000e-03	2.678588168e-01	-5.441742764e-04	1.401338062e-11
-9.900000000e-03	2.678588205e-01	-5.414609265e-04	7.974000426e-12
-1.000000000e-02	2.678588241e-01	-5.387475764e-04	5.361029402e-12
-1.010000000e-02	2.678588277e-01	-5.360342263e-04	3.057720416e-11
-1.020000000e-02	2.678588312e-01	-5.333208761e-04	3.076011642e-12
-1.030000000e-02	2.678588346e-01	-5.306075258e-04	1.149081254e-11
-1.040000000e-02	2.678588379e-01	-5.278941754e-04	4.048539408e-11
-1.050000000e-02	2.678588411e-01	-5.251808250e-04	3.887116864e-12
-1.060000000e-02	2.678588442e-01	-5.224674746e-04	1.053137022e-10
-1.070000000e-02	2.678588473e-01	-5.197541240e-04	1.037103053e-11
-1.080000000e-02	2.678588503e-01	-5.170407735e-04	4.340401606e-11
-1.090000000e-02	2.678588532e-01	-5.143274228e-04	1.077911456e-11
-1.100000000e-02	2.678588560e-01	-5.116140722e-04	8.197600619e-12
-1.110000000e-02	2.678588587e-01	-5.089007215e-04	1.928286690e-11
-1.120000000e-02	2.678588613e-01	-5.061873707e-04	2.086261716e-11
-1.130000000e-02	2.678588639e-01	-5.034740200e-04	7.406487375e-12
-1.140000000e-02	2.678588664e-01	-5.007606692e-04	7.442976398e-12
-1.150000000e-02	2.678588688e-01	-4.980473184e-04	1.288059711e-11
-1.160000000e-02	2.678588711e-01	-4.953339675e-04	9.410260944e-12
-1.170000000e-02	2.678588733e-01	-4.926206167e-04	1.155494279e-11
-1.180000000e-02	2.678588755e-01	-4.899072658e-04	1.747601893e-11
-1.190000000e-02	2.678588776e-01	-4.871939150e-04	6.402431538e-12
-1.200000000e-02	2.678588795e-01	-4.844805641e-04	1.537132806e-11
-1.210000000e-02	2.678588814e-01	-4.817672133e-04	1.097593494e-11
-1.220000000e-02	2.678588833e-01	-4.790538624e-04	4.212240771e-11
-1.230000000e-02	2.678588850e-01	-4.763405116e-04	4.160407699e-12
-1.240000000e-02	2.678588867e-01	-4.736271608e-04	6.816580786e-12
-1.250000000e-02	2.678588882e-01	-4.709138100e-04	2.283578308e-11
-1.260000000e-02	2.678588897e-01	-4.682004592e-04	1.516398818e-11
-1.270000000e-02	2.678588911e-01	-4.654871084e-04	1.281397757e-11
-1.280000000e-02	2.678588925e-01	-4.627737577e-04	2.816389100e-12
-1.290000000e-02	2.678588937e-01	-4.600604070e-04	6.776176799e-12
-1.300000000e-02	2.678588949e-01	-4.573470564e-04	1.100701962e-11
-1.310000000e-02	2.678588960e-01	-4.546337058e-04	1.191906140e-11
-1.320000000e-02	2.678588970e-01	-4.519203553e-04	7.705592017e-12
-1.330000000e-02	2.678588979e-01	-4.492070048e-04	1.594093255e-11
-1.340000000e-02	2.678588987e-01	-4.464936544e-04	1.436406338e-11
-1.350000000e-02	2.678588995e-01	-4.437803040e-04	1.758044270e-11
-1.360000000e-02	2.678589001e-01	-4.410669537e-04	1.947222110e-11
-1.370000000e-02	2.678589007e-01	-4.383536035e-04	2.564311251e-11
-1.380000000e-02	2.678589012e-01	-4.356402533e-04	1.051522569e-11
-1.390000000e-02	2.678589016e-01	-4.329269032e-04	1.260431061e-11
-1.400000000e-02	2.678589020e-01	-4.302135533e-04	6.064192448e-12
-1.410000000e-02	2.678589022e-01	-4.275002033e-04	2.955128998e-12
-1.420000000e-02	2.678589024e-01	-4.247868535e-04	6.028883019e-12
-1.430000000e-02	2.678589025e-01	-4.220735038e-04	3.637227689e-12
-1.440000000e-02	2.678589025e-01	-4.193601542e-04	1.066017718e-11
-1.450000000e-02	2.678589024e-01	-4.166468047e-04	9.616403090e-12
-1.460000000e-02	2.678589023e-01	-4.139334553e-04	1.509571052e-11
-1.470000000e-02	2.678589020e-01	-4.112201060e-04	3.545606517e-11
-1.480000000e-02	2.678589017e-01	-4.085067568e-04	1.001218228e-11
-1.490000000e-02	2.678589013e-01	-4.057934077e-04	1.380937615e-11
-1.500000000e-02	2.678589008e-01	-4.030800588e-04	2.942861418e-11
-1.510000000e-02	2.678589003e-01	-4.003667100e-04	1.734923137e-11
-1.520000000e-02	2.678588996e-01	-3.976533613e-04	5.238509057e-12
-1.530000000e-02	2.678588989e-01	-3.949400128e-04	5.963799242e-11
-1.540000000e-02	2.678588981e-01	-3.922266644e-04	8.897540059e-12
-1.550000000e-02	2.678588972e-01	-3.895133161e-04	5.824833779e-11
-1.560000000e-02	2.678588962e-01	-3.867999680e-04	1.848969725e-11
-1.570000000e-02	2.678588951e-01	-3.840866201e-04	2.205926438e-11
-1.580000000e-02	2.678588940e-01	-3.813732723e-04	1.674915606e-12
-1.590000000e-02	2.678588928e-01	-3.786599247e-04	2.344680296e-11
-1.600000000e-02	2.678588914e-01	-3.759465772e-04	1.071220092e-11
-1.610000000e-02	2.678588901e-01	-3.732332299e-04	1.196403694e-11
-1.620000000e-02	2.678588886e-01	-3.705198828e-04	1.082932881e-11
-1.630000000e-02	2.678588870e-01	-3.678065359e-04	2.187718206e-11
-1.640000000e-02	2.678588854e-01	-3.650931891e-04	1.483093561e-11
-1.650000000e-02	2.678588837e-01	-3.623798426e-04	6.918898555e-12
-1.660000000e-02	2.678588819e-01	-3.596664962e-04	1.192634324e-11
-1.670000000e-02	2.678588800e-01	-3.569531500e-04	1.841641091e-11
-1.680000000e-02	2.678588780e-01	-3.542398040e-04	6.119493975e-12
-1.690000000e-02	2.678588760e-01	-3.515264582e-04	6.038506925e-12
-1.700000000e-02	2.678588738e-01	-3.488131127e-04	7.174845791e-12
-1.710000000e-02	2.678588716e-01	-3.460997673e-04	2.989703739e-12
-1.720000000e-02	2.678588693e-01	-3.433864222e-04	1.932501873e-11
-1.730000000e-02	2.678588669e-01	-3.406730773e-04	1.886746342e-11
-1.740000000e-02	2.678588645e-01	-3.379597326e-04	9.837030814e-12
-1.750000000e-02	2.678588619e-01	-3.352463881e-04	1.236678020e-11
-1.760000000e-02	2.678588593e-01	-3.325330439e-04	1.334646767e-11
-1.770000000e-02	2.678588566e-01	-3.298196999e-04	8.693332394e-12
-1.780000000e-02	2.678588538e-01	-3.271063561e-04	1.594335749e-11
-1.790000000e-02	2.678588509e-01	-3.243930126e-04	1.424461894e-11
-1.800000000e-02	2.678588479e-01	-3.216796694e-04	1.143594879e-11
-1.810000000e-02	2.678588449e-01	-3.189663264e-04	2.605303225e-11
-1.820000000e-02	2.678588418e-01	-3.162529836e-04	1.600229611e-11
-1.830000000e-02	2.678588386e-01	-3.135396411e-04	1.978883165e-11
-1.840000000e-02	2.678588353e-01	-3.108262989e-04	8.912037214e-12
-1.850000000e-02	2.678588319e-01	-3.081129570e-04	8.788019948e-12
-1.860000000e-02	2.678588285e-01	-3.053996153e-04	1.515483328e-11
-1.870000000e-02	2.678588249e-01	-3.026862739e-04	1.377852393e-11
-1.880000000e-02	2.678588213e-01	-2.999729328e-04	3.036052994e-11
-1.890000000e-02	2.678588176e-01	-2.972595920e-04	1.976215337e-11
-1.900000000e-02	2.678588138e-01	-2.945462514e-04	1.515105147e-11
-1.910000000e-02	2.678588100e-01	-2.918329112e-04	2.429126775e-11
-1.920000000e-02	2.678588060e-01	-2.891195713e-04	2.059819315e-11
-1.930000000e-02	2.678588020e-01	-2.864062316e-04	9.607524758e-12
-1.940000000e-02	2.678587979e-01	-2.836928923e-04	7.519398120e-12
-1.950000000e-02	2.678587937e-01	-2.809795533e-04	2.062295237e-11
-1.960000000e-02	2.678587894e-01	-2.782662146e-04	7.193883806e-12
-1.970000000e-02	2.678587850e-01	-2.755528762e-04	3.159528459e-11
-1.980000000e-02	2.678587806e-01	-2.728395382e-04	2.075894288e-11
-1.990000000e-02	2.678587761e-01	-2.701262005e-04	1.374626377e-10
-2.000000000e-02	2.678587715e-01	-2.674128631e-04	1.165622213e-11
-2.010000000e-02	2.678587668e-01	-2.646995260e-04	3.077806743e-12
-2.020000000e-02	2.678587620e-01	-2.619861893e-04	3.248735025e-11
-2.030000000e-02	2.678587572e-01	-2.592728530e-04	6.024767727e-12
-2.040000000e-02	2.678587522e-01	-2.565595169e-04	1.984006330e-11
-2.050000000e-02	2.678587472e-01	-2.538461813e-04	3.097849568e-11
-2.060000000e-02	2.678587421e-01	-2.511328460e-04	2.007551538e-11
-2.070000000e-02	2.678587369e-01	-2.484195110e-04	6.719035854e-12
-2.080000000e-02	2.678587316e-01	-2.457061765e-04	7.119883529e-12
-2.090000000e-02	2.678587263e-01	-2.429928423e-04	8.206205551e-12
-2.100000000e-02	2.678587209e-01	-2.402795084e-04	3.799779471e-12
-2.110000000e-02	2.678587154e-01	-2.375661750e-04	5.418496385e-12
-2.120000000e-02	2.678587098e-01	-2.348528419e-04	6.561602066e-12
-2.130000000e-02	2.678587041e-01	-2.321395093e-04	4.476443018e-11
-2.140000000e-02	2.678586983e-01	-2.294261770e-04	1.161150774e-11
-2.150000000e-02	2.678586925e-01	-2.267128451e-04	9.457786402e-12
-2.160000000e-02	2.678586866e-01	-2.239995136e-04	1.062970581e-11
-2.170000000e-02	2.678586805e-01	-2.212861825e-04	2.351701586e-10
-2.180000000e-02	2.678586745e-01	-2.185728518e-04	1.359326298e-11
-2.190000000e-02	2.678586683e-01	-2.158595216e-04	2.792853643e-11
-2.200000000e-02	2.678586620e-01	-2.131461917e-04	3.871258355e-11
-2.210000000e-02	2.678586557e-01	-2.104328623e-04	1.407232887e-11
-2.220000000e-02	2.678586493e-01	-2.077195333e-04	1.286733722e-11
-2.230000000e-02	2.678586428e-01	-2.050062047e-04	8.718472176e-12
-2.240000000e-02	2.678586362e-01	-2.022928766e-04	1.454980615e-11
-2.250000000e-02	2.678586295e-01	-1.995795489e-04	6.221117154e-11
-2.260000000e-02	2.678586228e-01	-1.968662216e-04	1.547008212e-11
-2.270000000e-02	2.678586159e-01	-1.941528948e-04	1.391126330e-11
-2.280000000e-02	2.678586090e-01	-1.914395684e-04	3.639046375e-11
-2.290000000e-02	2.678586020e-01	-1.887262425e-04	7.028264489e-12
-2.300000000e-02	2.678585949e-01	-1.860129171e-04	1.114063603e-11
-2.310000000e-02	2.678585878e-01	-1.832995921e-04	5.881412180e-12
-2.320000000e-02	2.678585805e-01	-1.805862676e-04	1.269033934e-11
-2.330000000e-02	2.678585732e-01	-1.778729435e-04	1.376970435e-11
-2.340000000e-02	2.678585658e-01	-1.751596199e-04	1.489733291e-11
-2.350000000e-02	2.678585583e-01	-1.724462968e-04	1.804697902e-11
-2.360000000e-02	2.678585507e-01	-1.697329742e-04	6.761751081e-12
-2.370000000e-02	2.678585431e-01	-1.670196521e-04	1.083727789e-11
-2.380000000e-02	2.678585353e-01	-1.643063305e-04	4.186901798e-12
-2.390000000e-02	2.678585275e-01	-1.615930093e-04	2.420203230e-11
-2.400000000e-02	2.678585196e-01	-1.588796887e-04	1.446939575e-11
-2.410000000e-02	2.678585116e-01	-1.561663685e-04	8.419576235e-12
-2.420000000e-02	2.678585036e-01	-1.534530489e-04	1.241992689e-11
-2.430000000e-02	2.678584954e-01	-1.507397298e-04	9.269337234e-12
-2.440000000e-02	2.678584872e-01	-1.480264112e-04	5.394816135e-11
-2.450000000e-02	2.678584789e-01	-1.453130931e-04	6.465655832e-12
-2.460000000e-02	2.678584705e-01	-1.425997756e-04	9.698799090e-12
-2.470000000e-02	2.678584620e-01	-1.398864585e-04	6.932772610e-12
-2.480000000e-02	2.678584534e-01	-1.371731421e-04	1.294026832e-11
-2.490000000e-02	2.678584448e-01	-1.344598261e-04	4.616375132e-11
-2.500000000e-02	2.678584360e-01	-1.317465107e-04	7.735715369e-12
-2.510000000e-02	2.678584272e-01	-1.290331958e-04	3.085240022e-11
-2.520000000e-02	2.678584183e-01	-1.263198815e-04	4.029681761e-12
-2.530000000e-02	2.678584094e-01	-1.236065678e-04	3.139073488e-11
-2.540000000e-02	2.678584003e-01	-1.208932546e-04	8.577681310e-12
-2.550000000e-02	2.678583912e-01	-1.181799419e-04	4.249435343e-12
-2.560000000e-02	2.678583819e-01	-1.154666298e-04	1.505569621e-11
-2.570000000e-02	2.678583726e-01	-1.127533183e-04	1.928312454e-11
-2.580000000e-02	2.678583633e-01	-1.100400074e-04	1.902954814e-11
-2.590000000e-02	2.678583538e-01	-1.073266971e-04	1.074897889e-12
-2.600000000e-02	2.678583442e-01	-1.046133873e-04	1.809471876e-11
-2.610000000e-02	2.678583346e-01	-1.019000781e-04	2.779943494e-10
-2.620000000e-02	2.678583249e-01	-9.918676955e-05	7.360475860e-12
-2.630000000e-02	2.678583151e-01	-9.647346156e-05	2.521951901e-11
-2.640000000e-02	2.678583052e-01	-9.376015417e-05	1.531583218e-11
-2.650000000e-02	2.678582952e-01	-9.104684739e-05	1.036709691e-11
-2.660000000e-02	2.678582852e-01	-8.833354121e-05	9.159797345e-12
-2.670000000e-02	2.678582751e-01	-8.562023565e-05	2.441314119e-11
-2.680000000e-02	2.678582648e-01	-8.290693070e-05	8.361023752e-12
-2.690000000e-02	2.678582546e-01	-8.019362638e-05	2.291624925e-11
-2.700000000e-02	2.678582442e-01	-7.748032268e-05	2.242086947e-12
-2.710000000e-02	2.678582337e-01	-7.476701961e-05	8.910326053e-12
-2.720000000e-02	2.678582232e-01	-7.205371717e-05	8.313579916e-11
-2.730000000e-02	2.678582126e-01	-6.934041537e-05	3.695680957e-12
-2.740000000e-02	2.678582019e-01	-6.662711422e-05	1.306059289e-11
-2.750000000e-02	2.678581911e-01	-6.391381370e-05	5.753131472e-12
-2.760000000e-02	2.678581802e-01	-6.120051384e-05	1.420810310e-11
-2.770000000e-02	2.678581692e-01	-5.848721464e-05	5.926952481e-12
-2.780000000e-02	2.678581582e-01	-5.577391609e-05	1.320844799e-10
-2.790000000e-02	2.678581471e-01	-5.306061820e-05	1.211857395e-11
-2.800000000e-02	2.678581359e-01	-5.034732098e-05	2.858873992e-11
-2.810000000e-02	2.678581246e-01	-4.763402444e-05	1.256896698e-11
-2.820000000e-02	2.678581132e-01	-4.492072856e-05	4.779075001e-11
-2.830000000e-02	2.678581018e-01	-4.220743337e-05	1.729502139e-11
-2.840000000e-02	2.678580903e-01	-3.949413886e-05	2.177710466e-11
-2.850000000e-02	2.678580786e-01	-3.678084504e-05	1.139779642e-11
-2.860000000e-02	2.678580669e-01	-3.406755191e-05	1.723022896e-11
-2.870000000e-02	2.678580552e-01	-3.135425948e-05	3.324747861e-11
-2.880000000e-02	2.678580433e-01	-2.864096774e-05	1.149274455e-11
-2.890000000e-02	2.678580314e-01	-2.592767671e-05	2.380236280e-11
-2.900000000e-02	2.678580193e-01	-2.321438639e-05	1.098951259e-11
-2.910000000e-02	2.678580072e-01	-2.050109678e-05	9.870060288e-12
-2.920000000e-02	2.678579950e-01	-1.778780789e-05	1.587716534e-11
-2.930000000e-02	2.678579828e-01	-1.507451972e-05	1.280315459e-11
-2.940000000e-02	2.678579704e-01	-1.236123228e-05	9.451768659e-12
-2.950000000e-02	2.678579580e-01	-9.647945564e-06	4.051898231e-12
-2.960000000e-02	2.678579455e-01	-6.934659582e-06	8.662504673e-12
-2.970000000e-02	2.678579329e-01	-4.221374338e-06	1.863209441e-11
-2.980000000e-02	2.678579202e-01	-1.508089837e-06	4.965569633e-12
-2.990000000e-02	2.678579074e-01	1.205193919e-06	7.427409989e-12
-3.000000000e-02	2.678578946e-01	3.918476925e-06	1.401396165e-11
