# Im(epsi1)     Re(omega/c)      Im(omega/c)      Eq(det).Opt det CON kz, R=0.5 \mum, mu_c=0.3, Re(epsi1)=3.90solve_det_conkz_vs_kz.py
0.000000000e+00	2.678514991e-01	-8.100528827e-04	6.945165475e-12
-1.000000000e-04	2.678515109e-01	-8.073396132e-04	5.355042020e-11
-2.000000000e-04	2.678515226e-01	-8.046263433e-04	1.282399708e-11
-3.000000000e-04	2.678515343e-01	-8.019130729e-04	4.638719121e-12
-4.000000000e-04	2.678515458e-01	-7.991998020e-04	1.038290664e-11
-5.000000000e-04	2.678515573e-01	-7.964865306e-04	3.895237425e-12
-6.000000000e-04	2.678515687e-01	-7.937732587e-04	6.048087389e-12
-7.000000000e-04	2.678515800e-01	-7.910599864e-04	1.278189849e-11
-8.000000000e-04	2.678515912e-01	-7.883467136e-04	3.412915054e-11
-9.000000000e-04	2.678516023e-01	-7.856334403e-04	1.155708103e-11
-1.000000000e-03	2.678516134e-01	-7.829201666e-04	1.440945130e-11
-1.100000000e-03	2.678516244e-01	-7.802068924e-04	3.176211123e-12
-1.200000000e-03	2.678516352e-01	-7.774936178e-04	1.313567106e-11
-1.300000000e-03	2.678516461e-01	-7.747803427e-04	2.120906790e-11
-1.400000000e-03	2.678516568e-01	-7.720670672e-04	6.571686447e-12
-1.500000000e-03	2.678516674e-01	-7.693537912e-04	8.498590256e-12
-1.600000000e-03	2.678516780e-01	-7.666405148e-04	5.370722712e-11
-1.700000000e-03	2.678516885e-01	-7.639272380e-04	2.225584079e-11
-1.800000000e-03	2.678516988e-01	-7.612139607e-04	1.584552570e-11
-1.900000000e-03	2.678517092e-01	-7.585006831e-04	1.066362349e-11
-2.000000000e-03	2.678517194e-01	-7.557874050e-04	9.042047624e-12
-2.100000000e-03	2.678517295e-01	-7.530741265e-04	1.131533842e-11
-2.200000000e-03	2.678517396e-01	-7.503608476e-04	6.298103409e-12
-2.300000000e-03	2.678517496e-01	-7.476475683e-04	1.465229090e-11
-2.400000000e-03	2.678517595e-01	-7.449342885e-04	1.236640269e-11
-2.500000000e-03	2.678517693e-01	-7.422210084e-04	2.189523950e-11
-2.600000000e-03	2.678517790e-01	-7.395077279e-04	1.058870965e-11
-2.700000000e-03	2.678517887e-01	-7.367944470e-04	1.104902031e-11
-2.800000000e-03	2.678517983e-01	-7.340811657e-04	3.406595081e-11
-2.900000000e-03	2.678518077e-01	-7.313678841e-04	1.594864188e-11
-3.000000000e-03	2.678518171e-01	-7.286546020e-04	2.031028792e-11
-3.100000000e-03	2.678518265e-01	-7.259413196e-04	1.068009015e-11
-3.200000000e-03	2.678518357e-01	-7.232280369e-04	2.303003366e-11
-3.300000000e-03	2.678518449e-01	-7.205147537e-04	1.543213876e-11
-3.400000000e-03	2.678518539e-01	-7.178014702e-04	1.082796506e-11
-3.500000000e-03	2.678518629e-01	-7.150881864e-04	4.504258003e-11
-3.600000000e-03	2.678518718e-01	-7.123749022e-04	6.842186087e-12
-3.700000000e-03	2.678518807e-01	-7.096616176e-04	1.865660782e-11
-3.800000000e-03	2.678518894e-01	-7.069483327e-04	1.393154689e-11
-3.900000000e-03	2.678518981e-01	-7.042350475e-04	2.314157983e-11
-4.000000000e-03	2.678519067e-01	-7.015217619e-04	1.645686612e-11
-4.100000000e-03	2.678519152e-01	-6.988084760e-04	1.641006694e-11
-4.200000000e-03	2.678519236e-01	-6.960951898e-04	4.074576915e-11
-4.300000000e-03	2.678519319e-01	-6.933819032e-04	1.825916379e-11
-4.400000000e-03	2.678519402e-01	-6.906686164e-04	1.528369738e-11
-4.500000000e-03	2.678519483e-01	-6.879553292e-04	3.545263400e-11
-4.600000000e-03	2.678519564e-01	-6.852420417e-04	1.909855184e-11
-4.700000000e-03	2.678519644e-01	-6.825287539e-04	1.499891750e-11
-4.800000000e-03	2.678519723e-01	-6.798154658e-04	4.891231615e-11
-4.900000000e-03	2.678519802e-01	-6.771021774e-04	9.750468435e-12
-5.000000000e-03	2.678519879e-01	-6.743888888e-04	9.065380896e-12
-5.100000000e-03	2.678519956e-01	-6.716755998e-04	1.034932346e-11
-5.200000000e-03	2.678520032e-01	-6.689623105e-04	3.287288579e-11
-5.300000000e-03	2.678520107e-01	-6.662490210e-04	1.173314535e-11
-5.400000000e-03	2.678520181e-01	-6.635357312e-04	9.964357147e-12
-5.500000000e-03	2.678520255e-01	-6.608224411e-04	8.735213381e-12
-5.600000000e-03	2.678520327e-01	-6.581091508e-04	9.301218901e-12
-5.700000000e-03	2.678520399e-01	-6.553958602e-04	1.241658988e-11
-5.800000000e-03	2.678520470e-01	-6.526825693e-04	1.448151404e-11
-5.900000000e-03	2.678520540e-01	-6.499692782e-04	2.882331139e-11
-6.000000000e-03	2.678520610e-01	-6.472559868e-04	8.333218626e-12
-6.100000000e-03	2.678520678e-01	-6.445426952e-04	1.881609673e-11
-6.200000000e-03	2.678520746e-01	-6.418294033e-04	6.881113545e-11
-6.300000000e-03	2.678520813e-01	-6.391161112e-04	1.628866344e-11
-6.400000000e-03	2.678520879e-01	-6.364028189e-04	5.520787638e-11
-6.500000000e-03	2.678520944e-01	-6.336895263e-04	3.251242776e-11
-6.600000000e-03	2.678521008e-01	-6.309762335e-04	1.010988507e-11
-6.700000000e-03	2.678521072e-01	-6.282629405e-04	1.037214567e-11
-6.800000000e-03	2.678521135e-01	-6.255496472e-04	8.522848478e-12
-6.900000000e-03	2.678521196e-01	-6.228363538e-04	4.475569137e-12
-7.000000000e-03	2.678521258e-01	-6.201230601e-04	1.301936440e-11
-7.100000000e-03	2.678521318e-01	-6.174097663e-04	2.079423159e-11
-7.200000000e-03	2.678521377e-01	-6.146964722e-04	9.370937573e-12
-7.300000000e-03	2.678521436e-01	-6.119831780e-04	3.792091029e-10
-7.400000000e-03	2.678521494e-01	-6.092698835e-04	6.885960652e-12
-7.500000000e-03	2.678521551e-01	-6.065565889e-04	3.319108098e-11
-7.600000000e-03	2.678521607e-01	-6.038432941e-04	7.318042513e-12
-7.700000000e-03	2.678521662e-01	-6.011299991e-04	1.280802209e-11
-7.800000000e-03	2.678521717e-01	-5.984167039e-04	8.973023697e-12
-7.900000000e-03	2.678521770e-01	-5.957034085e-04	1.266188287e-11
-8.000000000e-03	2.678521823e-01	-5.929901130e-04	2.566317569e-11
-8.100000000e-03	2.678521875e-01	-5.902768173e-04	5.288931102e-12
-8.200000000e-03	2.678521926e-01	-5.875635215e-04	1.760230547e-11
-8.300000000e-03	2.678521977e-01	-5.848502255e-04	8.517278492e-12
-8.400000000e-03	2.678522026e-01	-5.821369293e-04	1.341302353e-11
-8.500000000e-03	2.678522075e-01	-5.794236331e-04	1.648822821e-11
-8.600000000e-03	2.678522123e-01	-5.767103366e-04	1.983924210e-11
-8.700000000e-03	2.678522170e-01	-5.739970401e-04	1.098081011e-11
-8.800000000e-03	2.678522216e-01	-5.712837433e-04	1.501669977e-11
-8.900000000e-03	2.678522261e-01	-5.685704465e-04	1.619591336e-11
-9.000000000e-03	2.678522306e-01	-5.658571495e-04	2.205571457e-11
-9.100000000e-03	2.678522350e-01	-5.631438525e-04	9.356256032e-12
-9.200000000e-03	2.678522393e-01	-5.604305553e-04	6.192494529e-12
-9.300000000e-03	2.678522435e-01	-5.577172579e-04	1.223163847e-11
-9.400000000e-03	2.678522476e-01	-5.550039605e-04	1.969579670e-11
-9.500000000e-03	2.678522517e-01	-5.522906630e-04	1.076890904e-11
-9.600000000e-03	2.678522556e-01	-5.495773654e-04	5.056188241e-11
-9.700000000e-03	2.678522595e-01	-5.468640676e-04	9.605236039e-12
-9.800000000e-03	2.678522633e-01	-5.441507698e-04	6.215811508e-12
-9.900000000e-03	2.678522670e-01	-5.414374719e-04	8.233542026e-12
-1.000000000e-02	2.678522707e-01	-5.387241739e-04	2.188716318e-11
-1.010000000e-02	2.678522742e-01	-5.360108759e-04	1.704730549e-11
-1.020000000e-02	2.678522777e-01	-5.332975777e-04	6.457314992e-12
-1.030000000e-02	2.678522811e-01	-5.305842795e-04	7.204381345e-12
-1.040000000e-02	2.678522844e-01	-5.278709812e-04	5.889526467e-12
-1.050000000e-02	2.678522876e-01	-5.251576829e-04	1.023510599e-11
-1.060000000e-02	2.678522908e-01	-5.224443845e-04	1.237799821e-11
-1.070000000e-02	2.678522938e-01	-5.197310860e-04	9.125258264e-11
-1.080000000e-02	2.678522968e-01	-5.170177875e-04	2.146729509e-11
-1.090000000e-02	2.678522997e-01	-5.143044889e-04	3.989167620e-12
-1.100000000e-02	2.678523025e-01	-5.115911903e-04	1.142069181e-11
-1.110000000e-02	2.678523052e-01	-5.088778917e-04	2.953105937e-11
-1.120000000e-02	2.678523079e-01	-5.061645930e-04	4.688111611e-12
-1.130000000e-02	2.678523104e-01	-5.034512943e-04	5.757048892e-11
-1.140000000e-02	2.678523129e-01	-5.007379956e-04	1.399023676e-11
-1.150000000e-02	2.678523153e-01	-4.980246969e-04	1.779431510e-11
-1.160000000e-02	2.678523176e-01	-4.953113981e-04	5.981801128e-12
-1.170000000e-02	2.678523199e-01	-4.925980993e-04	3.081681204e-11
-1.180000000e-02	2.678523220e-01	-4.898848005e-04	3.380458381e-11
-1.190000000e-02	2.678523241e-01	-4.871715017e-04	1.510227119e-11
-1.200000000e-02	2.678523261e-01	-4.844582029e-04	7.022315396e-12
-1.210000000e-02	2.678523280e-01	-4.817449042e-04	2.162222544e-11
-1.220000000e-02	2.678523298e-01	-4.790316054e-04	1.803846692e-11
-1.230000000e-02	2.678523315e-01	-4.763183066e-04	7.206342208e-12
-1.240000000e-02	2.678523332e-01	-4.736050078e-04	8.485881733e-12
-1.250000000e-02	2.678523348e-01	-4.708917091e-04	2.112897050e-11
-1.260000000e-02	2.678523363e-01	-4.681784104e-04	1.422975443e-11
-1.270000000e-02	2.678523377e-01	-4.654651117e-04	8.600979194e-12
-1.280000000e-02	2.678523390e-01	-4.627518131e-04	1.259614345e-11
-1.290000000e-02	2.678523402e-01	-4.600385145e-04	1.312046782e-11
-1.300000000e-02	2.678523414e-01	-4.573252159e-04	5.580318832e-12
-1.310000000e-02	2.678523425e-01	-4.546119174e-04	1.064970864e-11
-1.320000000e-02	2.678523435e-01	-4.518986189e-04	8.108068081e-12
-1.330000000e-02	2.678523444e-01	-4.491853205e-04	8.177735767e-12
-1.340000000e-02	2.678523452e-01	-4.464720221e-04	8.739049553e-12
-1.350000000e-02	2.678523460e-01	-4.437587238e-04	1.483335222e-11
-1.360000000e-02	2.678523466e-01	-4.410454256e-04	9.657452619e-12
-1.370000000e-02	2.678523472e-01	-4.383321274e-04	8.042923531e-12
-1.380000000e-02	2.678523477e-01	-4.356188293e-04	1.264923761e-11
-1.390000000e-02	2.678523482e-01	-4.329055313e-04	1.539216389e-11
-1.400000000e-02	2.678523485e-01	-4.301922334e-04	1.371371287e-11
-1.410000000e-02	2.678523488e-01	-4.274789356e-04	1.107967630e-11
-1.420000000e-02	2.678523489e-01	-4.247656378e-04	1.059110894e-11
-1.430000000e-02	2.678523490e-01	-4.220523402e-04	1.715601979e-11
-1.440000000e-02	2.678523490e-01	-4.193390426e-04	1.619848352e-11
-1.450000000e-02	2.678523490e-01	-4.166257451e-04	3.482754795e-11
-1.460000000e-02	2.678523488e-01	-4.139124478e-04	4.020277587e-11
-1.470000000e-02	2.678523486e-01	-4.111991506e-04	3.354041231e-11
-1.480000000e-02	2.678523482e-01	-4.084858535e-04	1.139804384e-11
-1.490000000e-02	2.678523478e-01	-4.057725565e-04	2.605553462e-11
-1.500000000e-02	2.678523473e-01	-4.030592596e-04	3.984716800e-11
-1.510000000e-02	2.678523468e-01	-4.003459629e-04	2.654579458e-10
-1.520000000e-02	2.678523461e-01	-3.976326663e-04	3.165474631e-11
-1.530000000e-02	2.678523454e-01	-3.949193698e-04	1.106695515e-10
-1.540000000e-02	2.678523446e-01	-3.922060735e-04	5.973624174e-12
-1.550000000e-02	2.678523437e-01	-3.894927773e-04	2.404317259e-10
-1.560000000e-02	2.678523427e-01	-3.867794812e-04	1.334981612e-11
-1.570000000e-02	2.678523416e-01	-3.840661854e-04	8.447543616e-12
-1.580000000e-02	2.678523405e-01	-3.813528896e-04	1.751335893e-11
-1.590000000e-02	2.678523393e-01	-3.786395941e-04	2.714858352e-11
-1.600000000e-02	2.678523380e-01	-3.759262987e-04	7.742785544e-12
-1.610000000e-02	2.678523366e-01	-3.732130035e-04	2.555212907e-11
-1.620000000e-02	2.678523351e-01	-3.704997084e-04	1.230394656e-11
-1.630000000e-02	2.678523335e-01	-3.677864135e-04	1.073507759e-11
-1.640000000e-02	2.678523319e-01	-3.650731189e-04	1.455426150e-11
-1.650000000e-02	2.678523302e-01	-3.623598244e-04	1.963533923e-11
-1.660000000e-02	2.678523284e-01	-3.596465300e-04	1.557788291e-11
-1.670000000e-02	2.678523265e-01	-3.569332359e-04	1.135158352e-11
-1.680000000e-02	2.678523245e-01	-3.542199420e-04	3.660711354e-11
-1.690000000e-02	2.678523225e-01	-3.515066483e-04	3.102102908e-11
-1.700000000e-02	2.678523203e-01	-3.487933548e-04	7.265138605e-12
-1.710000000e-02	2.678523181e-01	-3.460800615e-04	6.201891042e-12
-1.720000000e-02	2.678523158e-01	-3.433667684e-04	1.892001931e-11
-1.730000000e-02	2.678523134e-01	-3.406534756e-04	1.046203707e-11
-1.740000000e-02	2.678523110e-01	-3.379401830e-04	1.409208452e-10
-1.750000000e-02	2.678523084e-01	-3.352268906e-04	1.049895031e-11
-1.760000000e-02	2.678523058e-01	-3.325135984e-04	1.179424772e-11
-1.770000000e-02	2.678523031e-01	-3.298003065e-04	3.578591655e-11
-1.780000000e-02	2.678523003e-01	-3.270870148e-04	1.321524880e-11
-1.790000000e-02	2.678522974e-01	-3.243737233e-04	1.227464709e-12
-1.800000000e-02	2.678522944e-01	-3.216604322e-04	2.261967265e-11
-1.810000000e-02	2.678522914e-01	-3.189471412e-04	2.594713866e-11
-1.820000000e-02	2.678522883e-01	-3.162338505e-04	2.077306119e-11
-1.830000000e-02	2.678522851e-01	-3.135205601e-04	9.150280075e-12
-1.840000000e-02	2.678522818e-01	-3.108072700e-04	8.048729782e-12
-1.850000000e-02	2.678522784e-01	-3.080939801e-04	2.685518199e-11
-1.860000000e-02	2.678522750e-01	-3.053806905e-04	9.532742752e-12
-1.870000000e-02	2.678522714e-01	-3.026674012e-04	1.652653470e-11
-1.880000000e-02	2.678522678e-01	-2.999541121e-04	8.660043206e-12
-1.890000000e-02	2.678522641e-01	-2.972408234e-04	1.156691345e-11
-1.900000000e-02	2.678522603e-01	-2.945275349e-04	1.932740035e-11
-1.910000000e-02	2.678522565e-01	-2.918142467e-04	6.760248830e-12
-1.920000000e-02	2.678522525e-01	-2.891009589e-04	9.530054308e-12
-1.930000000e-02	2.678522485e-01	-2.863876713e-04	9.037731441e-11
-1.940000000e-02	2.678522444e-01	-2.836743840e-04	1.273628011e-11
-1.950000000e-02	2.678522402e-01	-2.809610971e-04	1.050421716e-11
-1.960000000e-02	2.678522359e-01	-2.782478105e-04	1.212597409e-11
-1.970000000e-02	2.678522315e-01	-2.755345242e-04	7.964986488e-12
-1.980000000e-02	2.678522271e-01	-2.728212382e-04	1.086060744e-11
-1.990000000e-02	2.678522226e-01	-2.701079525e-04	7.249970910e-12
-2.000000000e-02	2.678522180e-01	-2.673946672e-04	9.738211832e-12
-2.010000000e-02	2.678522133e-01	-2.646813822e-04	1.662153239e-11
-2.020000000e-02	2.678522085e-01	-2.619680976e-04	1.369967452e-11
-2.030000000e-02	2.678522036e-01	-2.592548133e-04	1.389916637e-11
-2.040000000e-02	2.678521987e-01	-2.565415293e-04	1.285097156e-11
-2.050000000e-02	2.678521937e-01	-2.538282457e-04	5.815620038e-12
-2.060000000e-02	2.678521886e-01	-2.511149625e-04	8.847538324e-12
-2.070000000e-02	2.678521834e-01	-2.484016796e-04	1.093799182e-11
-2.080000000e-02	2.678521781e-01	-2.456883971e-04	1.534146456e-11
-2.090000000e-02	2.678521728e-01	-2.429751150e-04	9.961735676e-12
-2.100000000e-02	2.678521674e-01	-2.402618332e-04	5.288187949e-12
-2.110000000e-02	2.678521618e-01	-2.375485519e-04	6.306257154e-12
-2.120000000e-02	2.678521563e-01	-2.348352709e-04	6.408350918e-12
-2.130000000e-02	2.678521506e-01	-2.321219903e-04	1.737255172e-11
-2.140000000e-02	2.678521448e-01	-2.294087100e-04	2.013139369e-11
-2.150000000e-02	2.678521390e-01	-2.266954302e-04	5.592526452e-11
-2.160000000e-02	2.678521330e-01	-2.239821508e-04	2.948485303e-11
-2.170000000e-02	2.678521270e-01	-2.212688718e-04	7.888993609e-12
-2.180000000e-02	2.678521209e-01	-2.185555932e-04	2.290491758e-11
-2.190000000e-02	2.678521148e-01	-2.158423150e-04	1.970769697e-11
-2.200000000e-02	2.678521085e-01	-2.131290372e-04	1.913074200e-11
-2.210000000e-02	2.678521022e-01	-2.104157598e-04	1.068297080e-11
-2.220000000e-02	2.678520958e-01	-2.077024829e-04	1.572139938e-11
-2.230000000e-02	2.678520893e-01	-2.049892064e-04	2.834438372e-11
-2.240000000e-02	2.678520827e-01	-2.022759303e-04	6.542761089e-12
-2.250000000e-02	2.678520760e-01	-1.995626547e-04	2.265029368e-11
-2.260000000e-02	2.678520693e-01	-1.968493795e-04	1.191420234e-11
-2.270000000e-02	2.678520624e-01	-1.941361047e-04	2.058962472e-11
-2.280000000e-02	2.678520555e-01	-1.914228304e-04	8.696037814e-12
-2.290000000e-02	2.678520485e-01	-1.887095566e-04	2.330665881e-11
-2.300000000e-02	2.678520414e-01	-1.859962832e-04	1.644186041e-11
-2.310000000e-02	2.678520343e-01	-1.832830103e-04	1.237938775e-11
-2.320000000e-02	2.678520270e-01	-1.805697378e-04	1.132703362e-11
-2.330000000e-02	2.678520197e-01	-1.778564659e-04	2.439318759e-11
-2.340000000e-02	2.678520123e-01	-1.751431943e-04	2.425341795e-11
-2.350000000e-02	2.678520048e-01	-1.724299233e-04	1.335848816e-11
-2.360000000e-02	2.678519972e-01	-1.697166528e-04	1.505355894e-11
-2.370000000e-02	2.678519896e-01	-1.670033827e-04	2.671360185e-11
-2.380000000e-02	2.678519818e-01	-1.642901131e-04	9.725225550e-12
-2.390000000e-02	2.678519740e-01	-1.615768441e-04	2.420674635e-11
-2.400000000e-02	2.678519661e-01	-1.588635755e-04	2.522422745e-11
-2.410000000e-02	2.678519581e-01	-1.561503074e-04	4.824305953e-12
-2.420000000e-02	2.678519500e-01	-1.534370399e-04	1.116873064e-11
-2.430000000e-02	2.678519419e-01	-1.507237728e-04	1.115588566e-11
-2.440000000e-02	2.678519337e-01	-1.480105063e-04	1.559538535e-11
-2.450000000e-02	2.678519253e-01	-1.452972403e-04	8.085484707e-12
-2.460000000e-02	2.678519169e-01	-1.425839748e-04	6.900548992e-12
-2.470000000e-02	2.678519085e-01	-1.398707098e-04	2.383374826e-11
-2.480000000e-02	2.678518999e-01	-1.371574454e-04	3.537679481e-11
-2.490000000e-02	2.678518913e-01	-1.344441815e-04	3.958090417e-11
-2.500000000e-02	2.678518825e-01	-1.317309182e-04	1.306860330e-11
-2.510000000e-02	2.678518737e-01	-1.290176554e-04	7.564275440e-12
-2.520000000e-02	2.678518648e-01	-1.263043931e-04	7.762232267e-12
-2.530000000e-02	2.678518558e-01	-1.235911314e-04	1.279488576e-11
-2.540000000e-02	2.678518468e-01	-1.208778703e-04	1.281000207e-11
-2.550000000e-02	2.678518376e-01	-1.181646097e-04	1.885183885e-11
-2.560000000e-02	2.678518284e-01	-1.154513497e-04	6.518476449e-12
-2.570000000e-02	2.678518191e-01	-1.127380903e-04	1.367941777e-11
-2.580000000e-02	2.678518097e-01	-1.100248314e-04	1.504094114e-11
-2.590000000e-02	2.678518003e-01	-1.073115732e-04	9.964760820e-12
-2.600000000e-02	2.678517907e-01	-1.045983155e-04	7.595770308e-12
-2.610000000e-02	2.678517811e-01	-1.018850584e-04	8.552380627e-12
-2.620000000e-02	2.678517714e-01	-9.917180184e-05	9.395967598e-12
-2.630000000e-02	2.678517616e-01	-9.645854592e-05	8.953959647e-12
-2.640000000e-02	2.678517517e-01	-9.374529060e-05	2.338879919e-11
-2.650000000e-02	2.678517417e-01	-9.103203589e-05	1.344718465e-11
-2.660000000e-02	2.678517317e-01	-8.831878178e-05	8.466156262e-12
-2.670000000e-02	2.678517215e-01	-8.560552829e-05	1.956975674e-11
-2.680000000e-02	2.678517113e-01	-8.289227541e-05	2.602109878e-11
-2.690000000e-02	2.678517010e-01	-8.017902315e-05	1.274222095e-11
-2.700000000e-02	2.678516907e-01	-7.746577152e-05	1.532873198e-11
-2.710000000e-02	2.678516802e-01	-7.475252052e-05	1.247338903e-11
-2.720000000e-02	2.678516697e-01	-7.203927015e-05	1.426795029e-11
-2.730000000e-02	2.678516590e-01	-6.932602041e-05	7.676264021e-12
-2.740000000e-02	2.678516483e-01	-6.661277132e-05	1.510661082e-11
-2.750000000e-02	2.678516375e-01	-6.389952288e-05	6.358232678e-11
-2.760000000e-02	2.678516267e-01	-6.118627509e-05	3.047473224e-11
-2.770000000e-02	2.678516157e-01	-5.847302795e-05	1.063152648e-11
-2.780000000e-02	2.678516047e-01	-5.575978147e-05	9.468672484e-12
-2.790000000e-02	2.678515936e-01	-5.304653565e-05	1.213658177e-11
-2.800000000e-02	2.678515824e-01	-5.033329050e-05	1.111876396e-11
-2.810000000e-02	2.678515711e-01	-4.762004602e-05	3.349643760e-11
-2.820000000e-02	2.678515597e-01	-4.490680222e-05	1.264753458e-11
-2.830000000e-02	2.678515483e-01	-4.219355909e-05	1.565799567e-11
-2.840000000e-02	2.678515367e-01	-3.948031665e-05	7.826231101e-12
-2.850000000e-02	2.678515251e-01	-3.676707490e-05	1.490695509e-11
-2.860000000e-02	2.678515134e-01	-3.405383383e-05	1.209326976e-11
-2.870000000e-02	2.678515016e-01	-3.134059347e-05	2.240807492e-11
-2.880000000e-02	2.678514898e-01	-2.862735380e-05	1.857810365e-11
-2.890000000e-02	2.678514778e-01	-2.591411484e-05	1.475343580e-11
-2.900000000e-02	2.678514658e-01	-2.320087659e-05	2.450241892e-11
-2.910000000e-02	2.678514537e-01	-2.048763905e-05	2.623250399e-11
-2.920000000e-02	2.678514415e-01	-1.777440223e-05	1.045885538e-11
-2.930000000e-02	2.678514292e-01	-1.506116612e-05	3.570379629e-11
-2.940000000e-02	2.678514169e-01	-1.234793075e-05	1.577716976e-11
-2.950000000e-02	2.678514045e-01	-9.634696099e-06	2.490019876e-11
-2.960000000e-02	2.678513919e-01	-6.921462186e-06	6.016317699e-12
-2.970000000e-02	2.678513793e-01	-4.208229011e-06	1.998288555e-11
-2.980000000e-02	2.678513666e-01	-1.494996576e-06	1.538911251e-11
-2.990000000e-02	2.678513539e-01	1.218235111e-06	6.510514938e-12
-3.000000000e-02	2.678513410e-01	3.931466049e-06	2.687584277e-11
