# Im(epsi1)     Re(omega/c)      Im(omega/c)      Eq(det).Opt det CON kz, R=0.5 \mum, mu_c=0.3, Re(epsi1)=3.90solve_det_conkz_vs_kz.py
0.000000000e+00	2.678562748e-01	-8.100737306e-04	1.254013467e-11
-1.000000000e-04	2.678562866e-01	-8.073604232e-04	8.890183381e-12
-2.000000000e-04	2.678562983e-01	-8.046471154e-04	8.097506030e-12
-3.000000000e-04	2.678563099e-01	-8.019338070e-04	9.038447163e-12
-4.000000000e-04	2.678563215e-01	-7.992204982e-04	1.098043521e-11
-5.000000000e-04	2.678563329e-01	-7.965071888e-04	5.246739584e-12
-6.000000000e-04	2.678563443e-01	-7.937938790e-04	1.317014431e-11
-7.000000000e-04	2.678563556e-01	-7.910805688e-04	4.993984391e-11
-8.000000000e-04	2.678563668e-01	-7.883672580e-04	7.068014801e-12
-9.000000000e-04	2.678563780e-01	-7.856539468e-04	1.890469290e-11
-1.000000000e-03	2.678563890e-01	-7.829406352e-04	8.638424726e-12
-1.100000000e-03	2.678564000e-01	-7.802273230e-04	1.592200851e-11
-1.200000000e-03	2.678564109e-01	-7.775140105e-04	3.177735865e-11
-1.300000000e-03	2.678564217e-01	-7.748006975e-04	1.056440249e-11
-1.400000000e-03	2.678564324e-01	-7.720873840e-04	1.048497151e-11
-1.500000000e-03	2.678564431e-01	-7.693740701e-04	1.131283777e-11
-1.600000000e-03	2.678564536e-01	-7.666607558e-04	1.035503234e-11
-1.700000000e-03	2.678564641e-01	-7.639474410e-04	2.326780251e-11
-1.800000000e-03	2.678564745e-01	-7.612341258e-04	2.117299817e-11
-1.900000000e-03	2.678564848e-01	-7.585208102e-04	9.254250422e-12
-2.000000000e-03	2.678564950e-01	-7.558074942e-04	2.558742917e-11
-2.100000000e-03	2.678565052e-01	-7.530941777e-04	9.506587537e-12
-2.200000000e-03	2.678565153e-01	-7.503808609e-04	1.404854671e-11
-2.300000000e-03	2.678565252e-01	-7.476675436e-04	1.577485556e-11
-2.400000000e-03	2.678565351e-01	-7.449542260e-04	1.052621892e-11
-2.500000000e-03	2.678565450e-01	-7.422409079e-04	2.069140965e-11
-2.600000000e-03	2.678565547e-01	-7.395275895e-04	8.695708881e-12
-2.700000000e-03	2.678565643e-01	-7.368142706e-04	1.511858434e-11
-2.800000000e-03	2.678565739e-01	-7.341009514e-04	5.735744000e-12
-2.900000000e-03	2.678565834e-01	-7.313876318e-04	2.229604176e-11
-3.000000000e-03	2.678565928e-01	-7.286743118e-04	9.289643347e-12
-3.100000000e-03	2.678566021e-01	-7.259609915e-04	1.701270015e-11
-3.200000000e-03	2.678566114e-01	-7.232476708e-04	2.189500863e-11
-3.300000000e-03	2.678566205e-01	-7.205343497e-04	1.362323633e-11
-3.400000000e-03	2.678566296e-01	-7.178210282e-04	1.459529030e-11
-3.500000000e-03	2.678566386e-01	-7.151077064e-04	1.582925819e-11
-3.600000000e-03	2.678566475e-01	-7.123943843e-04	7.608436363e-12
-3.700000000e-03	2.678566563e-01	-7.096810618e-04	9.669969674e-12
-3.800000000e-03	2.678566651e-01	-7.069677390e-04	8.113962453e-12
-3.900000000e-03	2.678566737e-01	-7.042544158e-04	1.059365969e-11
-4.000000000e-03	2.678566823e-01	-7.015410923e-04	1.093763461e-11
-4.100000000e-03	2.678566908e-01	-6.988277684e-04	1.104359233e-11
-4.200000000e-03	2.678566992e-01	-6.961144443e-04	4.606289659e-11
-4.300000000e-03	2.678567076e-01	-6.934011198e-04	3.511148935e-11
-4.400000000e-03	2.678567158e-01	-6.906877950e-04	1.814132722e-11
-4.500000000e-03	2.678567240e-01	-6.879744699e-04	1.745442321e-11
-4.600000000e-03	2.678567321e-01	-6.852611445e-04	2.145876438e-11
-4.700000000e-03	2.678567401e-01	-6.825478187e-04	1.071046277e-11
-4.800000000e-03	2.678567480e-01	-6.798344927e-04	1.052769409e-11
-4.900000000e-03	2.678567558e-01	-6.771211664e-04	6.562588769e-12
-5.000000000e-03	2.678567636e-01	-6.744078397e-04	7.337896127e-12
-5.100000000e-03	2.678567713e-01	-6.716945128e-04	9.422785606e-11
-5.200000000e-03	2.678567789e-01	-6.689811856e-04	1.823037936e-11
-5.300000000e-03	2.678567864e-01	-6.662678582e-04	3.033672663e-12
-5.400000000e-03	2.678567938e-01	-6.635545304e-04	2.186109098e-11
-5.500000000e-03	2.678568011e-01	-6.608412024e-04	1.092705258e-11
-5.600000000e-03	2.678568084e-01	-6.581278741e-04	6.342238640e-12
-5.700000000e-03	2.678568156e-01	-6.554145456e-04	1.774252997e-11
-5.800000000e-03	2.678568227e-01	-6.527012167e-04	8.806265216e-12
-5.900000000e-03	2.678568297e-01	-6.499878877e-04	2.291408286e-11
-6.000000000e-03	2.678568366e-01	-6.472745584e-04	1.795164607e-11
-6.100000000e-03	2.678568435e-01	-6.445612288e-04	1.212069730e-11
-6.200000000e-03	2.678568503e-01	-6.418478990e-04	1.395386332e-11
-6.300000000e-03	2.678568569e-01	-6.391345689e-04	2.190465114e-11
-6.400000000e-03	2.678568635e-01	-6.364212387e-04	6.384009487e-12
-6.500000000e-03	2.678568701e-01	-6.337079082e-04	8.909010363e-12
-6.600000000e-03	2.678568765e-01	-6.309945774e-04	1.252551680e-11
-6.700000000e-03	2.678568829e-01	-6.282812465e-04	3.379425309e-11
-6.800000000e-03	2.678568891e-01	-6.255679153e-04	1.898130905e-11
-6.900000000e-03	2.678568953e-01	-6.228545839e-04	9.580515694e-12
-7.000000000e-03	2.678569014e-01	-6.201412523e-04	1.413846387e-11
-7.100000000e-03	2.678569075e-01	-6.174279205e-04	3.499009455e-11
-7.200000000e-03	2.678569134e-01	-6.147145885e-04	8.280368796e-12
-7.300000000e-03	2.678569193e-01	-6.120012563e-04	1.525020808e-11
-7.400000000e-03	2.678569250e-01	-6.092879239e-04	1.494844417e-11
-7.500000000e-03	2.678569307e-01	-6.065745913e-04	8.356334387e-12
-7.600000000e-03	2.678569363e-01	-6.038612586e-04	6.170773098e-11
-7.700000000e-03	2.678569419e-01	-6.011479256e-04	9.047826662e-12
-7.800000000e-03	2.678569473e-01	-5.984345925e-04	1.501196820e-11
-7.900000000e-03	2.678569527e-01	-5.957212592e-04	8.332241472e-12
-8.000000000e-03	2.678569580e-01	-5.930079258e-04	2.599909668e-11
-8.100000000e-03	2.678569632e-01	-5.902945921e-04	1.266409702e-11
-8.200000000e-03	2.678569683e-01	-5.875812584e-04	6.804841161e-12
-8.300000000e-03	2.678569733e-01	-5.848679244e-04	1.448029106e-11
-8.400000000e-03	2.678569783e-01	-5.821545903e-04	1.547915418e-11
-8.500000000e-03	2.678569832e-01	-5.794412561e-04	4.596490356e-11
-8.600000000e-03	2.678569880e-01	-5.767279217e-04	6.772259961e-12
-8.700000000e-03	2.678569927e-01	-5.740145872e-04	1.048632553e-11
-8.800000000e-03	2.678569973e-01	-5.713012526e-04	5.911394332e-11
-8.900000000e-03	2.678570018e-01	-5.685879178e-04	8.364434138e-11
-9.000000000e-03	2.678570063e-01	-5.658745829e-04	1.604520746e-11
-9.100000000e-03	2.678570107e-01	-5.631612479e-04	1.279593476e-11
-9.200000000e-03	2.678570150e-01	-5.604479127e-04	1.320087227e-11
-9.300000000e-03	2.678570192e-01	-5.577345775e-04	4.457867818e-12
-9.400000000e-03	2.678570233e-01	-5.550212421e-04	2.135422255e-11
-9.500000000e-03	2.678570274e-01	-5.523079066e-04	7.470396181e-12
-9.600000000e-03	2.678570313e-01	-5.495945711e-04	1.240309487e-11
-9.700000000e-03	2.678570352e-01	-5.468812354e-04	1.649273701e-11
-9.800000000e-03	2.678570390e-01	-5.441678997e-04	1.324290599e-11
-9.900000000e-03	2.678570427e-01	-5.414545638e-04	7.097793841e-12
-1.000000000e-02	2.678570464e-01	-5.387412279e-04	7.722258458e-12
-1.010000000e-02	2.678570499e-01	-5.360278919e-04	8.544434713e-11
-1.020000000e-02	2.678570534e-01	-5.333145558e-04	1.831101884e-11
-1.030000000e-02	2.678570568e-01	-5.306012196e-04	1.999871365e-11
-1.040000000e-02	2.678570601e-01	-5.278878834e-04	1.521530113e-11
-1.050000000e-02	2.678570633e-01	-5.251745471e-04	1.242015465e-11
-1.060000000e-02	2.678570664e-01	-5.224612108e-04	1.932560919e-11
-1.070000000e-02	2.678570695e-01	-5.197478744e-04	5.440240152e-11
-1.080000000e-02	2.678570725e-01	-5.170345379e-04	1.724623600e-11
-1.090000000e-02	2.678570754e-01	-5.143212014e-04	2.551249123e-12
-1.100000000e-02	2.678570782e-01	-5.116078649e-04	1.277412022e-11
-1.110000000e-02	2.678570809e-01	-5.088945283e-04	5.798824571e-11
-1.120000000e-02	2.678570836e-01	-5.061811917e-04	1.281414234e-11
-1.130000000e-02	2.678570861e-01	-5.034678550e-04	2.566590477e-11
-1.140000000e-02	2.678570886e-01	-5.007545184e-04	2.688362209e-11
-1.150000000e-02	2.678570910e-01	-4.980411817e-04	8.552703317e-12
-1.160000000e-02	2.678570933e-01	-4.953278450e-04	6.440949897e-11
-1.170000000e-02	2.678570955e-01	-4.926145083e-04	5.245445263e-12
-1.180000000e-02	2.678570977e-01	-4.899011715e-04	2.526557394e-11
-1.190000000e-02	2.678570998e-01	-4.871878348e-04	1.202807306e-11
-1.200000000e-02	2.678571018e-01	-4.844744981e-04	8.564242281e-12
-1.210000000e-02	2.678571037e-01	-4.817611613e-04	1.797321811e-11
-1.220000000e-02	2.678571055e-01	-4.790478246e-04	2.958106449e-12
-1.230000000e-02	2.678571072e-01	-4.763344879e-04	1.611750547e-11
-1.240000000e-02	2.678571089e-01	-4.736211512e-04	1.031924661e-11
-1.250000000e-02	2.678571105e-01	-4.709078145e-04	2.903356319e-11
-1.260000000e-02	2.678571119e-01	-4.681944779e-04	1.134167430e-11
-1.270000000e-02	2.678571134e-01	-4.654811413e-04	1.006067933e-11
-1.280000000e-02	2.678571147e-01	-4.627678047e-04	3.673173499e-12
-1.290000000e-02	2.678571159e-01	-4.600544681e-04	1.016822294e-11
-1.300000000e-02	2.678571171e-01	-4.573411316e-04	3.557175202e-11
-1.310000000e-02	2.678571182e-01	-4.546277951e-04	1.524067030e-11
-1.320000000e-02	2.678571192e-01	-4.519144587e-04	1.906350861e-11
-1.330000000e-02	2.678571201e-01	-4.492011224e-04	1.469219712e-12
-1.340000000e-02	2.678571209e-01	-4.464877861e-04	3.713533170e-11
-1.350000000e-02	2.678571217e-01	-4.437744498e-04	1.205018747e-11
-1.360000000e-02	2.678571223e-01	-4.410611136e-04	1.448207301e-11
-1.370000000e-02	2.678571229e-01	-4.383477775e-04	9.424741376e-12
-1.380000000e-02	2.678571234e-01	-4.356344415e-04	9.442345438e-12
-1.390000000e-02	2.678571239e-01	-4.329211056e-04	1.325192362e-11
-1.400000000e-02	2.678571242e-01	-4.302077697e-04	9.864944848e-12
-1.410000000e-02	2.678571244e-01	-4.274944339e-04	1.380693892e-11
-1.420000000e-02	2.678571246e-01	-4.247810982e-04	1.567976278e-10
-1.430000000e-02	2.678571247e-01	-4.220677626e-04	7.401752030e-12
-1.440000000e-02	2.678571247e-01	-4.193544271e-04	1.406650823e-11
-1.450000000e-02	2.678571246e-01	-4.166410917e-04	1.286754688e-11
-1.460000000e-02	2.678571245e-01	-4.139277565e-04	1.398540011e-11
-1.470000000e-02	2.678571243e-01	-4.112144213e-04	1.360623824e-11
-1.480000000e-02	2.678571239e-01	-4.085010862e-04	1.520747624e-11
-1.490000000e-02	2.678571235e-01	-4.057877513e-04	4.749191829e-12
-1.500000000e-02	2.678571230e-01	-4.030744165e-04	1.231684069e-11
-1.510000000e-02	2.678571225e-01	-4.003610818e-04	1.019904415e-11
-1.520000000e-02	2.678571218e-01	-3.976477472e-04	1.195653388e-11
-1.530000000e-02	2.678571211e-01	-3.949344128e-04	8.484404315e-12
-1.540000000e-02	2.678571203e-01	-3.922210786e-04	1.306192028e-11
-1.550000000e-02	2.678571194e-01	-3.895077444e-04	1.073059898e-11
-1.560000000e-02	2.678571184e-01	-3.867944105e-04	1.159797800e-11
-1.570000000e-02	2.678571173e-01	-3.840810766e-04	2.317402101e-11
-1.580000000e-02	2.678571162e-01	-3.813677430e-04	3.484123103e-12
-1.590000000e-02	2.678571150e-01	-3.786544095e-04	5.601307734e-11
-1.600000000e-02	2.678571137e-01	-3.759410761e-04	1.946355933e-11
-1.610000000e-02	2.678571123e-01	-3.732277430e-04	1.800835381e-11
-1.620000000e-02	2.678571108e-01	-3.705144100e-04	6.383768455e-12
-1.630000000e-02	2.678571092e-01	-3.678010772e-04	7.694966524e-12
-1.640000000e-02	2.678571076e-01	-3.650877445e-04	7.532205483e-11
-1.650000000e-02	2.678571059e-01	-3.623744121e-04	1.299403438e-11
-1.660000000e-02	2.678571041e-01	-3.596610799e-04	3.568523904e-12
-1.670000000e-02	2.678571022e-01	-3.569477478e-04	3.322368282e-11
-1.680000000e-02	2.678571002e-01	-3.542344159e-04	1.307940834e-11
-1.690000000e-02	2.678570982e-01	-3.515210843e-04	8.354083524e-12
-1.700000000e-02	2.678570960e-01	-3.488077529e-04	2.263409766e-11
-1.710000000e-02	2.678570938e-01	-3.460944216e-04	3.373372589e-11
-1.720000000e-02	2.678570915e-01	-3.433810906e-04	3.218980269e-11
-1.730000000e-02	2.678570891e-01	-3.406677598e-04	1.439003805e-11
-1.740000000e-02	2.678570867e-01	-3.379544292e-04	6.338488161e-12
-1.750000000e-02	2.678570841e-01	-3.352410989e-04	1.876919152e-11
-1.760000000e-02	2.678570815e-01	-3.325277688e-04	1.124249224e-11
-1.770000000e-02	2.678570788e-01	-3.298144389e-04	1.185358162e-11
-1.780000000e-02	2.678570760e-01	-3.271011093e-04	8.783776696e-12
-1.790000000e-02	2.678570731e-01	-3.243877799e-04	7.546684790e-12
-1.800000000e-02	2.678570701e-01	-3.216744508e-04	3.317475651e-11
-1.810000000e-02	2.678570671e-01	-3.189611219e-04	1.921680976e-11
-1.820000000e-02	2.678570640e-01	-3.162477933e-04	1.669317894e-11
-1.830000000e-02	2.678570608e-01	-3.135344649e-04	1.044513329e-11
-1.840000000e-02	2.678570575e-01	-3.108211368e-04	1.413980694e-11
-1.850000000e-02	2.678570541e-01	-3.081078090e-04	5.966053367e-12
-1.860000000e-02	2.678570507e-01	-3.053944815e-04	1.956254852e-11
-1.870000000e-02	2.678570471e-01	-3.026811542e-04	1.997565573e-11
-1.880000000e-02	2.678570435e-01	-2.999678272e-04	4.237568329e-11
-1.890000000e-02	2.678570398e-01	-2.972545005e-04	1.066395247e-11
-1.900000000e-02	2.678570360e-01	-2.945411741e-04	1.097189948e-11
-1.910000000e-02	2.678570322e-01	-2.918278480e-04	1.818670490e-11
-1.920000000e-02	2.678570282e-01	-2.891145222e-04	6.209130035e-12
-1.930000000e-02	2.678570242e-01	-2.864011967e-04	3.850262695e-11
-1.940000000e-02	2.678570201e-01	-2.836878715e-04	2.125691741e-11
-1.950000000e-02	2.678570159e-01	-2.809745466e-04	3.188697419e-11
-1.960000000e-02	2.678570116e-01	-2.782612220e-04	2.496392399e-11
-1.970000000e-02	2.678570072e-01	-2.755478978e-04	2.037692332e-11
-1.980000000e-02	2.678570028e-01	-2.728345738e-04	1.120289534e-11
-1.990000000e-02	2.678569983e-01	-2.701212503e-04	2.382585326e-11
-2.000000000e-02	2.678569937e-01	-2.674079270e-04	1.592799188e-11
-2.010000000e-02	2.678569890e-01	-2.646946041e-04	9.160354260e-12
-2.020000000e-02	2.678569842e-01	-2.619812815e-04	1.400721795e-11
-2.030000000e-02	2.678569794e-01	-2.592679592e-04	1.230016348e-11
-2.040000000e-02	2.678569744e-01	-2.565546374e-04	7.959993865e-12
-2.050000000e-02	2.678569694e-01	-2.538413158e-04	1.024078998e-11
-2.060000000e-02	2.678569643e-01	-2.511279946e-04	7.794524893e-12
-2.070000000e-02	2.678569591e-01	-2.484146738e-04	1.311758654e-11
-2.080000000e-02	2.678569539e-01	-2.457013534e-04	4.380555937e-12
-2.090000000e-02	2.678569485e-01	-2.429880333e-04	9.737871239e-12
-2.100000000e-02	2.678569431e-01	-2.402747136e-04	8.854424968e-11
-2.110000000e-02	2.678569376e-01	-2.375613943e-04	9.153128766e-12
-2.120000000e-02	2.678569320e-01	-2.348480753e-04	2.577312600e-11
-2.130000000e-02	2.678569263e-01	-2.321347568e-04	3.622523578e-11
-2.140000000e-02	2.678569205e-01	-2.294214386e-04	8.867971678e-12
-2.150000000e-02	2.678569147e-01	-2.267081209e-04	1.288677690e-11
-2.160000000e-02	2.678569088e-01	-2.239948035e-04	1.684865748e-11
-2.170000000e-02	2.678569027e-01	-2.212814865e-04	9.256435863e-12
-2.180000000e-02	2.678568967e-01	-2.185681700e-04	9.802581969e-13
-2.190000000e-02	2.678568905e-01	-2.158548539e-04	1.950713118e-11
-2.200000000e-02	2.678568842e-01	-2.131415381e-04	1.709880259e-11
-2.210000000e-02	2.678568779e-01	-2.104282228e-04	1.823203241e-11
-2.220000000e-02	2.678568715e-01	-2.077149080e-04	2.058811056e-11
-2.230000000e-02	2.678568650e-01	-2.050015935e-04	1.073525548e-11
-2.240000000e-02	2.678568584e-01	-2.022882795e-04	3.341492925e-12
-2.250000000e-02	2.678568517e-01	-1.995749659e-04	1.602043238e-11
-2.260000000e-02	2.678568450e-01	-1.968616528e-04	1.202571064e-11
-2.270000000e-02	2.678568381e-01	-1.941483401e-04	2.279397542e-11
-2.280000000e-02	2.678568312e-01	-1.914350278e-04	8.404996158e-12
-2.290000000e-02	2.678568242e-01	-1.887217161e-04	1.396226593e-11
-2.300000000e-02	2.678568171e-01	-1.860084047e-04	9.526792452e-12
-2.310000000e-02	2.678568100e-01	-1.832950939e-04	2.108975399e-12
-2.320000000e-02	2.678568027e-01	-1.805817835e-04	3.398180495e-11
-2.330000000e-02	2.678567954e-01	-1.778684735e-04	1.787555993e-11
-2.340000000e-02	2.678567880e-01	-1.751551641e-04	1.536368311e-11
-2.350000000e-02	2.678567805e-01	-1.724418551e-04	7.173505850e-12
-2.360000000e-02	2.678567729e-01	-1.697285466e-04	8.834864337e-12
-2.370000000e-02	2.678567653e-01	-1.670152386e-04	6.765280608e-12
-2.380000000e-02	2.678567575e-01	-1.643019311e-04	1.696210231e-11
-2.390000000e-02	2.678567497e-01	-1.615886241e-04	9.714237121e-12
-2.400000000e-02	2.678567418e-01	-1.588753176e-04	1.353541945e-11
-2.410000000e-02	2.678567338e-01	-1.561620116e-04	1.135288536e-11
-2.420000000e-02	2.678567258e-01	-1.534487061e-04	1.409656171e-11
-2.430000000e-02	2.678567176e-01	-1.507354011e-04	7.983226166e-12
-2.440000000e-02	2.678567094e-01	-1.480220966e-04	1.004955284e-11
-2.450000000e-02	2.678567011e-01	-1.453087927e-04	1.569399540e-11
-2.460000000e-02	2.678566927e-01	-1.425954892e-04	9.919807773e-12
-2.470000000e-02	2.678566842e-01	-1.398821863e-04	4.363642784e-11
-2.480000000e-02	2.678566756e-01	-1.371688840e-04	2.458897150e-11
-2.490000000e-02	2.678566670e-01	-1.344555821e-04	9.452477712e-12
-2.500000000e-02	2.678566582e-01	-1.317422808e-04	1.286906346e-11
-2.510000000e-02	2.678566494e-01	-1.290289801e-04	9.421834177e-12
-2.520000000e-02	2.678566405e-01	-1.263156799e-04	3.348875661e-11
-2.530000000e-02	2.678566316e-01	-1.236023803e-04	1.195733031e-11
-2.540000000e-02	2.678566225e-01	-1.208890812e-04	4.425950062e-12
-2.550000000e-02	2.678566134e-01	-1.181757827e-04	1.783222097e-11
-2.560000000e-02	2.678566041e-01	-1.154624847e-04	7.393155879e-12
-2.570000000e-02	2.678565948e-01	-1.127491874e-04	1.466212788e-11
-2.580000000e-02	2.678565855e-01	-1.100358906e-04	1.151157155e-11
-2.590000000e-02	2.678565760e-01	-1.073225943e-04	1.251742500e-11
-2.600000000e-02	2.678565664e-01	-1.046092987e-04	1.206724972e-11
-2.610000000e-02	2.678565568e-01	-1.018960037e-04	1.750742731e-11
-2.620000000e-02	2.678565471e-01	-9.918270920e-05	9.750279674e-12
-2.630000000e-02	2.678565373e-01	-9.646941533e-05	5.304556052e-12
-2.640000000e-02	2.678565274e-01	-9.375612207e-05	1.982548899e-11
-2.650000000e-02	2.678565174e-01	-9.104282941e-05	9.776004077e-12
-2.660000000e-02	2.678565074e-01	-8.832953736e-05	3.181482051e-11
-2.670000000e-02	2.678564973e-01	-8.561624592e-05	8.359240732e-12
-2.680000000e-02	2.678564870e-01	-8.290295510e-05	1.502361301e-11
-2.690000000e-02	2.678564768e-01	-8.018966490e-05	1.157389352e-11
-2.700000000e-02	2.678564664e-01	-7.747637533e-05	7.766632341e-12
-2.710000000e-02	2.678564559e-01	-7.476308638e-05	2.196209137e-11
-2.720000000e-02	2.678564454e-01	-7.204979807e-05	1.641090908e-11
-2.730000000e-02	2.678564348e-01	-6.933651040e-05	1.139571010e-11
-2.740000000e-02	2.678564240e-01	-6.662322336e-05	1.544234289e-11
-2.750000000e-02	2.678564133e-01	-6.390993698e-05	1.231117995e-11
-2.760000000e-02	2.678564024e-01	-6.119665124e-05	1.309113904e-11
-2.770000000e-02	2.678563914e-01	-5.848336616e-05	5.029200529e-12
-2.780000000e-02	2.678563804e-01	-5.577008174e-05	1.105313495e-11
-2.790000000e-02	2.678563693e-01	-5.305679798e-05	6.217072585e-12
-2.800000000e-02	2.678563581e-01	-5.034351488e-05	1.936089172e-11
-2.810000000e-02	2.678563468e-01	-4.763023246e-05	9.926300945e-12
-2.820000000e-02	2.678563354e-01	-4.491695071e-05	3.079876526e-11
-2.830000000e-02	2.678563240e-01	-4.220366964e-05	2.310464361e-11
-2.840000000e-02	2.678563125e-01	-3.949038926e-05	1.698843863e-11
-2.850000000e-02	2.678563008e-01	-3.677710956e-05	1.848941902e-11
-2.860000000e-02	2.678562891e-01	-3.406383056e-05	2.368130420e-11
-2.870000000e-02	2.678562774e-01	-3.135055225e-05	1.020860637e-10
-2.880000000e-02	2.678562655e-01	-2.863727464e-05	1.378767194e-11
-2.890000000e-02	2.678562536e-01	-2.592399774e-05	3.763665287e-11
-2.900000000e-02	2.678562415e-01	-2.321072154e-05	1.096446778e-11
-2.910000000e-02	2.678562294e-01	-2.049744606e-05	1.876364367e-11
-2.920000000e-02	2.678562172e-01	-1.778417129e-05	1.323393092e-11
-2.930000000e-02	2.678562050e-01	-1.507089725e-05	1.321681607e-11
-2.940000000e-02	2.678561926e-01	-1.235762393e-05	1.345918113e-11
-2.950000000e-02	2.678561802e-01	-9.644351337e-06	6.723780020e-11
-2.960000000e-02	2.678561677e-01	-6.931079481e-06	1.423611489e-11
-2.970000000e-02	2.678561551e-01	-4.217808363e-06	4.086868387e-11
-2.980000000e-02	2.678561424e-01	-1.504537985e-06	7.979473428e-12
-2.990000000e-02	2.678561296e-01	1.208731645e-06	9.372140272e-12
-3.000000000e-02	2.678561168e-01	3.922000526e-06	2.374370120e-11
