# Im(epsi1)     Re(omega/c)      Im(omega/c)      Eq(det).Opt det CON kz, R=0.5 \mum, mu_c=0.3, Re(epsi1)=3.90solve_det_conkz_vs_kz.py
0.000000000e+00	2.678465464e-01	-8.100312620e-04	1.476107522e-11
-1.000000000e-04	2.678465582e-01	-8.073180319e-04	8.378585810e-11
-2.000000000e-04	2.678465699e-01	-8.046048013e-04	1.916646459e-11
-3.000000000e-04	2.678465815e-01	-8.018915702e-04	3.695513766e-11
-4.000000000e-04	2.678465931e-01	-7.991783387e-04	9.163883847e-12
-5.000000000e-04	2.678466045e-01	-7.964651066e-04	1.152243184e-11
-6.000000000e-04	2.678466159e-01	-7.937518741e-04	2.519297664e-11
-7.000000000e-04	2.678466272e-01	-7.910386411e-04	1.527511688e-11
-8.000000000e-04	2.678466384e-01	-7.883254076e-04	9.611072807e-12
-9.000000000e-04	2.678466496e-01	-7.856121737e-04	2.064063075e-11
-1.000000000e-03	2.678466606e-01	-7.828989393e-04	3.100807442e-11
-1.100000000e-03	2.678466716e-01	-7.801857045e-04	9.438277383e-12
-1.200000000e-03	2.678466825e-01	-7.774724692e-04	1.025770041e-11
-1.300000000e-03	2.678466933e-01	-7.747592335e-04	1.020854580e-11
-1.400000000e-03	2.678467040e-01	-7.720459973e-04	2.884379807e-11
-1.500000000e-03	2.678467147e-01	-7.693327607e-04	7.519564640e-12
-1.600000000e-03	2.678467252e-01	-7.666195237e-04	2.038046810e-11
-1.700000000e-03	2.678467357e-01	-7.639062862e-04	1.083267461e-11
-1.800000000e-03	2.678467461e-01	-7.611930483e-04	8.339051822e-12
-1.900000000e-03	2.678467564e-01	-7.584798099e-04	8.432805337e-12
-2.000000000e-03	2.678467666e-01	-7.557665712e-04	2.695634646e-11
-2.100000000e-03	2.678467768e-01	-7.530533320e-04	1.920429712e-11
-2.200000000e-03	2.678467868e-01	-7.503400925e-04	1.786438897e-11
-2.300000000e-03	2.678467968e-01	-7.476268525e-04	5.795979622e-12
-2.400000000e-03	2.678468067e-01	-7.449136121e-04	2.569161658e-11
-2.500000000e-03	2.678468165e-01	-7.422003714e-04	1.034032332e-11
-2.600000000e-03	2.678468263e-01	-7.394871302e-04	9.968157329e-12
-2.700000000e-03	2.678468359e-01	-7.367738886e-04	1.429486527e-11
-2.800000000e-03	2.678468455e-01	-7.340606467e-04	1.341656461e-11
-2.900000000e-03	2.678468550e-01	-7.313474044e-04	7.235342237e-12
-3.000000000e-03	2.678468644e-01	-7.286341617e-04	1.869657507e-11
-3.100000000e-03	2.678468737e-01	-7.259209186e-04	1.647862274e-11
-3.200000000e-03	2.678468829e-01	-7.232076752e-04	6.815877102e-12
-3.300000000e-03	2.678468921e-01	-7.204944314e-04	1.172634437e-11
-3.400000000e-03	2.678469012e-01	-7.177811873e-04	1.427824756e-11
-3.500000000e-03	2.678469102e-01	-7.150679428e-04	1.442132503e-11
-3.600000000e-03	2.678469191e-01	-7.123546979e-04	1.597124836e-11
-3.700000000e-03	2.678469279e-01	-7.096414527e-04	4.739835789e-11
-3.800000000e-03	2.678469366e-01	-7.069282071e-04	1.563747159e-11
-3.900000000e-03	2.678469453e-01	-7.042149613e-04	1.200222802e-11
-4.000000000e-03	2.678469539e-01	-7.015017150e-04	5.287979233e-12
-4.100000000e-03	2.678469624e-01	-6.987884685e-04	2.288747811e-11
-4.200000000e-03	2.678469708e-01	-6.960752216e-04	7.598469352e-11
-4.300000000e-03	2.678469791e-01	-6.933619744e-04	2.412343376e-11
-4.400000000e-03	2.678469874e-01	-6.906487269e-04	9.751893133e-12
-4.500000000e-03	2.678469956e-01	-6.879354791e-04	6.570214066e-12
-4.600000000e-03	2.678470036e-01	-6.852222309e-04	5.752103439e-12
-4.700000000e-03	2.678470116e-01	-6.825089825e-04	1.168409698e-11
-4.800000000e-03	2.678470196e-01	-6.797957337e-04	5.856821632e-12
-4.900000000e-03	2.678470274e-01	-6.770824847e-04	1.069777889e-10
-5.000000000e-03	2.678470352e-01	-6.743692353e-04	7.811636827e-12
-5.100000000e-03	2.678470428e-01	-6.716559857e-04	1.869401584e-11
-5.200000000e-03	2.678470504e-01	-6.689427358e-04	2.536317495e-11
-5.300000000e-03	2.678470579e-01	-6.662294856e-04	3.850260695e-11
-5.400000000e-03	2.678470654e-01	-6.635162352e-04	7.153002557e-12
-5.500000000e-03	2.678470727e-01	-6.608029844e-04	9.787451042e-12
-5.600000000e-03	2.678470800e-01	-6.580897334e-04	5.314796088e-11
-5.700000000e-03	2.678470871e-01	-6.553764822e-04	5.915063488e-12
-5.800000000e-03	2.678470942e-01	-6.526632306e-04	1.059090388e-11
-5.900000000e-03	2.678471013e-01	-6.499499789e-04	1.532375054e-11
-6.000000000e-03	2.678471082e-01	-6.472367268e-04	8.776977027e-12
-6.100000000e-03	2.678471150e-01	-6.445234745e-04	8.356185203e-12
-6.200000000e-03	2.678471218e-01	-6.418102220e-04	1.099176778e-10
-6.300000000e-03	2.678471285e-01	-6.390969693e-04	3.150560300e-11
-6.400000000e-03	2.678471351e-01	-6.363837163e-04	1.135378796e-11
-6.500000000e-03	2.678471416e-01	-6.336704631e-04	1.251887037e-11
-6.600000000e-03	2.678471481e-01	-6.309572096e-04	1.556865760e-11
-6.700000000e-03	2.678471544e-01	-6.282439559e-04	4.801312341e-11
-6.800000000e-03	2.678471607e-01	-6.255307021e-04	8.585214262e-12
-6.900000000e-03	2.678471669e-01	-6.228174480e-04	7.106088453e-12
-7.000000000e-03	2.678471730e-01	-6.201041936e-04	6.289285932e-12
-7.100000000e-03	2.678471790e-01	-6.173909391e-04	2.540224633e-11
-7.200000000e-03	2.678471849e-01	-6.146776844e-04	8.694760206e-12
-7.300000000e-03	2.678471908e-01	-6.119644295e-04	1.779874455e-11
-7.400000000e-03	2.678471966e-01	-6.092511744e-04	3.121542152e-11
-7.500000000e-03	2.678472023e-01	-6.065379191e-04	1.768364114e-11
-7.600000000e-03	2.678472079e-01	-6.038246636e-04	2.124336849e-11
-7.700000000e-03	2.678472134e-01	-6.011114080e-04	2.110171082e-11
-7.800000000e-03	2.678472189e-01	-5.983981521e-04	3.554939746e-11
-7.900000000e-03	2.678472242e-01	-5.956848961e-04	2.712373881e-11
-8.000000000e-03	2.678472295e-01	-5.929716400e-04	3.873473206e-12
-8.100000000e-03	2.678472347e-01	-5.902583836e-04	1.097861353e-11
-8.200000000e-03	2.678472398e-01	-5.875451271e-04	1.070156730e-11
-8.300000000e-03	2.678472449e-01	-5.848318705e-04	1.150181102e-11
-8.400000000e-03	2.678472498e-01	-5.821186137e-04	3.131332044e-11
-8.500000000e-03	2.678472547e-01	-5.794053567e-04	2.190533506e-11
-8.600000000e-03	2.678472595e-01	-5.766920997e-04	4.744012160e-12
-8.700000000e-03	2.678472642e-01	-5.739788424e-04	2.589896724e-11
-8.800000000e-03	2.678472688e-01	-5.712655851e-04	8.927362535e-12
-8.900000000e-03	2.678472734e-01	-5.685523276e-04	8.828932093e-12
-9.000000000e-03	2.678472778e-01	-5.658390700e-04	4.760035684e-11
-9.100000000e-03	2.678472822e-01	-5.631258122e-04	1.353485940e-11
-9.200000000e-03	2.678472865e-01	-5.604125544e-04	7.713420188e-12
-9.300000000e-03	2.678472907e-01	-5.576992964e-04	1.657400143e-11
-9.400000000e-03	2.678472948e-01	-5.549860383e-04	3.250882253e-11
-9.500000000e-03	2.678472989e-01	-5.522727801e-04	1.512838362e-11
-9.600000000e-03	2.678473028e-01	-5.495595219e-04	4.569681065e-11
-9.700000000e-03	2.678473067e-01	-5.468462635e-04	4.617677415e-11
-9.800000000e-03	2.678473105e-01	-5.441330050e-04	6.412398570e-12
-9.900000000e-03	2.678473142e-01	-5.414197465e-04	6.292852330e-12
-1.000000000e-02	2.678473179e-01	-5.387064878e-04	1.292479397e-11
-1.010000000e-02	2.678473214e-01	-5.359932291e-04	2.334284795e-11
-1.020000000e-02	2.678473249e-01	-5.332799703e-04	6.367739966e-12
-1.030000000e-02	2.678473283e-01	-5.305667114e-04	2.288162732e-11
-1.040000000e-02	2.678473316e-01	-5.278534525e-04	1.577462412e-11
-1.050000000e-02	2.678473348e-01	-5.251401935e-04	3.051515242e-11
-1.060000000e-02	2.678473380e-01	-5.224269344e-04	4.816967328e-11
-1.070000000e-02	2.678473410e-01	-5.197136753e-04	1.810320802e-11
-1.080000000e-02	2.678473440e-01	-5.170004161e-04	2.219794480e-11
-1.090000000e-02	2.678473469e-01	-5.142871569e-04	1.276473048e-11
-1.100000000e-02	2.678473497e-01	-5.115738977e-04	1.149193163e-11
-1.110000000e-02	2.678473524e-01	-5.088606384e-04	1.415924342e-11
-1.120000000e-02	2.678473551e-01	-5.061473791e-04	5.063911830e-12
-1.130000000e-02	2.678473576e-01	-5.034341197e-04	1.160292764e-11
-1.140000000e-02	2.678473601e-01	-5.007208603e-04	8.637669021e-12
-1.150000000e-02	2.678473625e-01	-4.980076009e-04	1.308373527e-11
-1.160000000e-02	2.678473648e-01	-4.952943415e-04	4.503369482e-11
-1.170000000e-02	2.678473671e-01	-4.925810821e-04	1.067476771e-11
-1.180000000e-02	2.678473692e-01	-4.898678226e-04	1.382978369e-11
-1.190000000e-02	2.678473713e-01	-4.871545632e-04	1.113096220e-11
-1.200000000e-02	2.678473733e-01	-4.844413037e-04	1.208983998e-11
-1.210000000e-02	2.678473752e-01	-4.817280443e-04	4.449071305e-11
-1.220000000e-02	2.678473770e-01	-4.790147849e-04	9.643431979e-12
-1.230000000e-02	2.678473787e-01	-4.763015254e-04	2.196696068e-11
-1.240000000e-02	2.678473804e-01	-4.735882660e-04	9.639541006e-12
-1.250000000e-02	2.678473820e-01	-4.708750067e-04	9.138617553e-12
-1.260000000e-02	2.678473835e-01	-4.681617473e-04	2.340494803e-11
-1.270000000e-02	2.678473849e-01	-4.654484880e-04	2.146674285e-11
-1.280000000e-02	2.678473862e-01	-4.627352287e-04	8.807845640e-12
-1.290000000e-02	2.678473874e-01	-4.600219694e-04	5.111705020e-12
-1.300000000e-02	2.678473886e-01	-4.573087102e-04	2.822793359e-11
-1.310000000e-02	2.678473897e-01	-4.545954510e-04	1.047083221e-11
-1.320000000e-02	2.678473907e-01	-4.518821919e-04	2.077847361e-11
-1.330000000e-02	2.678473916e-01	-4.491689328e-04	2.048082752e-11
-1.340000000e-02	2.678473924e-01	-4.464556738e-04	2.069288903e-10
-1.350000000e-02	2.678473932e-01	-4.437424148e-04	9.581818240e-12
-1.360000000e-02	2.678473938e-01	-4.410291559e-04	6.419707542e-12
-1.370000000e-02	2.678473944e-01	-4.383158971e-04	1.119561597e-11
-1.380000000e-02	2.678473949e-01	-4.356026384e-04	2.778651991e-11
-1.390000000e-02	2.678473954e-01	-4.328893797e-04	1.877487864e-11
-1.400000000e-02	2.678473957e-01	-4.301761211e-04	4.340637624e-11
-1.410000000e-02	2.678473959e-01	-4.274628626e-04	2.890499771e-11
-1.420000000e-02	2.678473961e-01	-4.247496042e-04	7.744731431e-12
-1.430000000e-02	2.678473962e-01	-4.220363459e-04	1.187924052e-11
-1.440000000e-02	2.678473962e-01	-4.193230877e-04	1.167328536e-11
-1.450000000e-02	2.678473961e-01	-4.166098296e-04	2.058454055e-11
-1.460000000e-02	2.678473960e-01	-4.138965716e-04	2.152880069e-11
-1.470000000e-02	2.678473958e-01	-4.111833137e-04	1.581903228e-11
-1.480000000e-02	2.678473954e-01	-4.084700560e-04	1.393519146e-11
-1.490000000e-02	2.678473950e-01	-4.057567983e-04	9.572178165e-12
-1.500000000e-02	2.678473945e-01	-4.030435408e-04	2.216091144e-11
-1.510000000e-02	2.678473940e-01	-4.003302834e-04	1.199721062e-11
-1.520000000e-02	2.678473933e-01	-3.976170262e-04	1.566730709e-11
-1.530000000e-02	2.678473926e-01	-3.949037690e-04	1.521653299e-11
-1.540000000e-02	2.678473918e-01	-3.921905121e-04	1.288196968e-11
-1.550000000e-02	2.678473909e-01	-3.894772552e-04	1.444429998e-11
-1.560000000e-02	2.678473899e-01	-3.867639985e-04	1.828289835e-11
-1.570000000e-02	2.678473888e-01	-3.840507420e-04	2.013556775e-11
-1.580000000e-02	2.678473877e-01	-3.813374856e-04	1.762614507e-11
-1.590000000e-02	2.678473865e-01	-3.786242294e-04	1.397716576e-11
-1.600000000e-02	2.678473851e-01	-3.759109734e-04	1.164946127e-11
-1.610000000e-02	2.678473838e-01	-3.731977175e-04	2.711619951e-11
-1.620000000e-02	2.678473823e-01	-3.704844618e-04	1.961334584e-11
-1.630000000e-02	2.678473807e-01	-3.677712063e-04	8.435266397e-12
-1.640000000e-02	2.678473791e-01	-3.650579509e-04	1.770643294e-11
-1.650000000e-02	2.678473774e-01	-3.623446958e-04	1.880636112e-11
-1.660000000e-02	2.678473756e-01	-3.596314408e-04	3.652314840e-11
-1.670000000e-02	2.678473737e-01	-3.569181860e-04	2.498794949e-11
-1.680000000e-02	2.678473717e-01	-3.542049315e-04	1.639258653e-11
-1.690000000e-02	2.678473696e-01	-3.514916771e-04	1.161167889e-10
-1.700000000e-02	2.678473675e-01	-3.487784230e-04	1.198346559e-11
-1.710000000e-02	2.678473653e-01	-3.460651690e-04	9.733623220e-12
-1.720000000e-02	2.678473630e-01	-3.433519153e-04	3.554246534e-11
-1.730000000e-02	2.678473606e-01	-3.406386618e-04	7.000781040e-12
-1.740000000e-02	2.678473581e-01	-3.379254085e-04	2.066109572e-11
-1.750000000e-02	2.678473556e-01	-3.352121555e-04	1.081589365e-11
-1.760000000e-02	2.678473530e-01	-3.324989026e-04	1.057808636e-11
-1.770000000e-02	2.678473503e-01	-3.297856501e-04	8.071288635e-12
-1.780000000e-02	2.678473475e-01	-3.270723977e-04	2.071402243e-11
-1.790000000e-02	2.678473446e-01	-3.243591456e-04	1.436266820e-11
-1.800000000e-02	2.678473416e-01	-3.216458938e-04	9.970590677e-12
-1.810000000e-02	2.678473386e-01	-3.189326422e-04	2.382668958e-11
-1.820000000e-02	2.678473355e-01	-3.162193909e-04	1.489293663e-11
-1.830000000e-02	2.678473323e-01	-3.135061398e-04	3.932815177e-11
-1.840000000e-02	2.678473290e-01	-3.107928890e-04	3.254458211e-12
-1.850000000e-02	2.678473256e-01	-3.080796385e-04	1.231919153e-11
-1.860000000e-02	2.678473221e-01	-3.053663882e-04	2.421320324e-11
-1.870000000e-02	2.678473186e-01	-3.026531382e-04	7.960147975e-11
-1.880000000e-02	2.678473150e-01	-2.999398885e-04	1.101722042e-11
-1.890000000e-02	2.678473113e-01	-2.972266391e-04	1.250661157e-11
-1.900000000e-02	2.678473075e-01	-2.945133900e-04	1.459430742e-11
-1.910000000e-02	2.678473036e-01	-2.918001412e-04	2.529862074e-11
-1.920000000e-02	2.678472997e-01	-2.890868927e-04	3.000709849e-11
-1.930000000e-02	2.678472957e-01	-2.863736444e-04	1.536469627e-11
-1.940000000e-02	2.678472916e-01	-2.836603965e-04	1.760159286e-11
-1.950000000e-02	2.678472874e-01	-2.809471489e-04	2.147601239e-11
-1.960000000e-02	2.678472831e-01	-2.782339017e-04	1.237340529e-11
-1.970000000e-02	2.678472787e-01	-2.755206547e-04	1.394581137e-11
-1.980000000e-02	2.678472743e-01	-2.728074081e-04	1.282729759e-11
-1.990000000e-02	2.678472698e-01	-2.700941618e-04	1.090482848e-11
-2.000000000e-02	2.678472651e-01	-2.673809158e-04	1.234780368e-11
-2.010000000e-02	2.678472605e-01	-2.646676701e-04	1.174820541e-11
-2.020000000e-02	2.678472557e-01	-2.619544249e-04	1.145387251e-11
-2.030000000e-02	2.678472508e-01	-2.592411799e-04	2.053034199e-11
-2.040000000e-02	2.678472459e-01	-2.565279353e-04	1.607869333e-11
-2.050000000e-02	2.678472409e-01	-2.538146911e-04	1.532278107e-11
-2.060000000e-02	2.678472358e-01	-2.511014472e-04	8.085471436e-12
-2.070000000e-02	2.678472306e-01	-2.483882037e-04	1.250338157e-11
-2.080000000e-02	2.678472253e-01	-2.456749605e-04	1.432161530e-11
-2.090000000e-02	2.678472200e-01	-2.429617177e-04	9.729942254e-12
-2.100000000e-02	2.678472145e-01	-2.402484753e-04	1.458397597e-11
-2.110000000e-02	2.678472090e-01	-2.375352333e-04	6.531957811e-12
-2.120000000e-02	2.678472034e-01	-2.348219916e-04	9.950029036e-12
-2.130000000e-02	2.678471977e-01	-2.321087504e-04	1.049775678e-11
-2.140000000e-02	2.678471920e-01	-2.293955095e-04	2.038452212e-11
-2.150000000e-02	2.678471861e-01	-2.266822690e-04	1.609054806e-11
-2.160000000e-02	2.678471802e-01	-2.239690289e-04	4.419510706e-11
-2.170000000e-02	2.678471742e-01	-2.212557893e-04	7.670648583e-12
-2.180000000e-02	2.678471681e-01	-2.185425500e-04	1.154169740e-11
-2.190000000e-02	2.678471619e-01	-2.158293112e-04	2.558131986e-11
-2.200000000e-02	2.678471557e-01	-2.131160727e-04	2.252624855e-11
-2.210000000e-02	2.678471494e-01	-2.104028347e-04	1.241386553e-11
-2.220000000e-02	2.678471429e-01	-2.076895971e-04	1.475561646e-11
-2.230000000e-02	2.678471364e-01	-2.049763600e-04	3.895813849e-11
-2.240000000e-02	2.678471298e-01	-2.022631232e-04	7.817266997e-12
-2.250000000e-02	2.678471232e-01	-1.995498870e-04	7.657639907e-12
-2.260000000e-02	2.678471164e-01	-1.968366511e-04	1.072533000e-11
-2.270000000e-02	2.678471096e-01	-1.941234157e-04	8.257412131e-12
-2.280000000e-02	2.678471027e-01	-1.914101808e-04	1.002310939e-11
-2.290000000e-02	2.678470957e-01	-1.886969463e-04	3.510764566e-11
-2.300000000e-02	2.678470886e-01	-1.859837122e-04	2.621625481e-11
-2.310000000e-02	2.678470814e-01	-1.832704786e-04	2.492026141e-11
-2.320000000e-02	2.678470742e-01	-1.805572455e-04	4.993607610e-11
-2.330000000e-02	2.678470669e-01	-1.778440129e-04	1.227589085e-11
-2.340000000e-02	2.678470595e-01	-1.751307807e-04	1.829469903e-11
-2.350000000e-02	2.678470520e-01	-1.724175491e-04	1.828113432e-11
-2.360000000e-02	2.678470444e-01	-1.697043179e-04	3.688601198e-11
-2.370000000e-02	2.678470367e-01	-1.669910871e-04	1.185105926e-11
-2.380000000e-02	2.678470290e-01	-1.642778569e-04	1.242576972e-11
-2.390000000e-02	2.678470212e-01	-1.615646272e-04	1.510222536e-11
-2.400000000e-02	2.678470133e-01	-1.588513980e-04	1.747734826e-11
-2.410000000e-02	2.678470053e-01	-1.561381693e-04	1.335080627e-11
-2.420000000e-02	2.678469972e-01	-1.534249410e-04	2.248052051e-11
-2.430000000e-02	2.678469891e-01	-1.507117133e-04	9.643899535e-12
-2.440000000e-02	2.678469808e-01	-1.479984862e-04	1.167224616e-11
-2.450000000e-02	2.678469725e-01	-1.452852595e-04	1.307865510e-11
-2.460000000e-02	2.678469641e-01	-1.425720334e-04	2.474174501e-11
-2.470000000e-02	2.678469556e-01	-1.398588078e-04	1.019316656e-11
-2.480000000e-02	2.678469471e-01	-1.371455827e-04	4.070974641e-11
-2.490000000e-02	2.678469384e-01	-1.344323581e-04	4.201331723e-11
-2.500000000e-02	2.678469297e-01	-1.317191341e-04	1.416400376e-11
-2.510000000e-02	2.678469209e-01	-1.290059107e-04	9.656154885e-12
-2.520000000e-02	2.678469120e-01	-1.262926878e-04	9.134193027e-12
-2.530000000e-02	2.678469030e-01	-1.235794655e-04	1.021305271e-11
-2.540000000e-02	2.678468940e-01	-1.208662437e-04	1.241784331e-11
-2.550000000e-02	2.678468848e-01	-1.181530224e-04	1.273315821e-11
-2.560000000e-02	2.678468756e-01	-1.154398018e-04	2.054561668e-11
-2.570000000e-02	2.678468663e-01	-1.127265817e-04	5.906569298e-12
-2.580000000e-02	2.678468569e-01	-1.100133622e-04	1.311025630e-11
-2.590000000e-02	2.678468474e-01	-1.073001433e-04	2.926851304e-11
-2.600000000e-02	2.678468379e-01	-1.045869249e-04	1.107719119e-11
-2.610000000e-02	2.678468282e-01	-1.018737072e-04	1.445293011e-11
-2.620000000e-02	2.678468185e-01	-9.916048999e-05	1.895737237e-11
-2.630000000e-02	2.678468087e-01	-9.644727342e-05	5.767956179e-12
-2.640000000e-02	2.678467988e-01	-9.373405744e-05	9.103927720e-12
-2.650000000e-02	2.678467889e-01	-9.102084208e-05	7.449868386e-12
-2.660000000e-02	2.678467788e-01	-8.830762732e-05	2.601034104e-11
-2.670000000e-02	2.678467687e-01	-8.559441317e-05	1.080754503e-11
-2.680000000e-02	2.678467585e-01	-8.288119964e-05	1.156558152e-11
-2.690000000e-02	2.678467482e-01	-8.016798673e-05	6.194550072e-12
-2.700000000e-02	2.678467378e-01	-7.745477445e-05	1.433747059e-11
-2.710000000e-02	2.678467274e-01	-7.474156279e-05	5.871583643e-11
-2.720000000e-02	2.678467168e-01	-7.202835177e-05	8.688907907e-12
-2.730000000e-02	2.678467062e-01	-6.931514139e-05	1.261440425e-11
-2.740000000e-02	2.678466955e-01	-6.660193165e-05	8.676536802e-12
-2.750000000e-02	2.678466847e-01	-6.388872255e-05	1.055034623e-11
-2.760000000e-02	2.678466738e-01	-6.117551411e-05	1.604648171e-11
-2.770000000e-02	2.678466629e-01	-5.846230632e-05	1.440984675e-11
-2.780000000e-02	2.678466518e-01	-5.574909918e-05	1.285079289e-11
-2.790000000e-02	2.678466407e-01	-5.303589271e-05	2.102193975e-11
-2.800000000e-02	2.678466295e-01	-5.032268691e-05	1.012766027e-11
-2.810000000e-02	2.678466182e-01	-4.760948178e-05	1.294103588e-11
-2.820000000e-02	2.678466069e-01	-4.489627732e-05	1.676137351e-11
-2.830000000e-02	2.678465954e-01	-4.218307355e-05	2.531665958e-11
-2.840000000e-02	2.678465839e-01	-3.946987045e-05	2.524490934e-11
-2.850000000e-02	2.678465723e-01	-3.675666805e-05	6.975393095e-11
-2.860000000e-02	2.678465606e-01	-3.404346634e-05	1.104695878e-11
-2.870000000e-02	2.678465488e-01	-3.133026532e-05	1.801195630e-11
-2.880000000e-02	2.678465369e-01	-2.861706500e-05	1.369969941e-11
-2.890000000e-02	2.678465250e-01	-2.590386539e-05	1.650818662e-11
-2.900000000e-02	2.678465130e-01	-2.319066648e-05	1.162043511e-11
-2.910000000e-02	2.678465009e-01	-2.047746829e-05	9.448121773e-12
-2.920000000e-02	2.678464887e-01	-1.776427082e-05	1.395541199e-11
-2.930000000e-02	2.678464764e-01	-1.505107406e-05	1.654484876e-11
-2.940000000e-02	2.678464641e-01	-1.233787804e-05	1.018079605e-11
-2.950000000e-02	2.678464516e-01	-9.624682738e-06	1.908363020e-11
-2.960000000e-02	2.678464391e-01	-6.911488172e-06	1.231692230e-11
-2.970000000e-02	2.678464265e-01	-4.198294344e-06	8.823246803e-12
-2.980000000e-02	2.678464138e-01	-1.485101260e-06	8.325934135e-12
-2.990000000e-02	2.678464010e-01	1.228091079e-06	1.781570185e-11
-3.000000000e-02	2.678463882e-01	3.941282668e-06	1.264518790e-11
