# Im(epsi1)     Re(omega/c)      Im(omega/c)      Eq(det).Opt det CON kz, R=0.5 \mum, mu_c=0.3, Re(epsi1)=3.90solve_det_conkz_vs_kz.py
0.000000000e+00	2.678469092e-01	-8.100328459e-04	8.344265957e-12
-1.000000000e-04	2.678469210e-01	-8.073196129e-04	1.594190663e-11
-2.000000000e-04	2.678469327e-01	-8.046063795e-04	1.684168449e-11
-3.000000000e-04	2.678469444e-01	-8.018931455e-04	9.641782051e-12
-4.000000000e-04	2.678469559e-01	-7.991799111e-04	1.033552781e-11
-5.000000000e-04	2.678469674e-01	-7.964666762e-04	8.974208885e-12
-6.000000000e-04	2.678469788e-01	-7.937534408e-04	9.492012402e-12
-7.000000000e-04	2.678469901e-01	-7.910402049e-04	1.147358422e-11
-8.000000000e-04	2.678470013e-01	-7.883269685e-04	2.309665310e-11
-9.000000000e-04	2.678470124e-01	-7.856137317e-04	1.740183974e-11
-1.000000000e-03	2.678470235e-01	-7.829004945e-04	3.947284651e-11
-1.100000000e-03	2.678470344e-01	-7.801872568e-04	6.395979329e-12
-1.200000000e-03	2.678470453e-01	-7.774740186e-04	2.079918484e-11
-1.300000000e-03	2.678470561e-01	-7.747607800e-04	7.660252127e-12
-1.400000000e-03	2.678470669e-01	-7.720475409e-04	4.366445795e-11
-1.500000000e-03	2.678470775e-01	-7.693343014e-04	9.729967578e-12
-1.600000000e-03	2.678470881e-01	-7.666210615e-04	1.042296853e-11
-1.700000000e-03	2.678470985e-01	-7.639078211e-04	8.121601541e-11
-1.800000000e-03	2.678471089e-01	-7.611945803e-04	1.083390703e-11
-1.900000000e-03	2.678471192e-01	-7.584813391e-04	8.006197329e-12
-2.000000000e-03	2.678471295e-01	-7.557680975e-04	1.746479088e-10
-2.100000000e-03	2.678471396e-01	-7.530548555e-04	6.937366065e-12
-2.200000000e-03	2.678471497e-01	-7.503416130e-04	1.157855397e-11
-2.300000000e-03	2.678471597e-01	-7.476283702e-04	5.403499269e-12
-2.400000000e-03	2.678471696e-01	-7.449151269e-04	2.013809941e-11
-2.500000000e-03	2.678471794e-01	-7.422018833e-04	9.810437765e-12
-2.600000000e-03	2.678471891e-01	-7.394886392e-04	1.555019396e-11
-2.700000000e-03	2.678471988e-01	-7.367753948e-04	1.622301207e-11
-2.800000000e-03	2.678472083e-01	-7.340621500e-04	7.554816873e-12
-2.900000000e-03	2.678472178e-01	-7.313489048e-04	1.122433994e-11
-3.000000000e-03	2.678472272e-01	-7.286356592e-04	8.936306624e-12
-3.100000000e-03	2.678472365e-01	-7.259224132e-04	2.919655137e-11
-3.200000000e-03	2.678472458e-01	-7.232091669e-04	1.299542563e-11
-3.300000000e-03	2.678472549e-01	-7.204959203e-04	3.930512172e-11
-3.400000000e-03	2.678472640e-01	-7.177826732e-04	8.922218292e-12
-3.500000000e-03	2.678472730e-01	-7.150694258e-04	2.738486594e-11
-3.600000000e-03	2.678472819e-01	-7.123561781e-04	1.198898707e-11
-3.700000000e-03	2.678472908e-01	-7.096429300e-04	2.302766300e-10
-3.800000000e-03	2.678472995e-01	-7.069296816e-04	2.103520359e-11
-3.900000000e-03	2.678473082e-01	-7.042164328e-04	1.721953444e-11
-4.000000000e-03	2.678473167e-01	-7.015031837e-04	2.959229759e-11
-4.100000000e-03	2.678473252e-01	-6.987899343e-04	2.276265179e-11
-4.200000000e-03	2.678473337e-01	-6.960766845e-04	3.057613248e-11
-4.300000000e-03	2.678473420e-01	-6.933634344e-04	8.398478271e-12
-4.400000000e-03	2.678473502e-01	-6.906501840e-04	8.187391348e-12
-4.500000000e-03	2.678473584e-01	-6.879369333e-04	1.095871697e-11
-4.600000000e-03	2.678473665e-01	-6.852236823e-04	2.625323837e-11
-4.700000000e-03	2.678473745e-01	-6.825104309e-04	8.457420013e-12
-4.800000000e-03	2.678473824e-01	-6.797971793e-04	6.561169243e-12
-4.900000000e-03	2.678473903e-01	-6.770839274e-04	1.038213441e-11
-5.000000000e-03	2.678473980e-01	-6.743706752e-04	3.675507488e-11
-5.100000000e-03	2.678474057e-01	-6.716574227e-04	2.470320602e-11
-5.200000000e-03	2.678474133e-01	-6.689441699e-04	1.084885832e-11
-5.300000000e-03	2.678474208e-01	-6.662309168e-04	9.213708141e-12
-5.400000000e-03	2.678474282e-01	-6.635176635e-04	1.080519812e-11
-5.500000000e-03	2.678474356e-01	-6.608044098e-04	1.831155133e-11
-5.600000000e-03	2.678474428e-01	-6.580911560e-04	9.038914241e-12
-5.700000000e-03	2.678474500e-01	-6.553779018e-04	1.110456497e-11
-5.800000000e-03	2.678474571e-01	-6.526646474e-04	9.306326864e-12
-5.900000000e-03	2.678474641e-01	-6.499513927e-04	1.779041052e-11
-6.000000000e-03	2.678474710e-01	-6.472381378e-04	5.749253404e-12
-6.100000000e-03	2.678474779e-01	-6.445248827e-04	5.601382882e-12
-6.200000000e-03	2.678474847e-01	-6.418116273e-04	1.332186423e-11
-6.300000000e-03	2.678474913e-01	-6.390983716e-04	5.176994629e-11
-6.400000000e-03	2.678474979e-01	-6.363851158e-04	1.691114279e-11
-6.500000000e-03	2.678475045e-01	-6.336718596e-04	2.764613885e-12
-6.600000000e-03	2.678475109e-01	-6.309586033e-04	6.195652102e-11
-6.700000000e-03	2.678475173e-01	-6.282453468e-04	2.541989679e-11
-6.800000000e-03	2.678475235e-01	-6.255320900e-04	1.902337923e-11
-6.900000000e-03	2.678475297e-01	-6.228188330e-04	1.599048503e-11
-7.000000000e-03	2.678475358e-01	-6.201055758e-04	1.286223479e-11
-7.100000000e-03	2.678475419e-01	-6.173923184e-04	2.265850720e-11
-7.200000000e-03	2.678475478e-01	-6.146790608e-04	1.942705269e-11
-7.300000000e-03	2.678475537e-01	-6.119658030e-04	7.126493243e-12
-7.400000000e-03	2.678475594e-01	-6.092525450e-04	1.063634740e-11
-7.500000000e-03	2.678475651e-01	-6.065392869e-04	1.421357145e-11
-7.600000000e-03	2.678475707e-01	-6.038260285e-04	6.156248154e-12
-7.700000000e-03	2.678475763e-01	-6.011127700e-04	1.108428041e-11
-7.800000000e-03	2.678475817e-01	-5.983995113e-04	1.593569753e-11
-7.900000000e-03	2.678475871e-01	-5.956862524e-04	3.927619515e-11
-8.000000000e-03	2.678475924e-01	-5.929729933e-04	7.505987601e-12
-8.100000000e-03	2.678475976e-01	-5.902597341e-04	8.512559363e-12
-8.200000000e-03	2.678476027e-01	-5.875464747e-04	1.617172959e-11
-8.300000000e-03	2.678476077e-01	-5.848332152e-04	9.270041911e-12
-8.400000000e-03	2.678476127e-01	-5.821199555e-04	1.007430180e-11
-8.500000000e-03	2.678476176e-01	-5.794066957e-04	5.691001954e-12
-8.600000000e-03	2.678476223e-01	-5.766934357e-04	1.051106118e-11
-8.700000000e-03	2.678476270e-01	-5.739801756e-04	3.442412312e-11
-8.800000000e-03	2.678476317e-01	-5.712669154e-04	1.884046449e-11
-8.900000000e-03	2.678476362e-01	-5.685536550e-04	5.369677746e-12
-9.000000000e-03	2.678476407e-01	-5.658403945e-04	1.062027493e-11
-9.100000000e-03	2.678476450e-01	-5.631271339e-04	2.332493762e-11
-9.200000000e-03	2.678476493e-01	-5.604138731e-04	1.157164127e-11
-9.300000000e-03	2.678476536e-01	-5.577006123e-04	9.112199706e-12
-9.400000000e-03	2.678476577e-01	-5.549873513e-04	2.801536649e-11
-9.500000000e-03	2.678476617e-01	-5.522740903e-04	1.981683480e-11
-9.600000000e-03	2.678476657e-01	-5.495608291e-04	1.372567128e-11
-9.700000000e-03	2.678476696e-01	-5.468475678e-04	9.035839063e-12
-9.800000000e-03	2.678476734e-01	-5.441343065e-04	1.104482546e-11
-9.900000000e-03	2.678476771e-01	-5.414210450e-04	1.038299191e-11
-1.000000000e-02	2.678476807e-01	-5.387077835e-04	4.822283006e-11
-1.010000000e-02	2.678476843e-01	-5.359945219e-04	1.352457726e-11
-1.020000000e-02	2.678476878e-01	-5.332812602e-04	1.987507335e-11
-1.030000000e-02	2.678476911e-01	-5.305679985e-04	1.737127722e-11
-1.040000000e-02	2.678476944e-01	-5.278547367e-04	6.309853327e-12
-1.050000000e-02	2.678476977e-01	-5.251414748e-04	4.956403603e-12
-1.060000000e-02	2.678477008e-01	-5.224282128e-04	5.638525779e-12
-1.070000000e-02	2.678477039e-01	-5.197149508e-04	2.292989981e-11
-1.080000000e-02	2.678477068e-01	-5.170016888e-04	2.202361500e-11
-1.090000000e-02	2.678477097e-01	-5.142884267e-04	9.392611613e-12
-1.100000000e-02	2.678477125e-01	-5.115751646e-04	1.110997127e-11
-1.110000000e-02	2.678477153e-01	-5.088619024e-04	1.074614459e-11
-1.120000000e-02	2.678477179e-01	-5.061486402e-04	9.975283254e-12
-1.130000000e-02	2.678477205e-01	-5.034353779e-04	1.299491792e-11
-1.140000000e-02	2.678477230e-01	-5.007221157e-04	1.089375096e-11
-1.150000000e-02	2.678477254e-01	-4.980088534e-04	6.852075692e-12
-1.160000000e-02	2.678477277e-01	-4.952955911e-04	7.436227212e-12
-1.170000000e-02	2.678477299e-01	-4.925823288e-04	1.401403542e-11
-1.180000000e-02	2.678477321e-01	-4.898690665e-04	1.309463952e-11
-1.190000000e-02	2.678477341e-01	-4.871558041e-04	1.105349470e-11
-1.200000000e-02	2.678477361e-01	-4.844425418e-04	2.233038518e-12
-1.210000000e-02	2.678477380e-01	-4.817292795e-04	1.019496148e-11
-1.220000000e-02	2.678477398e-01	-4.790160172e-04	4.062468590e-11
-1.230000000e-02	2.678477416e-01	-4.763027549e-04	1.424746047e-11
-1.240000000e-02	2.678477432e-01	-4.735894926e-04	4.890655125e-11
-1.250000000e-02	2.678477448e-01	-4.708762303e-04	5.352842091e-11
-1.260000000e-02	2.678477463e-01	-4.681629681e-04	2.077606166e-11
-1.270000000e-02	2.678477477e-01	-4.654497058e-04	1.310465430e-11
-1.280000000e-02	2.678477490e-01	-4.627364437e-04	2.986725616e-11
-1.290000000e-02	2.678477503e-01	-4.600231815e-04	1.013606780e-11
-1.300000000e-02	2.678477515e-01	-4.573099194e-04	1.151952498e-11
-1.310000000e-02	2.678477525e-01	-4.545966573e-04	1.225079901e-11
-1.320000000e-02	2.678477535e-01	-4.518833953e-04	1.739649130e-11
-1.330000000e-02	2.678477544e-01	-4.491701334e-04	9.055378690e-12
-1.340000000e-02	2.678477553e-01	-4.464568715e-04	1.774485064e-11
-1.350000000e-02	2.678477560e-01	-4.437436096e-04	1.045613348e-11
-1.360000000e-02	2.678477567e-01	-4.410303479e-04	7.917596251e-12
-1.370000000e-02	2.678477573e-01	-4.383170862e-04	1.367106822e-11
-1.380000000e-02	2.678477578e-01	-4.356038246e-04	1.476530135e-11
-1.390000000e-02	2.678477582e-01	-4.328905630e-04	6.349131170e-12
-1.400000000e-02	2.678477585e-01	-4.301773015e-04	8.720571131e-12
-1.410000000e-02	2.678477588e-01	-4.274640402e-04	4.133657341e-11
-1.420000000e-02	2.678477590e-01	-4.247507789e-04	4.127647386e-11
-1.430000000e-02	2.678477591e-01	-4.220375177e-04	7.515888442e-12
-1.440000000e-02	2.678477591e-01	-4.193242566e-04	6.839396794e-12
-1.450000000e-02	2.678477590e-01	-4.166109956e-04	8.556207131e-12
-1.460000000e-02	2.678477588e-01	-4.138977347e-04	1.385008340e-11
-1.470000000e-02	2.678477586e-01	-4.111844740e-04	1.958263920e-11
-1.480000000e-02	2.678477583e-01	-4.084712133e-04	6.175440425e-12
-1.490000000e-02	2.678477579e-01	-4.057579528e-04	7.033141142e-12
-1.500000000e-02	2.678477574e-01	-4.030446924e-04	1.253258974e-11
-1.510000000e-02	2.678477568e-01	-4.003314321e-04	4.248042779e-11
-1.520000000e-02	2.678477562e-01	-3.976181720e-04	2.130940934e-11
-1.530000000e-02	2.678477554e-01	-3.949049120e-04	6.110141563e-12
-1.540000000e-02	2.678477546e-01	-3.921916521e-04	1.590407179e-11
-1.550000000e-02	2.678477537e-01	-3.894783924e-04	8.894563483e-12
-1.560000000e-02	2.678477527e-01	-3.867651328e-04	1.782551122e-11
-1.570000000e-02	2.678477517e-01	-3.840518734e-04	2.117096542e-11
-1.580000000e-02	2.678477505e-01	-3.813386141e-04	1.031317696e-11
-1.590000000e-02	2.678477493e-01	-3.786253550e-04	8.658225628e-12
-1.600000000e-02	2.678477480e-01	-3.759120961e-04	1.379415201e-11
-1.610000000e-02	2.678477466e-01	-3.731988374e-04	1.323299702e-11
-1.620000000e-02	2.678477451e-01	-3.704855788e-04	1.122939867e-11
-1.630000000e-02	2.678477436e-01	-3.677723204e-04	2.537096716e-11
-1.640000000e-02	2.678477419e-01	-3.650590621e-04	1.120679760e-11
-1.650000000e-02	2.678477402e-01	-3.623458041e-04	2.671922177e-11
-1.660000000e-02	2.678477384e-01	-3.596325463e-04	1.199111049e-11
-1.670000000e-02	2.678477365e-01	-3.569192886e-04	1.714832333e-11
-1.680000000e-02	2.678477345e-01	-3.542060312e-04	1.060690308e-11
-1.690000000e-02	2.678477325e-01	-3.514927739e-04	9.561551624e-12
-1.700000000e-02	2.678477304e-01	-3.487795169e-04	1.394018109e-11
-1.710000000e-02	2.678477281e-01	-3.460662601e-04	7.544982145e-12
-1.720000000e-02	2.678477258e-01	-3.433530035e-04	2.005377361e-11
-1.730000000e-02	2.678477235e-01	-3.406397471e-04	1.542740751e-11
-1.740000000e-02	2.678477210e-01	-3.379264909e-04	1.896144858e-11
-1.750000000e-02	2.678477185e-01	-3.352132350e-04	2.603897270e-11
-1.760000000e-02	2.678477158e-01	-3.324999793e-04	1.485428661e-11
-1.770000000e-02	2.678477131e-01	-3.297867238e-04	1.160140689e-11
-1.780000000e-02	2.678477103e-01	-3.270734686e-04	2.725742252e-11
-1.790000000e-02	2.678477074e-01	-3.243602136e-04	1.027156526e-11
-1.800000000e-02	2.678477045e-01	-3.216469589e-04	1.097715255e-11
-1.810000000e-02	2.678477014e-01	-3.189337044e-04	1.695969509e-11
-1.820000000e-02	2.678476983e-01	-3.162204502e-04	1.235895343e-11
-1.830000000e-02	2.678476951e-01	-3.135071962e-04	1.347545761e-11
-1.840000000e-02	2.678476918e-01	-3.107939426e-04	1.214263623e-11
-1.850000000e-02	2.678476885e-01	-3.080806891e-04	1.556399807e-11
-1.860000000e-02	2.678476850e-01	-3.053674360e-04	2.148475097e-11
-1.870000000e-02	2.678476815e-01	-3.026541831e-04	7.225315511e-11
-1.880000000e-02	2.678476778e-01	-2.999409306e-04	6.095862616e-12
-1.890000000e-02	2.678476741e-01	-2.972276783e-04	6.368356101e-12
-1.900000000e-02	2.678476704e-01	-2.945144263e-04	1.223106541e-11
-1.910000000e-02	2.678476665e-01	-2.918011746e-04	2.441394989e-11
-1.920000000e-02	2.678476625e-01	-2.890879232e-04	3.683141843e-11
-1.930000000e-02	2.678476585e-01	-2.863746721e-04	6.865025901e-12
-1.940000000e-02	2.678476544e-01	-2.836614213e-04	1.004361482e-11
-1.950000000e-02	2.678476502e-01	-2.809481708e-04	1.214006491e-11
-1.960000000e-02	2.678476459e-01	-2.782349206e-04	2.068652894e-11
-1.970000000e-02	2.678476416e-01	-2.755216708e-04	1.681065057e-11
-1.980000000e-02	2.678476371e-01	-2.728084213e-04	1.802473294e-11
-1.990000000e-02	2.678476326e-01	-2.700951721e-04	1.150406660e-11
-2.000000000e-02	2.678476280e-01	-2.673819232e-04	3.039911243e-11
-2.010000000e-02	2.678476233e-01	-2.646686747e-04	1.166787624e-11
-2.020000000e-02	2.678476185e-01	-2.619554265e-04	1.263639315e-11
-2.030000000e-02	2.678476137e-01	-2.592421787e-04	8.336213391e-12
-2.040000000e-02	2.678476087e-01	-2.565289312e-04	9.039677519e-12
-2.050000000e-02	2.678476037e-01	-2.538156841e-04	1.488840398e-11
-2.060000000e-02	2.678475986e-01	-2.511024373e-04	4.858044503e-11
-2.070000000e-02	2.678475934e-01	-2.483891909e-04	1.608553753e-11
-2.080000000e-02	2.678475882e-01	-2.456759449e-04	1.091513581e-11
-2.090000000e-02	2.678475828e-01	-2.429626992e-04	2.036707312e-11
-2.100000000e-02	2.678475774e-01	-2.402494539e-04	1.091008061e-11
-2.110000000e-02	2.678475719e-01	-2.375362090e-04	8.315734554e-12
-2.120000000e-02	2.678475663e-01	-2.348229645e-04	7.136514452e-12
-2.130000000e-02	2.678475606e-01	-2.321097203e-04	8.947067442e-12
-2.140000000e-02	2.678475548e-01	-2.293964766e-04	7.638737922e-12
-2.150000000e-02	2.678475490e-01	-2.266832332e-04	1.493040106e-11
-2.160000000e-02	2.678475431e-01	-2.239699903e-04	7.067785968e-12
-2.170000000e-02	2.678475371e-01	-2.212567477e-04	3.065371260e-11
-2.180000000e-02	2.678475310e-01	-2.185435056e-04	1.985490968e-11
-2.190000000e-02	2.678475248e-01	-2.158302638e-04	2.770757456e-11
-2.200000000e-02	2.678475185e-01	-2.131170225e-04	1.568471644e-11
-2.210000000e-02	2.678475122e-01	-2.104037816e-04	1.504331534e-11
-2.220000000e-02	2.678475058e-01	-2.076905412e-04	1.861211178e-11
-2.230000000e-02	2.678474993e-01	-2.049773011e-04	2.451208503e-11
-2.240000000e-02	2.678474927e-01	-2.022640615e-04	9.796934771e-12
-2.250000000e-02	2.678474860e-01	-1.995508223e-04	1.259845167e-11
-2.260000000e-02	2.678474793e-01	-1.968375836e-04	1.660963769e-11
-2.270000000e-02	2.678474724e-01	-1.941243453e-04	1.628475381e-11
-2.280000000e-02	2.678474655e-01	-1.914111075e-04	8.459338037e-12
-2.290000000e-02	2.678474585e-01	-1.886978701e-04	8.392463321e-11
-2.300000000e-02	2.678474515e-01	-1.859846332e-04	1.255706666e-11
-2.310000000e-02	2.678474443e-01	-1.832713967e-04	3.775561897e-11
-2.320000000e-02	2.678474370e-01	-1.805581607e-04	9.499508318e-12
-2.330000000e-02	2.678474297e-01	-1.778449252e-04	1.690070836e-11
-2.340000000e-02	2.678474223e-01	-1.751316902e-04	6.238781734e-12
-2.350000000e-02	2.678474148e-01	-1.724184556e-04	1.144451193e-11
-2.360000000e-02	2.678474072e-01	-1.697052215e-04	4.225531394e-11
-2.370000000e-02	2.678473996e-01	-1.669919879e-04	9.028715562e-12
-2.380000000e-02	2.678473918e-01	-1.642787548e-04	9.852243993e-12
-2.390000000e-02	2.678473840e-01	-1.615655222e-04	5.108844505e-12
-2.400000000e-02	2.678473761e-01	-1.588522901e-04	7.270559047e-12
-2.410000000e-02	2.678473681e-01	-1.561390585e-04	1.450507435e-11
-2.420000000e-02	2.678473601e-01	-1.534258274e-04	1.193988619e-11
-2.430000000e-02	2.678473519e-01	-1.507125968e-04	1.541547999e-11
-2.440000000e-02	2.678473437e-01	-1.479993668e-04	5.359183825e-11
-2.450000000e-02	2.678473354e-01	-1.452861372e-04	4.506675544e-12
-2.460000000e-02	2.678473270e-01	-1.425729082e-04	2.021860418e-11
-2.470000000e-02	2.678473185e-01	-1.398596797e-04	1.670101625e-11
-2.480000000e-02	2.678473099e-01	-1.371464518e-04	1.117682034e-11
-2.490000000e-02	2.678473013e-01	-1.344332243e-04	6.020229433e-12
-2.500000000e-02	2.678472925e-01	-1.317199975e-04	1.304855557e-11
-2.510000000e-02	2.678472837e-01	-1.290067711e-04	1.256247660e-11
-2.520000000e-02	2.678472748e-01	-1.262935454e-04	3.277952433e-11
-2.530000000e-02	2.678472659e-01	-1.235803201e-04	1.681078253e-11
-2.540000000e-02	2.678472568e-01	-1.208670955e-04	1.579366505e-11
-2.550000000e-02	2.678472477e-01	-1.181538714e-04	3.092704349e-11
-2.560000000e-02	2.678472384e-01	-1.154406478e-04	7.466958354e-12
-2.570000000e-02	2.678472291e-01	-1.127274248e-04	1.526230861e-11
-2.580000000e-02	2.678472198e-01	-1.100142025e-04	2.239920561e-11
-2.590000000e-02	2.678472103e-01	-1.073009806e-04	7.897597833e-12
-2.600000000e-02	2.678472007e-01	-1.045877594e-04	6.502545940e-12
-2.610000000e-02	2.678471911e-01	-1.018745388e-04	2.175226388e-11
-2.620000000e-02	2.678471814e-01	-9.916131871e-05	9.476138169e-12
-2.630000000e-02	2.678471716e-01	-9.644809926e-05	2.451288271e-11
-2.640000000e-02	2.678471617e-01	-9.373488040e-05	1.490887219e-11
-2.650000000e-02	2.678471517e-01	-9.102166216e-05	5.568889153e-11
-2.660000000e-02	2.678471417e-01	-8.830844451e-05	1.458602040e-11
-2.670000000e-02	2.678471316e-01	-8.559522748e-05	4.958560271e-11
-2.680000000e-02	2.678471213e-01	-8.288201107e-05	4.132518762e-12
-2.690000000e-02	2.678471110e-01	-8.016879528e-05	1.919006335e-11
-2.700000000e-02	2.678471007e-01	-7.745558011e-05	1.047964285e-11
-2.710000000e-02	2.678470902e-01	-7.474236557e-05	1.873792157e-11
-2.720000000e-02	2.678470797e-01	-7.202915167e-05	1.297832812e-11
-2.730000000e-02	2.678470690e-01	-6.931593840e-05	1.381643955e-11
-2.740000000e-02	2.678470583e-01	-6.660272578e-05	1.464259225e-11
-2.750000000e-02	2.678470476e-01	-6.388951380e-05	1.594878524e-11
-2.760000000e-02	2.678470367e-01	-6.117630248e-05	1.191249809e-11
-2.770000000e-02	2.678470257e-01	-5.846309180e-05	6.104740461e-12
-2.780000000e-02	2.678470147e-01	-5.574988179e-05	3.990155290e-11
-2.790000000e-02	2.678470036e-01	-5.303667244e-05	1.116358384e-11
-2.800000000e-02	2.678469924e-01	-5.032346375e-05	1.649774968e-11
-2.810000000e-02	2.678469811e-01	-4.761025574e-05	1.429966500e-11
-2.820000000e-02	2.678469697e-01	-4.489704840e-05	1.201356624e-11
-2.830000000e-02	2.678469583e-01	-4.218384174e-05	7.176422683e-12
-2.840000000e-02	2.678469467e-01	-3.947063576e-05	2.497007817e-11
-2.850000000e-02	2.678469351e-01	-3.675743047e-05	1.635855757e-11
-2.860000000e-02	2.678469234e-01	-3.404422588e-05	7.971540434e-12
-2.870000000e-02	2.678469117e-01	-3.133102198e-05	1.556438285e-11
-2.880000000e-02	2.678468998e-01	-2.861781878e-05	1.277081335e-11
-2.890000000e-02	2.678468879e-01	-2.590461628e-05	1.061570324e-11
-2.900000000e-02	2.678468758e-01	-2.319141449e-05	1.381719770e-11
-2.910000000e-02	2.678468637e-01	-2.047821342e-05	2.795333078e-11
-2.920000000e-02	2.678468515e-01	-1.776501306e-05	7.218907899e-12
-2.930000000e-02	2.678468393e-01	-1.505181343e-05	1.616385154e-11
-2.940000000e-02	2.678468269e-01	-1.233861452e-05	1.095628907e-11
-2.950000000e-02	2.678468145e-01	-9.625416335e-06	7.609009645e-12
-2.960000000e-02	2.678468019e-01	-6.912218887e-06	9.378955221e-12
-2.970000000e-02	2.678467893e-01	-4.199022177e-06	1.074754905e-11
-2.980000000e-02	2.678467767e-01	-1.485826208e-06	3.700667252e-11
-2.990000000e-02	2.678467639e-01	1.227369012e-06	1.946983618e-11
-3.000000000e-02	2.678467510e-01	3.940563484e-06	3.419310803e-11
