# Im(epsi1)     Re(omega/c)      Im(omega/c)      Eq(det).Opt det CON kz, R=0.5 \mum, mu_c=0.3, Re(epsi1)=3.90solve_det_conkz_vs_kz.py
0.000000000e+00	2.678546421e-01	-8.100666032e-04	1.467076590e-11
-1.000000000e-04	2.678546539e-01	-8.073533088e-04	7.140438386e-12
-2.000000000e-04	2.678546656e-01	-8.046400139e-04	8.109114146e-12
-3.000000000e-04	2.678546773e-01	-8.019267185e-04	9.699180350e-11
-4.000000000e-04	2.678546888e-01	-7.992134226e-04	2.324877160e-11
-5.000000000e-04	2.678547003e-01	-7.965001262e-04	1.264405293e-11
-6.000000000e-04	2.678547116e-01	-7.937868294e-04	2.318560090e-11
-7.000000000e-04	2.678547229e-01	-7.910735321e-04	1.761346677e-11
-8.000000000e-04	2.678547342e-01	-7.883602343e-04	1.018257609e-11
-9.000000000e-04	2.678547453e-01	-7.856469361e-04	1.339365964e-11
-1.000000000e-03	2.678547564e-01	-7.829336374e-04	9.236889215e-12
-1.100000000e-03	2.678547673e-01	-7.802203383e-04	4.196766139e-11
-1.200000000e-03	2.678547782e-01	-7.775070387e-04	1.955945503e-10
-1.300000000e-03	2.678547890e-01	-7.747937386e-04	2.037840763e-11
-1.400000000e-03	2.678547997e-01	-7.720804381e-04	1.349687663e-11
-1.500000000e-03	2.678548104e-01	-7.693671372e-04	1.494073051e-11
-1.600000000e-03	2.678548209e-01	-7.666538358e-04	2.046156909e-11
-1.700000000e-03	2.678548314e-01	-7.639405340e-04	1.172502829e-11
-1.800000000e-03	2.678548418e-01	-7.612272318e-04	9.635991291e-12
-1.900000000e-03	2.678548521e-01	-7.585139292e-04	2.664201041e-11
-2.000000000e-03	2.678548624e-01	-7.558006261e-04	4.652356046e-11
-2.100000000e-03	2.678548725e-01	-7.530873227e-04	1.752211324e-11
-2.200000000e-03	2.678548826e-01	-7.503740188e-04	9.903201291e-12
-2.300000000e-03	2.678548926e-01	-7.476607145e-04	1.075417556e-11
-2.400000000e-03	2.678549025e-01	-7.449474098e-04	8.260017355e-12
-2.500000000e-03	2.678549123e-01	-7.422341047e-04	1.688628386e-11
-2.600000000e-03	2.678549220e-01	-7.395207992e-04	9.283026820e-11
-2.700000000e-03	2.678549317e-01	-7.368074934e-04	1.009697316e-11
-2.800000000e-03	2.678549412e-01	-7.340941871e-04	9.963564431e-12
-2.900000000e-03	2.678549507e-01	-7.313808805e-04	4.372213341e-11
-3.000000000e-03	2.678549601e-01	-7.286675735e-04	7.317502319e-12
-3.100000000e-03	2.678549694e-01	-7.259542661e-04	1.400643621e-11
-3.200000000e-03	2.678549787e-01	-7.232409584e-04	1.432861647e-11
-3.300000000e-03	2.678549878e-01	-7.205276503e-04	2.275142036e-11
-3.400000000e-03	2.678549969e-01	-7.178143418e-04	9.389154945e-12
-3.500000000e-03	2.678550059e-01	-7.151010330e-04	1.656645546e-11
-3.600000000e-03	2.678550148e-01	-7.123877238e-04	1.582832587e-11
-3.700000000e-03	2.678550237e-01	-7.096744143e-04	1.290338037e-11
-3.800000000e-03	2.678550324e-01	-7.069611044e-04	2.055528131e-11
-3.900000000e-03	2.678550411e-01	-7.042477942e-04	6.210828466e-11
-4.000000000e-03	2.678550496e-01	-7.015344837e-04	2.272540375e-11
-4.100000000e-03	2.678550581e-01	-6.988211728e-04	7.678351640e-12
-4.200000000e-03	2.678550666e-01	-6.961078616e-04	1.121171854e-11
-4.300000000e-03	2.678550749e-01	-6.933945501e-04	1.364155535e-11
-4.400000000e-03	2.678550831e-01	-6.906812383e-04	8.017548439e-12
-4.500000000e-03	2.678550913e-01	-6.879679261e-04	1.109526584e-11
-4.600000000e-03	2.678550994e-01	-6.852546137e-04	1.134589700e-11
-4.700000000e-03	2.678551074e-01	-6.825413009e-04	1.481510957e-11
-4.800000000e-03	2.678551153e-01	-6.798279878e-04	1.187561674e-11
-4.900000000e-03	2.678551232e-01	-6.771146745e-04	1.140125303e-11
-5.000000000e-03	2.678551309e-01	-6.744013608e-04	1.482109655e-11
-5.100000000e-03	2.678551386e-01	-6.716880469e-04	1.490795146e-11
-5.200000000e-03	2.678551462e-01	-6.689747327e-04	2.274939759e-11
-5.300000000e-03	2.678551537e-01	-6.662614182e-04	1.490058764e-11
-5.400000000e-03	2.678551611e-01	-6.635481034e-04	1.105467566e-11
-5.500000000e-03	2.678551685e-01	-6.608347883e-04	1.743936119e-11
-5.600000000e-03	2.678551757e-01	-6.581214730e-04	1.107249039e-11
-5.700000000e-03	2.678551829e-01	-6.554081574e-04	1.776880920e-11
-5.800000000e-03	2.678551900e-01	-6.526948416e-04	1.016866673e-11
-5.900000000e-03	2.678551970e-01	-6.499815255e-04	1.821784911e-11
-6.000000000e-03	2.678552040e-01	-6.472682092e-04	2.065970624e-11
-6.100000000e-03	2.678552108e-01	-6.445548926e-04	7.848805501e-12
-6.200000000e-03	2.678552176e-01	-6.418415757e-04	1.302692881e-11
-6.300000000e-03	2.678552243e-01	-6.391282587e-04	1.172980875e-11
-6.400000000e-03	2.678552309e-01	-6.364149414e-04	1.470477196e-11
-6.500000000e-03	2.678552374e-01	-6.337016238e-04	8.590622679e-12
-6.600000000e-03	2.678552438e-01	-6.309883061e-04	8.234866569e-11
-6.700000000e-03	2.678552502e-01	-6.282749881e-04	1.684540427e-11
-6.800000000e-03	2.678552564e-01	-6.255616699e-04	1.506284689e-11
-6.900000000e-03	2.678552626e-01	-6.228483515e-04	9.600199898e-12
-7.000000000e-03	2.678552687e-01	-6.201350328e-04	2.496027595e-11
-7.100000000e-03	2.678552748e-01	-6.174217140e-04	1.980576364e-11
-7.200000000e-03	2.678552807e-01	-6.147083950e-04	9.042630881e-12
-7.300000000e-03	2.678552866e-01	-6.119950757e-04	1.496252156e-11
-7.400000000e-03	2.678552924e-01	-6.092817563e-04	1.572417781e-11
-7.500000000e-03	2.678552981e-01	-6.065684367e-04	1.322605349e-11
-7.600000000e-03	2.678553037e-01	-6.038551169e-04	8.370556895e-12
-7.700000000e-03	2.678553092e-01	-6.011417969e-04	1.849967040e-11
-7.800000000e-03	2.678553146e-01	-5.984284768e-04	6.024546736e-12
-7.900000000e-03	2.678553200e-01	-5.957151565e-04	2.294987331e-11
-8.000000000e-03	2.678553253e-01	-5.930018360e-04	4.620990611e-11
-8.100000000e-03	2.678553305e-01	-5.902885153e-04	1.628673692e-11
-8.200000000e-03	2.678553356e-01	-5.875751945e-04	2.350673519e-11
-8.300000000e-03	2.678553407e-01	-5.848618736e-04	1.913523167e-11
-8.400000000e-03	2.678553456e-01	-5.821485525e-04	1.149379658e-11
-8.500000000e-03	2.678553505e-01	-5.794352312e-04	1.243717079e-11
-8.600000000e-03	2.678553553e-01	-5.767219098e-04	7.848390308e-11
-8.700000000e-03	2.678553600e-01	-5.740085883e-04	9.582899774e-12
-8.800000000e-03	2.678553646e-01	-5.712952666e-04	4.984954850e-12
-8.900000000e-03	2.678553691e-01	-5.685819448e-04	2.049276299e-11
-9.000000000e-03	2.678553736e-01	-5.658686228e-04	1.176445100e-10
-9.100000000e-03	2.678553780e-01	-5.631553008e-04	1.513118722e-11
-9.200000000e-03	2.678553823e-01	-5.604419786e-04	1.699138788e-11
-9.300000000e-03	2.678553865e-01	-5.577286563e-04	3.913780712e-11
-9.400000000e-03	2.678553906e-01	-5.550153339e-04	1.265964529e-11
-9.500000000e-03	2.678553947e-01	-5.523020114e-04	6.305176492e-12
-9.600000000e-03	2.678553986e-01	-5.495886888e-04	5.623560718e-12
-9.700000000e-03	2.678554025e-01	-5.468753661e-04	2.998023526e-11
-9.800000000e-03	2.678554063e-01	-5.441620434e-04	9.222824029e-12
-9.900000000e-03	2.678554100e-01	-5.414487205e-04	2.019761336e-11
-1.000000000e-02	2.678554137e-01	-5.387353975e-04	2.326704367e-11
-1.010000000e-02	2.678554172e-01	-5.360220745e-04	1.571810937e-11
-1.020000000e-02	2.678554207e-01	-5.333087514e-04	5.774386583e-12
-1.030000000e-02	2.678554241e-01	-5.305954282e-04	8.992349217e-12
-1.040000000e-02	2.678554274e-01	-5.278821049e-04	2.224913743e-11
-1.050000000e-02	2.678554306e-01	-5.251687816e-04	9.959441728e-12
-1.060000000e-02	2.678554337e-01	-5.224554582e-04	8.841080424e-12
-1.070000000e-02	2.678554368e-01	-5.197421348e-04	6.468226393e-12
-1.080000000e-02	2.678554398e-01	-5.170288113e-04	5.670266762e-11
-1.090000000e-02	2.678554427e-01	-5.143154878e-04	5.271323707e-11
-1.100000000e-02	2.678554455e-01	-5.116021642e-04	6.362038751e-12
-1.110000000e-02	2.678554482e-01	-5.088888406e-04	6.252434156e-12
-1.120000000e-02	2.678554509e-01	-5.061755170e-04	9.341223454e-12
-1.130000000e-02	2.678554534e-01	-5.034621933e-04	1.296942481e-11
-1.140000000e-02	2.678554559e-01	-5.007488696e-04	7.696730255e-12
-1.150000000e-02	2.678554583e-01	-4.980355459e-04	9.310405281e-12
-1.160000000e-02	2.678554606e-01	-4.953222222e-04	1.772623153e-11
-1.170000000e-02	2.678554629e-01	-4.926088984e-04	1.222162886e-11
-1.180000000e-02	2.678554650e-01	-4.898955747e-04	1.092887359e-11
-1.190000000e-02	2.678554671e-01	-4.871822509e-04	7.217769776e-11
-1.200000000e-02	2.678554691e-01	-4.844689271e-04	2.500025580e-11
-1.210000000e-02	2.678554710e-01	-4.817556034e-04	9.650996822e-12
-1.220000000e-02	2.678554728e-01	-4.790422796e-04	6.949359794e-12
-1.230000000e-02	2.678554745e-01	-4.763289559e-04	1.606185769e-11
-1.240000000e-02	2.678554762e-01	-4.736156322e-04	9.627011104e-12
-1.250000000e-02	2.678554778e-01	-4.709023085e-04	2.800498139e-11
-1.260000000e-02	2.678554793e-01	-4.681889848e-04	1.511040834e-11
-1.270000000e-02	2.678554807e-01	-4.654756611e-04	2.552748178e-11
-1.280000000e-02	2.678554820e-01	-4.627623375e-04	4.128405559e-12
-1.290000000e-02	2.678554832e-01	-4.600490139e-04	1.796035688e-11
-1.300000000e-02	2.678554844e-01	-4.573356904e-04	1.170167886e-11
-1.310000000e-02	2.678554855e-01	-4.546223669e-04	8.618168602e-12
-1.320000000e-02	2.678554865e-01	-4.519090435e-04	2.409516169e-11
-1.330000000e-02	2.678554874e-01	-4.491957201e-04	1.026063942e-10
-1.340000000e-02	2.678554882e-01	-4.464823967e-04	7.204191766e-12
-1.350000000e-02	2.678554890e-01	-4.437690735e-04	1.496643276e-10
-1.360000000e-02	2.678554897e-01	-4.410557503e-04	1.641097424e-11
-1.370000000e-02	2.678554902e-01	-4.383424271e-04	6.126060540e-12
-1.380000000e-02	2.678554907e-01	-4.356291041e-04	6.087974705e-11
-1.390000000e-02	2.678554912e-01	-4.329157811e-04	6.216158903e-12
-1.400000000e-02	2.678554915e-01	-4.302024582e-04	2.183452352e-11
-1.410000000e-02	2.678554918e-01	-4.274891354e-04	8.137418492e-12
-1.420000000e-02	2.678554919e-01	-4.247758127e-04	1.167317040e-11
-1.430000000e-02	2.678554920e-01	-4.220624900e-04	3.658297462e-11
-1.440000000e-02	2.678554920e-01	-4.193491675e-04	9.150425938e-12
-1.450000000e-02	2.678554920e-01	-4.166358451e-04	4.704342887e-11
-1.460000000e-02	2.678554918e-01	-4.139225228e-04	2.601364510e-11
-1.470000000e-02	2.678554916e-01	-4.112092006e-04	1.798836269e-11
-1.480000000e-02	2.678554912e-01	-4.084958785e-04	1.541442526e-11
-1.490000000e-02	2.678554908e-01	-4.057825565e-04	3.249519879e-11
-1.500000000e-02	2.678554904e-01	-4.030692347e-04	2.883780664e-11
-1.510000000e-02	2.678554898e-01	-4.003559130e-04	3.715416078e-12
-1.520000000e-02	2.678554891e-01	-3.976425914e-04	3.397950079e-11
-1.530000000e-02	2.678554884e-01	-3.949292700e-04	6.910629692e-11
-1.540000000e-02	2.678554876e-01	-3.922159487e-04	2.756392765e-11
-1.550000000e-02	2.678554867e-01	-3.895026275e-04	9.971670137e-11
-1.560000000e-02	2.678554857e-01	-3.867893065e-04	1.531420617e-11
-1.570000000e-02	2.678554846e-01	-3.840759857e-04	2.539062584e-11
-1.580000000e-02	2.678554835e-01	-3.813626650e-04	2.768623618e-12
-1.590000000e-02	2.678554823e-01	-3.786493444e-04	1.056048228e-11
-1.600000000e-02	2.678554810e-01	-3.759360241e-04	5.131616822e-12
-1.610000000e-02	2.678554796e-01	-3.732227039e-04	9.141573226e-12
-1.620000000e-02	2.678554781e-01	-3.705093839e-04	2.753908773e-11
-1.630000000e-02	2.678554765e-01	-3.677960640e-04	1.506165312e-11
-1.640000000e-02	2.678554749e-01	-3.650827444e-04	8.399323624e-12
-1.650000000e-02	2.678554732e-01	-3.623694249e-04	3.210380490e-12
-1.660000000e-02	2.678554714e-01	-3.596561056e-04	7.931846267e-12
-1.670000000e-02	2.678554695e-01	-3.569427865e-04	1.942678841e-10
-1.680000000e-02	2.678554675e-01	-3.542294677e-04	4.681309372e-11
-1.690000000e-02	2.678554655e-01	-3.515161490e-04	9.604451381e-11
-1.700000000e-02	2.678554633e-01	-3.488028305e-04	5.808463018e-12
-1.710000000e-02	2.678554611e-01	-3.460895122e-04	1.876243165e-11
-1.720000000e-02	2.678554588e-01	-3.433761942e-04	1.584983509e-11
-1.730000000e-02	2.678554564e-01	-3.406628764e-04	2.096272651e-11
-1.740000000e-02	2.678554540e-01	-3.379495588e-04	2.962889946e-11
-1.750000000e-02	2.678554514e-01	-3.352362414e-04	4.091894742e-11
-1.760000000e-02	2.678554488e-01	-3.325229243e-04	9.644015601e-12
-1.770000000e-02	2.678554461e-01	-3.298096074e-04	1.408752279e-11
-1.780000000e-02	2.678554433e-01	-3.270962907e-04	4.896647019e-11
-1.790000000e-02	2.678554404e-01	-3.243829743e-04	4.227419502e-12
-1.800000000e-02	2.678554375e-01	-3.216696581e-04	1.166882057e-11
-1.810000000e-02	2.678554344e-01	-3.189563422e-04	3.479074904e-11
-1.820000000e-02	2.678554313e-01	-3.162430266e-04	1.115440650e-11
-1.830000000e-02	2.678554281e-01	-3.135297112e-04	5.759467144e-11
-1.840000000e-02	2.678554248e-01	-3.108163961e-04	2.442814944e-11
-1.850000000e-02	2.678554214e-01	-3.081030812e-04	2.859719280e-12
-1.860000000e-02	2.678554180e-01	-3.053897667e-04	1.511668065e-11
-1.870000000e-02	2.678554144e-01	-3.026764524e-04	9.154466240e-12
-1.880000000e-02	2.678554108e-01	-2.999631383e-04	1.235325124e-11
-1.890000000e-02	2.678554071e-01	-2.972498246e-04	3.831528180e-12
-1.900000000e-02	2.678554033e-01	-2.945365112e-04	7.927584160e-12
-1.910000000e-02	2.678553995e-01	-2.918231980e-04	3.189180625e-11
-1.920000000e-02	2.678553955e-01	-2.891098852e-04	9.203397868e-12
-1.930000000e-02	2.678553915e-01	-2.863965727e-04	1.082220950e-11
-1.940000000e-02	2.678553874e-01	-2.836832604e-04	1.095732659e-11
-1.950000000e-02	2.678553832e-01	-2.809699485e-04	3.209783883e-11
-1.960000000e-02	2.678553789e-01	-2.782566369e-04	3.866048299e-11
-1.970000000e-02	2.678553746e-01	-2.755433257e-04	4.758284483e-12
-1.980000000e-02	2.678553701e-01	-2.728300147e-04	1.174638228e-11
-1.990000000e-02	2.678553656e-01	-2.701167041e-04	3.232960682e-11
-2.000000000e-02	2.678553610e-01	-2.674033938e-04	8.721032484e-12
-2.010000000e-02	2.678553563e-01	-2.646900838e-04	1.084818955e-11
-2.020000000e-02	2.678553515e-01	-2.619767742e-04	1.214330627e-11
-2.030000000e-02	2.678553467e-01	-2.592634650e-04	7.519338698e-12
-2.040000000e-02	2.678553417e-01	-2.565501560e-04	1.033919426e-11
-2.050000000e-02	2.678553367e-01	-2.538368475e-04	5.914683501e-12
-2.060000000e-02	2.678553316e-01	-2.511235393e-04	1.581622806e-11
-2.070000000e-02	2.678553264e-01	-2.484102314e-04	1.334785818e-11
-2.080000000e-02	2.678553212e-01	-2.456969240e-04	1.261727510e-11
-2.090000000e-02	2.678553158e-01	-2.429836169e-04	2.250918173e-11
-2.100000000e-02	2.678553104e-01	-2.402703101e-04	2.323316252e-11
-2.110000000e-02	2.678553049e-01	-2.375570038e-04	1.833855585e-11
-2.120000000e-02	2.678552993e-01	-2.348436978e-04	1.022573240e-11
-2.130000000e-02	2.678552936e-01	-2.321303922e-04	6.166176459e-12
-2.140000000e-02	2.678552878e-01	-2.294170870e-04	1.599039552e-11
-2.150000000e-02	2.678552820e-01	-2.267037822e-04	4.766136504e-11
-2.160000000e-02	2.678552761e-01	-2.239904779e-04	6.000379184e-12
-2.170000000e-02	2.678552700e-01	-2.212771739e-04	2.813908859e-11
-2.180000000e-02	2.678552640e-01	-2.185638703e-04	1.007876234e-11
-2.190000000e-02	2.678552578e-01	-2.158505671e-04	4.407111622e-11
-2.200000000e-02	2.678552515e-01	-2.131372644e-04	3.271304667e-12
-2.210000000e-02	2.678552452e-01	-2.104239620e-04	2.996361255e-11
-2.220000000e-02	2.678552388e-01	-2.077106601e-04	2.352640076e-11
-2.230000000e-02	2.678552323e-01	-2.049973587e-04	1.490264171e-11
-2.240000000e-02	2.678552257e-01	-2.022840576e-04	2.946523977e-11
-2.250000000e-02	2.678552190e-01	-1.995707570e-04	9.304339242e-12
-2.260000000e-02	2.678552123e-01	-1.968574568e-04	3.137296886e-11
-2.270000000e-02	2.678552054e-01	-1.941441571e-04	7.709455385e-12
-2.280000000e-02	2.678551985e-01	-1.914308579e-04	3.092029803e-11
-2.290000000e-02	2.678551915e-01	-1.887175590e-04	8.291491623e-12
-2.300000000e-02	2.678551844e-01	-1.860042607e-04	8.912559426e-12
-2.310000000e-02	2.678551773e-01	-1.832909628e-04	9.058624569e-12
-2.320000000e-02	2.678551700e-01	-1.805776654e-04	2.233431083e-11
-2.330000000e-02	2.678551627e-01	-1.778643684e-04	1.669104912e-12
-2.340000000e-02	2.678551553e-01	-1.751510719e-04	1.089590828e-11
-2.350000000e-02	2.678551478e-01	-1.724377759e-04	1.816745750e-11
-2.360000000e-02	2.678551402e-01	-1.697244804e-04	1.071643036e-11
-2.370000000e-02	2.678551326e-01	-1.670111854e-04	9.045079338e-12
-2.380000000e-02	2.678551248e-01	-1.642978908e-04	5.790970521e-12
-2.390000000e-02	2.678551170e-01	-1.615845968e-04	9.330107462e-12
-2.400000000e-02	2.678551091e-01	-1.588713032e-04	5.376548758e-11
-2.410000000e-02	2.678551011e-01	-1.561580102e-04	7.278311690e-12
-2.420000000e-02	2.678550931e-01	-1.534447177e-04	1.138733448e-11
-2.430000000e-02	2.678550849e-01	-1.507314257e-04	2.298005862e-11
-2.440000000e-02	2.678550767e-01	-1.480181342e-04	1.150572592e-11
-2.450000000e-02	2.678550684e-01	-1.453048432e-04	1.245636510e-11
-2.460000000e-02	2.678550600e-01	-1.425915527e-04	7.838867677e-12
-2.470000000e-02	2.678550515e-01	-1.398782628e-04	1.242154411e-11
-2.480000000e-02	2.678550429e-01	-1.371649734e-04	2.341231909e-11
-2.490000000e-02	2.678550343e-01	-1.344516845e-04	1.136841128e-11
-2.500000000e-02	2.678550255e-01	-1.317383962e-04	1.279461705e-11
-2.510000000e-02	2.678550167e-01	-1.290251085e-04	5.530031993e-11
-2.520000000e-02	2.678550078e-01	-1.263118212e-04	7.129573402e-12
-2.530000000e-02	2.678549989e-01	-1.235985346e-04	8.103207625e-12
-2.540000000e-02	2.678549898e-01	-1.208852485e-04	1.276349474e-11
-2.550000000e-02	2.678549807e-01	-1.181719629e-04	3.937262190e-12
-2.560000000e-02	2.678549714e-01	-1.154586780e-04	1.050654624e-11
-2.570000000e-02	2.678549621e-01	-1.127453936e-04	7.695690658e-12
-2.580000000e-02	2.678549528e-01	-1.100321097e-04	1.629637276e-11
-2.590000000e-02	2.678549433e-01	-1.073188265e-04	8.663315484e-12
-2.600000000e-02	2.678549337e-01	-1.046055438e-04	1.465284970e-11
-2.610000000e-02	2.678549241e-01	-1.018922617e-04	8.809095386e-12
-2.620000000e-02	2.678549144e-01	-9.917898024e-05	7.852586773e-12
-2.630000000e-02	2.678549046e-01	-9.646569935e-05	3.543975445e-11
-2.640000000e-02	2.678548947e-01	-9.375241906e-05	9.604549430e-12
-2.650000000e-02	2.678548847e-01	-9.103913937e-05	9.769028145e-12
-2.660000000e-02	2.678548747e-01	-8.832586030e-05	4.949202821e-12
-2.670000000e-02	2.678548646e-01	-8.561258183e-05	2.239902174e-11
-2.680000000e-02	2.678548543e-01	-8.289930398e-05	9.577799489e-12
-2.690000000e-02	2.678548441e-01	-8.018602675e-05	5.123735097e-12
-2.700000000e-02	2.678548337e-01	-7.747275015e-05	7.682826650e-12
-2.710000000e-02	2.678548232e-01	-7.475947418e-05	5.264498313e-12
-2.720000000e-02	2.678548127e-01	-7.204619884e-05	7.225879877e-12
-2.730000000e-02	2.678548021e-01	-6.933292413e-05	1.203512708e-11
-2.740000000e-02	2.678547913e-01	-6.661965007e-05	1.492904254e-11
-2.750000000e-02	2.678547806e-01	-6.390637666e-05	9.040190619e-12
-2.760000000e-02	2.678547697e-01	-6.119310390e-05	1.286171143e-11
-2.770000000e-02	2.678547587e-01	-5.847983179e-05	1.937166561e-11
-2.780000000e-02	2.678547477e-01	-5.576656033e-05	1.983543676e-11
-2.790000000e-02	2.678547366e-01	-5.305328954e-05	1.009690788e-11
-2.800000000e-02	2.678547254e-01	-5.034001942e-05	8.324238995e-12
-2.810000000e-02	2.678547141e-01	-4.762674997e-05	1.018116853e-11
-2.820000000e-02	2.678547027e-01	-4.491348120e-05	2.679424880e-11
-2.830000000e-02	2.678546913e-01	-4.220021310e-05	1.902930007e-11
-2.840000000e-02	2.678546798e-01	-3.948694569e-05	2.313104996e-11
-2.850000000e-02	2.678546681e-01	-3.677367896e-05	1.060243276e-11
-2.860000000e-02	2.678546564e-01	-3.406041293e-05	3.042138204e-12
-2.870000000e-02	2.678546447e-01	-3.134714759e-05	1.767456851e-11
-2.880000000e-02	2.678546328e-01	-2.863388296e-05	1.526284888e-11
-2.890000000e-02	2.678546209e-01	-2.592061902e-05	1.364344838e-11
-2.900000000e-02	2.678546088e-01	-2.320735580e-05	6.223496328e-11
-2.910000000e-02	2.678545967e-01	-2.049409329e-05	1.351435480e-11
-2.920000000e-02	2.678545845e-01	-1.778083150e-05	9.514309819e-12
-2.930000000e-02	2.678545723e-01	-1.506757042e-05	7.879928107e-12
-2.940000000e-02	2.678545599e-01	-1.235431007e-05	1.854242417e-11
-2.950000000e-02	2.678545475e-01	-9.641050457e-06	1.663146081e-11
-2.960000000e-02	2.678545350e-01	-6.927791572e-06	2.577556140e-11
-2.970000000e-02	2.678545224e-01	-4.214533425e-06	4.668061694e-11
-2.980000000e-02	2.678545097e-01	-1.501276021e-06	8.209711146e-12
-2.990000000e-02	2.678544969e-01	1.211980638e-06	7.433381826e-12
-3.000000000e-02	2.678544841e-01	3.925236546e-06	2.717655730e-11
