# Im(epsi1)     Re(omega/c)      Im(omega/c)      Eq(det).Opt det CON kz, R=0.5 \mum, mu_c=0.3, Re(epsi1)=3.90solve_det_conkz_vs_kz.py
0.000000000e+00	2.678463480e-01	-8.100303957e-04	1.062957214e-11
-1.000000000e-04	2.678463598e-01	-8.073171672e-04	4.418556119e-11
-2.000000000e-04	2.678463715e-01	-8.046039382e-04	2.741817513e-11
-3.000000000e-04	2.678463831e-01	-8.018907087e-04	1.199142711e-11
-4.000000000e-04	2.678463946e-01	-7.991774787e-04	1.371162426e-11
-5.000000000e-04	2.678464061e-01	-7.964642483e-04	1.311635249e-11
-6.000000000e-04	2.678464175e-01	-7.937510173e-04	3.013334355e-11
-7.000000000e-04	2.678464288e-01	-7.910377859e-04	1.037689320e-11
-8.000000000e-04	2.678464400e-01	-7.883245540e-04	1.815992678e-11
-9.000000000e-04	2.678464511e-01	-7.856113217e-04	2.624876473e-11
-1.000000000e-03	2.678464622e-01	-7.828980889e-04	1.188203661e-11
-1.100000000e-03	2.678464732e-01	-7.801848556e-04	1.324670747e-11
-1.200000000e-03	2.678464841e-01	-7.774716219e-04	2.541755043e-11
-1.300000000e-03	2.678464949e-01	-7.747583878e-04	1.204902811e-11
-1.400000000e-03	2.678465056e-01	-7.720451532e-04	1.905313746e-11
-1.500000000e-03	2.678465162e-01	-7.693319181e-04	1.010482963e-11
-1.600000000e-03	2.678465268e-01	-7.666186827e-04	6.570893251e-12
-1.700000000e-03	2.678465373e-01	-7.639054468e-04	2.967534235e-12
-1.800000000e-03	2.678465477e-01	-7.611922104e-04	7.969753868e-12
-1.900000000e-03	2.678465580e-01	-7.584789737e-04	8.073959033e-12
-2.000000000e-03	2.678465682e-01	-7.557657365e-04	1.284270840e-11
-2.100000000e-03	2.678465783e-01	-7.530524989e-04	1.088936451e-11
-2.200000000e-03	2.678465884e-01	-7.503392609e-04	7.647397060e-12
-2.300000000e-03	2.678465984e-01	-7.476260225e-04	3.290832113e-12
-2.400000000e-03	2.678466083e-01	-7.449127837e-04	4.194093574e-11
-2.500000000e-03	2.678466181e-01	-7.421995445e-04	1.190921574e-11
-2.600000000e-03	2.678466278e-01	-7.394863050e-04	4.096531134e-11
-2.700000000e-03	2.678466375e-01	-7.367730650e-04	1.811059582e-11
-2.800000000e-03	2.678466471e-01	-7.340598246e-04	3.991688866e-11
-2.900000000e-03	2.678466565e-01	-7.313465839e-04	6.955231035e-12
-3.000000000e-03	2.678466659e-01	-7.286333428e-04	1.688773158e-11
-3.100000000e-03	2.678466753e-01	-7.259201013e-04	1.252820354e-11
-3.200000000e-03	2.678466845e-01	-7.232068594e-04	1.075699211e-11
-3.300000000e-03	2.678466937e-01	-7.204936172e-04	1.306819977e-11
-3.400000000e-03	2.678467027e-01	-7.177803746e-04	1.851810829e-11
-3.500000000e-03	2.678467117e-01	-7.150671317e-04	1.330652511e-11
-3.600000000e-03	2.678467206e-01	-7.123538884e-04	3.023779129e-11
-3.700000000e-03	2.678467295e-01	-7.096406448e-04	1.821980336e-11
-3.800000000e-03	2.678467382e-01	-7.069274008e-04	9.279170093e-12
-3.900000000e-03	2.678467469e-01	-7.042141565e-04	2.526729873e-11
-4.000000000e-03	2.678467555e-01	-7.015009119e-04	1.700607348e-11
-4.100000000e-03	2.678467640e-01	-6.987876669e-04	7.142618587e-12
-4.200000000e-03	2.678467724e-01	-6.960744216e-04	5.692805087e-11
-4.300000000e-03	2.678467807e-01	-6.933611760e-04	1.639477289e-11
-4.400000000e-03	2.678467890e-01	-6.906479300e-04	5.452869827e-11
-4.500000000e-03	2.678467971e-01	-6.879346838e-04	1.064958194e-11
-4.600000000e-03	2.678468052e-01	-6.852214372e-04	9.474098236e-12
-4.700000000e-03	2.678468132e-01	-6.825081903e-04	5.840790366e-12
-4.800000000e-03	2.678468211e-01	-6.797949432e-04	1.663882677e-11
-4.900000000e-03	2.678468290e-01	-6.770816957e-04	1.172224143e-11
-5.000000000e-03	2.678468367e-01	-6.743684479e-04	1.560039541e-11
-5.100000000e-03	2.678468444e-01	-6.716551999e-04	2.476575415e-11
-5.200000000e-03	2.678468520e-01	-6.689419516e-04	8.325523313e-12
-5.300000000e-03	2.678468595e-01	-6.662287029e-04	1.006042090e-11
-5.400000000e-03	2.678468669e-01	-6.635154541e-04	2.671814106e-11
-5.500000000e-03	2.678468743e-01	-6.608022049e-04	1.640347731e-11
-5.600000000e-03	2.678468815e-01	-6.580889555e-04	1.687823043e-11
-5.700000000e-03	2.678468887e-01	-6.553757058e-04	2.094139378e-11
-5.800000000e-03	2.678468958e-01	-6.526624558e-04	1.858498742e-11
-5.900000000e-03	2.678469028e-01	-6.499492056e-04	1.078593305e-11
-6.000000000e-03	2.678469098e-01	-6.472359552e-04	1.333182081e-11
-6.100000000e-03	2.678469166e-01	-6.445227045e-04	1.520333525e-11
-6.200000000e-03	2.678469234e-01	-6.418094535e-04	2.590429550e-11
-6.300000000e-03	2.678469301e-01	-6.390962024e-04	1.255471018e-11
-6.400000000e-03	2.678469367e-01	-6.363829509e-04	2.626796234e-11
-6.500000000e-03	2.678469432e-01	-6.336696993e-04	1.560681847e-11
-6.600000000e-03	2.678469496e-01	-6.309564474e-04	1.078738690e-11
-6.700000000e-03	2.678469560e-01	-6.282431953e-04	6.880366023e-12
-6.800000000e-03	2.678469622e-01	-6.255299430e-04	4.659539405e-11
-6.900000000e-03	2.678469684e-01	-6.228166905e-04	9.590123576e-12
-7.000000000e-03	2.678469745e-01	-6.201034378e-04	1.392747110e-11
-7.100000000e-03	2.678469806e-01	-6.173901848e-04	1.837006621e-11
-7.200000000e-03	2.678469865e-01	-6.146769317e-04	1.443642653e-10
-7.300000000e-03	2.678469924e-01	-6.119636783e-04	6.891487611e-12
-7.400000000e-03	2.678469981e-01	-6.092504248e-04	3.165608423e-11
-7.500000000e-03	2.678470038e-01	-6.065371711e-04	2.866446084e-12
-7.600000000e-03	2.678470095e-01	-6.038239172e-04	1.095214358e-11
-7.700000000e-03	2.678470150e-01	-6.011106631e-04	8.055172668e-12
-7.800000000e-03	2.678470204e-01	-5.983974089e-04	1.645211114e-11
-7.900000000e-03	2.678470258e-01	-5.956841544e-04	1.521472224e-11
-8.000000000e-03	2.678470311e-01	-5.929708998e-04	5.516364291e-12
-8.100000000e-03	2.678470363e-01	-5.902576451e-04	8.615007358e-12
-8.200000000e-03	2.678470414e-01	-5.875443902e-04	1.642797406e-11
-8.300000000e-03	2.678470464e-01	-5.848311351e-04	9.885915020e-12
-8.400000000e-03	2.678470514e-01	-5.821178799e-04	1.062666165e-11
-8.500000000e-03	2.678470563e-01	-5.794046245e-04	1.719882970e-11
-8.600000000e-03	2.678470611e-01	-5.766913690e-04	1.455004044e-10
-8.700000000e-03	2.678470658e-01	-5.739781133e-04	2.375019595e-11
-8.800000000e-03	2.678470704e-01	-5.712648576e-04	2.073167977e-11
-8.900000000e-03	2.678470749e-01	-5.685516016e-04	1.079923208e-11
-9.000000000e-03	2.678470794e-01	-5.658383456e-04	1.661908092e-11
-9.100000000e-03	2.678470838e-01	-5.631250894e-04	1.358199782e-11
-9.200000000e-03	2.678470881e-01	-5.604118332e-04	2.395923974e-11
-9.300000000e-03	2.678470923e-01	-5.576985768e-04	2.066751755e-11
-9.400000000e-03	2.678470964e-01	-5.549853203e-04	1.985356030e-11
-9.500000000e-03	2.678471004e-01	-5.522720637e-04	1.787625008e-11
-9.600000000e-03	2.678471044e-01	-5.495588070e-04	2.446358441e-11
-9.700000000e-03	2.678471083e-01	-5.468455502e-04	6.916096392e-12
-9.800000000e-03	2.678471121e-01	-5.441322933e-04	1.824050792e-11
-9.900000000e-03	2.678471158e-01	-5.414190363e-04	1.574881277e-11
-1.000000000e-02	2.678471194e-01	-5.387057792e-04	5.162647335e-11
-1.010000000e-02	2.678471230e-01	-5.359925221e-04	1.545141269e-11
-1.020000000e-02	2.678471265e-01	-5.332792649e-04	1.474171218e-11
-1.030000000e-02	2.678471299e-01	-5.305660076e-04	1.848070324e-11
-1.040000000e-02	2.678471332e-01	-5.278527502e-04	1.580920299e-11
-1.050000000e-02	2.678471364e-01	-5.251394928e-04	1.345431850e-11
-1.060000000e-02	2.678471395e-01	-5.224262353e-04	2.000039192e-11
-1.070000000e-02	2.678471426e-01	-5.197129778e-04	7.396400884e-12
-1.080000000e-02	2.678471456e-01	-5.169997202e-04	7.534053451e-12
-1.090000000e-02	2.678471485e-01	-5.142864625e-04	3.031581388e-11
-1.100000000e-02	2.678471513e-01	-5.115732049e-04	1.985049575e-11
-1.110000000e-02	2.678471540e-01	-5.088599471e-04	1.261218221e-11
-1.120000000e-02	2.678471566e-01	-5.061466894e-04	1.084702396e-11
-1.130000000e-02	2.678471592e-01	-5.034334316e-04	8.972440275e-12
-1.140000000e-02	2.678471617e-01	-5.007201738e-04	1.073516585e-11
-1.150000000e-02	2.678471641e-01	-4.980069160e-04	9.448505688e-12
-1.160000000e-02	2.678471664e-01	-4.952936581e-04	9.086827802e-12
-1.170000000e-02	2.678471686e-01	-4.925804003e-04	2.832256649e-11
-1.180000000e-02	2.678471708e-01	-4.898671424e-04	1.610139936e-11
-1.190000000e-02	2.678471729e-01	-4.871538846e-04	2.028768312e-11
-1.200000000e-02	2.678471748e-01	-4.844406267e-04	8.415224662e-12
-1.210000000e-02	2.678471767e-01	-4.817273688e-04	1.410544945e-11
-1.220000000e-02	2.678471786e-01	-4.790141110e-04	1.399398212e-11
-1.230000000e-02	2.678471803e-01	-4.763008531e-04	9.242683138e-12
-1.240000000e-02	2.678471820e-01	-4.735875953e-04	1.036703579e-11
-1.250000000e-02	2.678471835e-01	-4.708743375e-04	1.886728213e-11
-1.260000000e-02	2.678471850e-01	-4.681610797e-04	4.553325477e-11
-1.270000000e-02	2.678471864e-01	-4.654478219e-04	2.344961703e-11
-1.280000000e-02	2.678471878e-01	-4.627345642e-04	1.986345127e-11
-1.290000000e-02	2.678471890e-01	-4.600213065e-04	1.017343004e-11
-1.300000000e-02	2.678471902e-01	-4.573080489e-04	5.961756056e-11
-1.310000000e-02	2.678471912e-01	-4.545947913e-04	9.767839936e-12
-1.320000000e-02	2.678471922e-01	-4.518815337e-04	1.204510239e-11
-1.330000000e-02	2.678471932e-01	-4.491682762e-04	8.901620490e-12
-1.340000000e-02	2.678471940e-01	-4.464550188e-04	5.111076077e-12
-1.350000000e-02	2.678471947e-01	-4.437417614e-04	3.320201970e-11
-1.360000000e-02	2.678471954e-01	-4.410285041e-04	8.152304719e-12
-1.370000000e-02	2.678471960e-01	-4.383152469e-04	1.212168897e-11
-1.380000000e-02	2.678471965e-01	-4.356019897e-04	7.025771623e-12
-1.390000000e-02	2.678471969e-01	-4.328887326e-04	3.073662125e-11
-1.400000000e-02	2.678471973e-01	-4.301754756e-04	1.096977547e-11
-1.410000000e-02	2.678471975e-01	-4.274622187e-04	1.222156790e-11
-1.420000000e-02	2.678471977e-01	-4.247489619e-04	8.221983375e-12
-1.430000000e-02	2.678471978e-01	-4.220357051e-04	5.746415989e-12
-1.440000000e-02	2.678471978e-01	-4.193224485e-04	2.262518943e-11
-1.450000000e-02	2.678471977e-01	-4.166091920e-04	9.193151036e-12
-1.460000000e-02	2.678471976e-01	-4.138959356e-04	1.494465926e-11
-1.470000000e-02	2.678471973e-01	-4.111826792e-04	6.698690353e-12
-1.480000000e-02	2.678471970e-01	-4.084694231e-04	7.133432227e-12
-1.490000000e-02	2.678471966e-01	-4.057561670e-04	1.235673303e-11
-1.500000000e-02	2.678471961e-01	-4.030429110e-04	9.139830333e-12
-1.510000000e-02	2.678471955e-01	-4.003296552e-04	6.762754754e-11
-1.520000000e-02	2.678471949e-01	-3.976163995e-04	1.328723286e-11
-1.530000000e-02	2.678471942e-01	-3.949031440e-04	8.967146742e-12
-1.540000000e-02	2.678471933e-01	-3.921898886e-04	7.670649714e-12
-1.550000000e-02	2.678471924e-01	-3.894766333e-04	2.277451421e-11
-1.560000000e-02	2.678471915e-01	-3.867633782e-04	1.612621667e-11
-1.570000000e-02	2.678471904e-01	-3.840501233e-04	4.101191244e-11
-1.580000000e-02	2.678471892e-01	-3.813368685e-04	2.425039080e-11
-1.590000000e-02	2.678471880e-01	-3.786236138e-04	1.108620093e-11
-1.600000000e-02	2.678471867e-01	-3.759103594e-04	2.641728294e-11
-1.610000000e-02	2.678471853e-01	-3.731971051e-04	5.721824682e-12
-1.620000000e-02	2.678471838e-01	-3.704838509e-04	1.225667999e-11
-1.630000000e-02	2.678471823e-01	-3.677705970e-04	7.255322361e-12
-1.640000000e-02	2.678471806e-01	-3.650573432e-04	1.850163488e-11
-1.650000000e-02	2.678471789e-01	-3.623440896e-04	1.060481428e-11
-1.660000000e-02	2.678471771e-01	-3.596308363e-04	1.079997738e-11
-1.670000000e-02	2.678471752e-01	-3.569175831e-04	1.066187845e-11
-1.680000000e-02	2.678471733e-01	-3.542043301e-04	1.862675907e-11
-1.690000000e-02	2.678471712e-01	-3.514910773e-04	1.572137503e-11
-1.700000000e-02	2.678471691e-01	-3.487778247e-04	7.808728767e-12
-1.710000000e-02	2.678471669e-01	-3.460645724e-04	1.191980650e-11
-1.720000000e-02	2.678471646e-01	-3.433513202e-04	1.226929822e-11
-1.730000000e-02	2.678471622e-01	-3.406380683e-04	2.353273337e-11
-1.740000000e-02	2.678471597e-01	-3.379248166e-04	8.086775172e-12
-1.750000000e-02	2.678471572e-01	-3.352115651e-04	9.428803793e-12
-1.760000000e-02	2.678471545e-01	-3.324983139e-04	1.724473435e-11
-1.770000000e-02	2.678471518e-01	-3.297850629e-04	1.113898650e-11
-1.780000000e-02	2.678471490e-01	-3.270718121e-04	1.892193626e-11
-1.790000000e-02	2.678471462e-01	-3.243585616e-04	1.621170420e-11
-1.800000000e-02	2.678471432e-01	-3.216453113e-04	1.674789064e-11
-1.810000000e-02	2.678471402e-01	-3.189320613e-04	7.679544402e-11
-1.820000000e-02	2.678471370e-01	-3.162188115e-04	2.203331345e-11
-1.830000000e-02	2.678471338e-01	-3.135055620e-04	1.532193619e-11
-1.840000000e-02	2.678471305e-01	-3.107923128e-04	8.069973212e-12
-1.850000000e-02	2.678471272e-01	-3.080790639e-04	1.956743624e-11
-1.860000000e-02	2.678471237e-01	-3.053658152e-04	1.210690033e-11
-1.870000000e-02	2.678471202e-01	-3.026525668e-04	2.261882119e-11
-1.880000000e-02	2.678471166e-01	-2.999393187e-04	7.483111397e-12
-1.890000000e-02	2.678471129e-01	-2.972260708e-04	1.323137014e-11
-1.900000000e-02	2.678471091e-01	-2.945128233e-04	1.282725817e-11
-1.910000000e-02	2.678471052e-01	-2.917995760e-04	1.750262008e-11
-1.920000000e-02	2.678471013e-01	-2.890863291e-04	1.377674297e-11
-1.930000000e-02	2.678470972e-01	-2.863730825e-04	9.912603022e-12
-1.940000000e-02	2.678470931e-01	-2.836598361e-04	1.538108294e-11
-1.950000000e-02	2.678470889e-01	-2.809465901e-04	1.549303671e-11
-1.960000000e-02	2.678470846e-01	-2.782333444e-04	2.246008622e-11
-1.970000000e-02	2.678470803e-01	-2.755200990e-04	6.055913512e-12
-1.980000000e-02	2.678470758e-01	-2.728068540e-04	1.542727333e-11
-1.990000000e-02	2.678470713e-01	-2.700936092e-04	7.870976323e-12
-2.000000000e-02	2.678470667e-01	-2.673803648e-04	8.794908908e-12
-2.010000000e-02	2.678470620e-01	-2.646671208e-04	1.665499344e-11
-2.020000000e-02	2.678470572e-01	-2.619538771e-04	3.795351430e-11
-2.030000000e-02	2.678470524e-01	-2.592406337e-04	1.156682404e-11
-2.040000000e-02	2.678470475e-01	-2.565273907e-04	3.448373262e-11
-2.050000000e-02	2.678470424e-01	-2.538141480e-04	2.309289010e-11
-2.060000000e-02	2.678470373e-01	-2.511009057e-04	8.263009330e-12
-2.070000000e-02	2.678470321e-01	-2.483876637e-04	1.594531569e-11
-2.080000000e-02	2.678470269e-01	-2.456744222e-04	4.500336207e-12
-2.090000000e-02	2.678470215e-01	-2.429611809e-04	8.391784476e-12
-2.100000000e-02	2.678470161e-01	-2.402479401e-04	1.143456317e-11
-2.110000000e-02	2.678470106e-01	-2.375346997e-04	6.345401008e-12
-2.120000000e-02	2.678470050e-01	-2.348214596e-04	1.178096605e-11
-2.130000000e-02	2.678469993e-01	-2.321082199e-04	8.397203921e-12
-2.140000000e-02	2.678469936e-01	-2.293949806e-04	7.031462374e-12
-2.150000000e-02	2.678469877e-01	-2.266817417e-04	1.033560600e-11
-2.160000000e-02	2.678469818e-01	-2.239685032e-04	4.022258104e-11
-2.170000000e-02	2.678469758e-01	-2.212552651e-04	8.514152883e-12
-2.180000000e-02	2.678469697e-01	-2.185420274e-04	1.873590683e-11
-2.190000000e-02	2.678469635e-01	-2.158287902e-04	7.861561583e-12
-2.200000000e-02	2.678469573e-01	-2.131155533e-04	2.751972926e-11
-2.210000000e-02	2.678469509e-01	-2.104023169e-04	1.722115606e-11
-2.220000000e-02	2.678469445e-01	-2.076890809e-04	1.434275458e-11
-2.230000000e-02	2.678469380e-01	-2.049758453e-04	8.925722883e-12
-2.240000000e-02	2.678469314e-01	-2.022626101e-04	2.025376443e-11
-2.250000000e-02	2.678469247e-01	-1.995493754e-04	9.761157584e-12
-2.260000000e-02	2.678469180e-01	-1.968361411e-04	7.187419634e-12
-2.270000000e-02	2.678469112e-01	-1.941229073e-04	8.714457457e-12
-2.280000000e-02	2.678469042e-01	-1.914096739e-04	4.510538979e-11
-2.290000000e-02	2.678468972e-01	-1.886964410e-04	2.135948522e-11
-2.300000000e-02	2.678468902e-01	-1.859832086e-04	2.968799952e-11
-2.310000000e-02	2.678468830e-01	-1.832699766e-04	3.987129677e-11
-2.320000000e-02	2.678468758e-01	-1.805567450e-04	1.445259756e-11
-2.330000000e-02	2.678468684e-01	-1.778435140e-04	1.368975987e-11
-2.340000000e-02	2.678468610e-01	-1.751302834e-04	1.335884637e-11
-2.350000000e-02	2.678468535e-01	-1.724170533e-04	2.344231766e-11
-2.360000000e-02	2.678468460e-01	-1.697038237e-04	5.991217181e-12
-2.370000000e-02	2.678468383e-01	-1.669905945e-04	6.696650954e-12
-2.380000000e-02	2.678468306e-01	-1.642773659e-04	6.883969442e-12
-2.390000000e-02	2.678468227e-01	-1.615641377e-04	3.267552203e-12
-2.400000000e-02	2.678468148e-01	-1.588509101e-04	6.628335542e-12
-2.410000000e-02	2.678468068e-01	-1.561376829e-04	1.844013403e-11
-2.420000000e-02	2.678467988e-01	-1.534244563e-04	2.155707987e-11
-2.430000000e-02	2.678467906e-01	-1.507112302e-04	2.613482374e-11
-2.440000000e-02	2.678467824e-01	-1.479980046e-04	1.367275174e-11
-2.450000000e-02	2.678467741e-01	-1.452847795e-04	9.314118463e-12
-2.460000000e-02	2.678467657e-01	-1.425715549e-04	1.199818359e-12
-2.470000000e-02	2.678467572e-01	-1.398583309e-04	1.303844853e-11
-2.480000000e-02	2.678467486e-01	-1.371451074e-04	8.563246450e-12
-2.490000000e-02	2.678467400e-01	-1.344318844e-04	1.289874976e-11
-2.500000000e-02	2.678467313e-01	-1.317186620e-04	1.698265726e-11
-2.510000000e-02	2.678467224e-01	-1.290054402e-04	1.786659080e-11
-2.520000000e-02	2.678467136e-01	-1.262922188e-04	1.139599179e-11
-2.530000000e-02	2.678467046e-01	-1.235789981e-04	1.987315392e-11
-2.540000000e-02	2.678466955e-01	-1.208657778e-04	9.978993630e-12
-2.550000000e-02	2.678466864e-01	-1.181525582e-04	4.385893902e-11
-2.560000000e-02	2.678466772e-01	-1.154393391e-04	1.341819378e-11
-2.570000000e-02	2.678466679e-01	-1.127261206e-04	1.214775377e-11
-2.580000000e-02	2.678466585e-01	-1.100129027e-04	1.095997986e-11
-2.590000000e-02	2.678466490e-01	-1.072996853e-04	9.020255914e-12
-2.600000000e-02	2.678466394e-01	-1.045864686e-04	6.069222213e-11
-2.610000000e-02	2.678466298e-01	-1.018732524e-04	3.196609307e-11
-2.620000000e-02	2.678466201e-01	-9.916003678e-05	1.705083334e-11
-2.630000000e-02	2.678466103e-01	-9.644682178e-05	8.068778002e-12
-2.640000000e-02	2.678466004e-01	-9.373360739e-05	7.631022516e-12
-2.650000000e-02	2.678465904e-01	-9.102039360e-05	1.122719518e-11
-2.660000000e-02	2.678465804e-01	-8.830718041e-05	6.642231278e-12
-2.670000000e-02	2.678465703e-01	-8.559396784e-05	1.511304426e-11
-2.680000000e-02	2.678465601e-01	-8.288075589e-05	5.841298736e-12
-2.690000000e-02	2.678465498e-01	-8.016754456e-05	5.031643209e-11
-2.700000000e-02	2.678465394e-01	-7.745433385e-05	2.489253149e-11
-2.710000000e-02	2.678465289e-01	-7.474112377e-05	1.087448163e-11
-2.720000000e-02	2.678465184e-01	-7.202791433e-05	8.785675179e-12
-2.730000000e-02	2.678465078e-01	-6.931470552e-05	3.839695384e-11
-2.740000000e-02	2.678464971e-01	-6.660149735e-05	8.329167896e-12
-2.750000000e-02	2.678464863e-01	-6.388828984e-05	1.008470056e-11
-2.760000000e-02	2.678464754e-01	-6.117508297e-05	1.177199455e-11
-2.770000000e-02	2.678464644e-01	-5.846187675e-05	1.701128456e-11
-2.780000000e-02	2.678464534e-01	-5.574867120e-05	8.211358267e-12
-2.790000000e-02	2.678464423e-01	-5.303546630e-05	9.732529042e-12
-2.800000000e-02	2.678464311e-01	-5.032226208e-05	1.229775788e-11
-2.810000000e-02	2.678464198e-01	-4.760905852e-05	7.813883802e-12
-2.820000000e-02	2.678464084e-01	-4.489585564e-05	2.979428136e-11
-2.830000000e-02	2.678463970e-01	-4.218265344e-05	1.214324088e-11
-2.840000000e-02	2.678463855e-01	-3.946945193e-05	8.804252383e-12
-2.850000000e-02	2.678463738e-01	-3.675625110e-05	3.535828611e-12
-2.860000000e-02	2.678463621e-01	-3.404305096e-05	3.900243800e-11
-2.870000000e-02	2.678463504e-01	-3.132985152e-05	1.021897133e-11
-2.880000000e-02	2.678463385e-01	-2.861665278e-05	9.970934110e-12
-2.890000000e-02	2.678463266e-01	-2.590345474e-05	1.451923270e-11
-2.900000000e-02	2.678463145e-01	-2.319025741e-05	2.217569536e-11
-2.910000000e-02	2.678463024e-01	-2.047706080e-05	4.817806213e-12
-2.920000000e-02	2.678462902e-01	-1.776386490e-05	1.717024886e-11
-2.930000000e-02	2.678462780e-01	-1.505066972e-05	1.041481172e-10
-2.940000000e-02	2.678462656e-01	-1.233747527e-05	1.129516824e-11
-2.950000000e-02	2.678462532e-01	-9.624281551e-06	3.375127476e-11
-2.960000000e-02	2.678462407e-01	-6.911088561e-06	1.128778574e-11
-2.970000000e-02	2.678462281e-01	-4.197896310e-06	2.024668997e-11
-2.980000000e-02	2.678462154e-01	-1.484704800e-06	3.167146743e-11
-2.990000000e-02	2.678462026e-01	1.228485961e-06	1.619646618e-11
-3.000000000e-02	2.678461898e-01	3.941675974e-06	2.868260756e-12
