# Im(epsi1)     Re(omega/c)      Im(omega/c)      Eq(det).Opt det CON kz, R=0.5 \mum, mu_c=0.3, Re(epsi1)=3.90solve_det_conkz_vs_kz.py
0.000000000e+00	2.678474172e-01	-8.100350635e-04	1.967233046e-11
-1.000000000e-04	2.678474290e-01	-8.073218264e-04	1.014588745e-11
-2.000000000e-04	2.678474407e-01	-8.046085889e-04	4.088770148e-11
-3.000000000e-04	2.678474524e-01	-8.018953509e-04	1.062768276e-11
-4.000000000e-04	2.678474639e-01	-7.991821125e-04	1.638913004e-11
-5.000000000e-04	2.678474754e-01	-7.964688735e-04	1.546383945e-11
-6.000000000e-04	2.678474868e-01	-7.937556341e-04	1.139323192e-11
-7.000000000e-04	2.678474981e-01	-7.910423942e-04	4.701554970e-12
-8.000000000e-04	2.678475093e-01	-7.883291538e-04	1.987897203e-11
-9.000000000e-04	2.678475204e-01	-7.856159129e-04	2.147139015e-11
-1.000000000e-03	2.678475315e-01	-7.829026717e-04	7.839470234e-12
-1.100000000e-03	2.678475424e-01	-7.801894299e-04	1.292132585e-11
-1.200000000e-03	2.678475533e-01	-7.774761877e-04	9.443854240e-12
-1.300000000e-03	2.678475641e-01	-7.747629450e-04	1.374077677e-11
-1.400000000e-03	2.678475748e-01	-7.720497020e-04	6.291760569e-12
-1.500000000e-03	2.678475855e-01	-7.693364584e-04	2.506023232e-11
-1.600000000e-03	2.678475960e-01	-7.666232145e-04	1.590168771e-11
-1.700000000e-03	2.678476065e-01	-7.639099701e-04	7.292354877e-12
-1.800000000e-03	2.678476169e-01	-7.611967252e-04	1.784664200e-11
-1.900000000e-03	2.678476272e-01	-7.584834800e-04	1.560702830e-11
-2.000000000e-03	2.678476375e-01	-7.557702343e-04	1.630430573e-11
-2.100000000e-03	2.678476476e-01	-7.530569883e-04	1.553450930e-11
-2.200000000e-03	2.678476577e-01	-7.503437418e-04	1.450799146e-11
-2.300000000e-03	2.678476676e-01	-7.476304949e-04	1.203754644e-11
-2.400000000e-03	2.678476775e-01	-7.449172476e-04	2.002510605e-11
-2.500000000e-03	2.678476874e-01	-7.422039999e-04	9.808939788e-12
-2.600000000e-03	2.678476971e-01	-7.394907518e-04	9.044566429e-12
-2.700000000e-03	2.678477068e-01	-7.367775033e-04	3.986432631e-11
-2.800000000e-03	2.678477163e-01	-7.340642545e-04	1.056663980e-11
-2.900000000e-03	2.678477258e-01	-7.313510053e-04	4.169962854e-11
-3.000000000e-03	2.678477352e-01	-7.286377557e-04	6.759748780e-12
-3.100000000e-03	2.678477445e-01	-7.259245057e-04	7.813214624e-12
-3.200000000e-03	2.678477538e-01	-7.232112553e-04	1.637324306e-11
-3.300000000e-03	2.678477629e-01	-7.204980046e-04	1.283949675e-10
-3.400000000e-03	2.678477720e-01	-7.177847535e-04	1.293772820e-11
-3.500000000e-03	2.678477810e-01	-7.150715021e-04	2.351021653e-11
-3.600000000e-03	2.678477899e-01	-7.123582503e-04	1.046774023e-11
-3.700000000e-03	2.678477987e-01	-7.096449982e-04	6.661793191e-12
-3.800000000e-03	2.678478075e-01	-7.069317457e-04	1.945476549e-11
-3.900000000e-03	2.678478161e-01	-7.042184929e-04	1.460499002e-11
-4.000000000e-03	2.678478247e-01	-7.015052398e-04	1.544408219e-11
-4.100000000e-03	2.678478332e-01	-6.987919863e-04	1.461458994e-11
-4.200000000e-03	2.678478416e-01	-6.960787325e-04	3.006960487e-11
-4.300000000e-03	2.678478500e-01	-6.933654784e-04	8.196947702e-11
-4.400000000e-03	2.678478582e-01	-6.906522240e-04	4.612944835e-11
-4.500000000e-03	2.678478664e-01	-6.879389692e-04	1.880186657e-11
-4.600000000e-03	2.678478745e-01	-6.852257142e-04	1.979021134e-11
-4.700000000e-03	2.678478825e-01	-6.825124588e-04	1.538371981e-11
-4.800000000e-03	2.678478904e-01	-6.797992031e-04	1.131167234e-11
-4.900000000e-03	2.678478982e-01	-6.770859472e-04	3.109701329e-11
-5.000000000e-03	2.678479060e-01	-6.743726909e-04	6.707298452e-12
-5.100000000e-03	2.678479137e-01	-6.716594344e-04	1.805548924e-11
-5.200000000e-03	2.678479213e-01	-6.689461776e-04	1.243640262e-11
-5.300000000e-03	2.678479288e-01	-6.662329205e-04	3.749940029e-11
-5.400000000e-03	2.678479362e-01	-6.635196631e-04	8.326765868e-12
-5.500000000e-03	2.678479435e-01	-6.608064054e-04	2.643555743e-11
-5.600000000e-03	2.678479508e-01	-6.580931475e-04	1.012824474e-11
-5.700000000e-03	2.678479580e-01	-6.553798893e-04	1.211355913e-11
-5.800000000e-03	2.678479651e-01	-6.526666309e-04	2.057835569e-11
-5.900000000e-03	2.678479721e-01	-6.499533722e-04	8.476383802e-12
-6.000000000e-03	2.678479790e-01	-6.472401132e-04	7.035529964e-12
-6.100000000e-03	2.678479859e-01	-6.445268540e-04	1.385470338e-11
-6.200000000e-03	2.678479926e-01	-6.418135946e-04	1.275385085e-11
-6.300000000e-03	2.678479993e-01	-6.391003349e-04	2.099350641e-11
-6.400000000e-03	2.678480059e-01	-6.363870750e-04	8.706209804e-12
-6.500000000e-03	2.678480124e-01	-6.336738149e-04	7.820921891e-11
-6.600000000e-03	2.678480189e-01	-6.309605545e-04	1.707036255e-11
-6.700000000e-03	2.678480252e-01	-6.282472939e-04	6.292796409e-12
-6.800000000e-03	2.678480315e-01	-6.255340331e-04	1.666491467e-11
-6.900000000e-03	2.678480377e-01	-6.228207721e-04	1.443588001e-11
-7.000000000e-03	2.678480438e-01	-6.201075109e-04	8.476057672e-12
-7.100000000e-03	2.678480498e-01	-6.173942494e-04	3.841584050e-11
-7.200000000e-03	2.678480558e-01	-6.146809878e-04	9.263967345e-12
-7.300000000e-03	2.678480616e-01	-6.119677260e-04	7.569627036e-12
-7.400000000e-03	2.678480674e-01	-6.092544640e-04	1.316056791e-11
-7.500000000e-03	2.678480731e-01	-6.065412017e-04	8.906755610e-12
-7.600000000e-03	2.678480787e-01	-6.038279393e-04	6.238456653e-12
-7.700000000e-03	2.678480843e-01	-6.011146768e-04	1.750259732e-11
-7.800000000e-03	2.678480897e-01	-5.984014140e-04	1.018300289e-11
-7.900000000e-03	2.678480951e-01	-5.956881511e-04	1.364523919e-11
-8.000000000e-03	2.678481004e-01	-5.929748880e-04	1.465719155e-11
-8.100000000e-03	2.678481056e-01	-5.902616248e-04	6.201116655e-12
-8.200000000e-03	2.678481107e-01	-5.875483613e-04	1.316845228e-11
-8.300000000e-03	2.678481157e-01	-5.848350978e-04	8.711808422e-12
-8.400000000e-03	2.678481207e-01	-5.821218341e-04	1.134212762e-11
-8.500000000e-03	2.678481255e-01	-5.794085702e-04	8.767093212e-12
-8.600000000e-03	2.678481303e-01	-5.766953062e-04	6.962633193e-12
-8.700000000e-03	2.678481350e-01	-5.739820421e-04	1.217970098e-11
-8.800000000e-03	2.678481397e-01	-5.712687778e-04	1.762115339e-11
-8.900000000e-03	2.678481442e-01	-5.685555134e-04	1.107901652e-11
-9.000000000e-03	2.678481487e-01	-5.658422488e-04	5.277750776e-11
-9.100000000e-03	2.678481530e-01	-5.631289842e-04	7.305756422e-12
-9.200000000e-03	2.678481573e-01	-5.604157194e-04	9.973081442e-12
-9.300000000e-03	2.678481615e-01	-5.577024545e-04	7.553986479e-12
-9.400000000e-03	2.678481657e-01	-5.549891895e-04	3.341765762e-11
-9.500000000e-03	2.678481697e-01	-5.522759244e-04	9.537777118e-12
-9.600000000e-03	2.678481737e-01	-5.495626592e-04	1.007848253e-11
-9.700000000e-03	2.678481776e-01	-5.468493939e-04	1.592708415e-11
-9.800000000e-03	2.678481814e-01	-5.441361285e-04	1.301808518e-11
-9.900000000e-03	2.678481851e-01	-5.414228631e-04	9.152019342e-12
-1.000000000e-02	2.678481887e-01	-5.387095975e-04	1.119093161e-11
-1.010000000e-02	2.678481923e-01	-5.359963319e-04	6.772743416e-12
-1.020000000e-02	2.678481957e-01	-5.332830661e-04	1.087790922e-11
-1.030000000e-02	2.678481991e-01	-5.305698004e-04	1.057382906e-11
-1.040000000e-02	2.678482024e-01	-5.278565345e-04	1.115921645e-11
-1.050000000e-02	2.678482057e-01	-5.251432686e-04	1.604672848e-11
-1.060000000e-02	2.678482088e-01	-5.224300026e-04	9.309836654e-12
-1.070000000e-02	2.678482119e-01	-5.197167366e-04	1.034712577e-11
-1.080000000e-02	2.678482148e-01	-5.170034705e-04	1.411788429e-11
-1.090000000e-02	2.678482177e-01	-5.142902044e-04	5.814357903e-12
-1.100000000e-02	2.678482205e-01	-5.115769382e-04	1.521491689e-11
-1.110000000e-02	2.678482233e-01	-5.088636720e-04	2.117745742e-11
-1.120000000e-02	2.678482259e-01	-5.061504057e-04	1.400278776e-11
-1.130000000e-02	2.678482285e-01	-5.034371395e-04	6.371447605e-12
-1.140000000e-02	2.678482310e-01	-5.007238732e-04	1.912935251e-11
-1.150000000e-02	2.678482334e-01	-4.980106069e-04	2.759572904e-11
-1.160000000e-02	2.678482357e-01	-4.952973405e-04	1.534109902e-11
-1.170000000e-02	2.678482379e-01	-4.925840742e-04	1.267996832e-11
-1.180000000e-02	2.678482401e-01	-4.898708078e-04	4.359128128e-11
-1.190000000e-02	2.678482421e-01	-4.871575414e-04	1.553144084e-11
-1.200000000e-02	2.678482441e-01	-4.844442751e-04	1.442481939e-11
-1.210000000e-02	2.678482460e-01	-4.817310087e-04	1.534291251e-11
-1.220000000e-02	2.678482478e-01	-4.790177424e-04	3.589614236e-11
-1.230000000e-02	2.678482496e-01	-4.763044760e-04	8.770006917e-12
-1.240000000e-02	2.678482512e-01	-4.735912097e-04	7.443128153e-11
-1.250000000e-02	2.678482528e-01	-4.708779434e-04	4.007988377e-12
-1.260000000e-02	2.678482543e-01	-4.681646771e-04	3.301473781e-11
-1.270000000e-02	2.678482557e-01	-4.654514109e-04	6.554639886e-12
-1.280000000e-02	2.678482570e-01	-4.627381446e-04	1.025789419e-11
-1.290000000e-02	2.678482583e-01	-4.600248785e-04	1.348943136e-11
-1.300000000e-02	2.678482594e-01	-4.573116123e-04	1.831726624e-11
-1.310000000e-02	2.678482605e-01	-4.545983462e-04	3.703729854e-11
-1.320000000e-02	2.678482615e-01	-4.518850802e-04	1.022736500e-11
-1.330000000e-02	2.678482624e-01	-4.491718142e-04	1.345956890e-11
-1.340000000e-02	2.678482633e-01	-4.464585483e-04	6.506356685e-11
-1.350000000e-02	2.678482640e-01	-4.437452824e-04	1.045311904e-11
-1.360000000e-02	2.678482647e-01	-4.410320166e-04	1.086487399e-11
-1.370000000e-02	2.678482653e-01	-4.383187508e-04	1.863156996e-11
-1.380000000e-02	2.678482658e-01	-4.356054852e-04	2.342919397e-11
-1.390000000e-02	2.678482662e-01	-4.328922196e-04	7.783236612e-12
-1.400000000e-02	2.678482665e-01	-4.301789541e-04	5.313189950e-12
-1.410000000e-02	2.678482668e-01	-4.274656887e-04	1.040583035e-11
-1.420000000e-02	2.678482670e-01	-4.247524234e-04	1.450404592e-11
-1.430000000e-02	2.678482671e-01	-4.220391581e-04	1.594657463e-11
-1.440000000e-02	2.678482671e-01	-4.193258930e-04	1.045407887e-11
-1.450000000e-02	2.678482670e-01	-4.166126280e-04	1.316867631e-11
-1.460000000e-02	2.678482668e-01	-4.138993631e-04	7.496602829e-12
-1.470000000e-02	2.678482666e-01	-4.111860983e-04	1.058217681e-11
-1.480000000e-02	2.678482663e-01	-4.084728336e-04	2.036481175e-11
-1.490000000e-02	2.678482659e-01	-4.057595690e-04	2.052740437e-11
-1.500000000e-02	2.678482654e-01	-4.030463046e-04	1.882831905e-11
-1.510000000e-02	2.678482648e-01	-4.003330403e-04	9.836176032e-12
-1.520000000e-02	2.678482642e-01	-3.976197761e-04	1.319890152e-11
-1.530000000e-02	2.678482634e-01	-3.949065121e-04	1.070279841e-11
-1.540000000e-02	2.678482626e-01	-3.921932482e-04	1.427902506e-11
-1.550000000e-02	2.678482617e-01	-3.894799844e-04	8.569864635e-12
-1.560000000e-02	2.678482607e-01	-3.867667208e-04	9.255977781e-12
-1.570000000e-02	2.678482597e-01	-3.840534574e-04	3.724356172e-11
-1.580000000e-02	2.678482585e-01	-3.813401941e-04	3.669364011e-11
-1.590000000e-02	2.678482573e-01	-3.786269309e-04	7.348514795e-12
-1.600000000e-02	2.678482560e-01	-3.759136680e-04	2.212267360e-11
-1.610000000e-02	2.678482546e-01	-3.732004052e-04	6.023433836e-11
-1.620000000e-02	2.678482531e-01	-3.704871425e-04	3.068669595e-11
-1.630000000e-02	2.678482516e-01	-3.677738801e-04	2.064570813e-11
-1.640000000e-02	2.678482499e-01	-3.650606179e-04	2.697164334e-11
-1.650000000e-02	2.678482482e-01	-3.623473558e-04	2.947580960e-11
-1.660000000e-02	2.678482464e-01	-3.596340939e-04	2.602053618e-11
-1.670000000e-02	2.678482445e-01	-3.569208322e-04	1.579726795e-11
-1.680000000e-02	2.678482425e-01	-3.542075707e-04	1.595813834e-11
-1.690000000e-02	2.678482405e-01	-3.514943095e-04	2.328153950e-11
-1.700000000e-02	2.678482384e-01	-3.487810484e-04	2.747843899e-11
-1.710000000e-02	2.678482361e-01	-3.460677875e-04	1.285181798e-11
-1.720000000e-02	2.678482338e-01	-3.433545269e-04	1.833774502e-11
-1.730000000e-02	2.678482315e-01	-3.406412665e-04	1.374150653e-11
-1.740000000e-02	2.678482290e-01	-3.379280063e-04	1.195666344e-11
-1.750000000e-02	2.678482264e-01	-3.352147463e-04	4.083358130e-11
-1.760000000e-02	2.678482238e-01	-3.325014866e-04	8.890645407e-12
-1.770000000e-02	2.678482211e-01	-3.297882271e-04	1.246594992e-11
-1.780000000e-02	2.678482183e-01	-3.270749678e-04	9.860823741e-12
-1.790000000e-02	2.678482154e-01	-3.243617088e-04	2.538309861e-11
-1.800000000e-02	2.678482125e-01	-3.216484500e-04	1.074135019e-11
-1.810000000e-02	2.678482094e-01	-3.189351915e-04	2.503772022e-11
-1.820000000e-02	2.678482063e-01	-3.162219333e-04	4.151238987e-11
-1.830000000e-02	2.678482031e-01	-3.135086753e-04	4.899735652e-12
-1.840000000e-02	2.678481998e-01	-3.107954176e-04	3.874875442e-11
-1.850000000e-02	2.678481964e-01	-3.080821601e-04	2.918849184e-11
-1.860000000e-02	2.678481930e-01	-3.053689029e-04	1.163482090e-11
-1.870000000e-02	2.678481895e-01	-3.026556460e-04	8.088248096e-12
-1.880000000e-02	2.678481858e-01	-2.999423894e-04	1.612119213e-11
-1.890000000e-02	2.678481821e-01	-2.972291331e-04	7.186929081e-12
-1.900000000e-02	2.678481783e-01	-2.945158771e-04	5.409273594e-12
-1.910000000e-02	2.678481745e-01	-2.918026213e-04	2.134706685e-11
-1.920000000e-02	2.678481705e-01	-2.890893659e-04	1.335660061e-11
-1.930000000e-02	2.678481665e-01	-2.863761107e-04	1.021223392e-11
-1.940000000e-02	2.678481624e-01	-2.836628559e-04	8.192084080e-12
-1.950000000e-02	2.678481582e-01	-2.809496014e-04	7.865488117e-12
-1.960000000e-02	2.678481539e-01	-2.782363472e-04	6.709273909e-12
-1.970000000e-02	2.678481496e-01	-2.755230933e-04	5.737415316e-11
-1.980000000e-02	2.678481451e-01	-2.728098398e-04	9.868083489e-12
-1.990000000e-02	2.678481406e-01	-2.700965865e-04	7.870627247e-12
-2.000000000e-02	2.678481360e-01	-2.673833337e-04	8.779165744e-12
-2.010000000e-02	2.678481313e-01	-2.646700811e-04	2.513794941e-11
-2.020000000e-02	2.678481265e-01	-2.619568289e-04	1.067940860e-11
-2.030000000e-02	2.678481217e-01	-2.592435770e-04	7.226344753e-12
-2.040000000e-02	2.678481167e-01	-2.565303255e-04	1.140784707e-11
-2.050000000e-02	2.678481117e-01	-2.538170743e-04	7.407333219e-12
-2.060000000e-02	2.678481066e-01	-2.511038235e-04	5.776280776e-12
-2.070000000e-02	2.678481014e-01	-2.483905731e-04	7.621817071e-12
-2.080000000e-02	2.678480962e-01	-2.456773230e-04	3.294571378e-11
-2.090000000e-02	2.678480908e-01	-2.429640733e-04	1.457484397e-11
-2.100000000e-02	2.678480854e-01	-2.402508240e-04	4.479443949e-12
-2.110000000e-02	2.678480799e-01	-2.375375750e-04	7.390662844e-12
-2.120000000e-02	2.678480743e-01	-2.348243265e-04	1.031734745e-11
-2.130000000e-02	2.678480686e-01	-2.321110783e-04	7.737746037e-12
-2.140000000e-02	2.678480628e-01	-2.293978305e-04	3.892231535e-12
-2.150000000e-02	2.678480570e-01	-2.266845831e-04	3.627702188e-11
-2.160000000e-02	2.678480511e-01	-2.239713361e-04	1.438299157e-11
-2.170000000e-02	2.678480451e-01	-2.212580895e-04	4.666728137e-12
-2.180000000e-02	2.678480390e-01	-2.185448433e-04	7.730108477e-12
-2.190000000e-02	2.678480328e-01	-2.158315976e-04	1.337363991e-11
-2.200000000e-02	2.678480265e-01	-2.131183522e-04	1.598056653e-11
-2.210000000e-02	2.678480202e-01	-2.104051073e-04	8.627285137e-12
-2.220000000e-02	2.678480138e-01	-2.076918628e-04	5.230533925e-12
-2.230000000e-02	2.678480073e-01	-2.049786187e-04	2.068594380e-11
-2.240000000e-02	2.678480007e-01	-2.022653751e-04	2.973551273e-11
-2.250000000e-02	2.678479940e-01	-1.995521319e-04	1.164453663e-11
-2.260000000e-02	2.678479873e-01	-1.968388891e-04	9.084150453e-12
-2.270000000e-02	2.678479804e-01	-1.941256468e-04	1.571805436e-11
-2.280000000e-02	2.678479735e-01	-1.914124049e-04	1.274996268e-11
-2.290000000e-02	2.678479665e-01	-1.886991635e-04	1.335609953e-11
-2.300000000e-02	2.678479594e-01	-1.859859225e-04	7.625746433e-12
-2.310000000e-02	2.678479523e-01	-1.832726821e-04	1.284949077e-11
-2.320000000e-02	2.678479450e-01	-1.805594420e-04	1.283833694e-11
-2.330000000e-02	2.678479377e-01	-1.778462025e-04	7.381527010e-12
-2.340000000e-02	2.678479303e-01	-1.751329634e-04	8.863615021e-12
-2.350000000e-02	2.678479228e-01	-1.724197248e-04	9.132616733e-12
-2.360000000e-02	2.678479152e-01	-1.697064867e-04	1.620544731e-11
-2.370000000e-02	2.678479076e-01	-1.669932490e-04	2.496271062e-11
-2.380000000e-02	2.678478998e-01	-1.642800119e-04	5.618809475e-12
-2.390000000e-02	2.678478920e-01	-1.615667753e-04	1.737466822e-11
-2.400000000e-02	2.678478841e-01	-1.588535391e-04	1.895484500e-11
-2.410000000e-02	2.678478761e-01	-1.561403035e-04	1.228619784e-11
-2.420000000e-02	2.678478681e-01	-1.534270683e-04	2.012646478e-11
-2.430000000e-02	2.678478599e-01	-1.507138337e-04	4.736131532e-12
-2.440000000e-02	2.678478517e-01	-1.480005996e-04	1.793000803e-11
-2.450000000e-02	2.678478434e-01	-1.452873660e-04	1.095725366e-11
-2.460000000e-02	2.678478350e-01	-1.425741330e-04	3.505093113e-11
-2.470000000e-02	2.678478265e-01	-1.398609005e-04	7.178983040e-12
-2.480000000e-02	2.678478179e-01	-1.371476685e-04	1.538299364e-11
-2.490000000e-02	2.678478093e-01	-1.344344370e-04	1.789519012e-11
-2.500000000e-02	2.678478005e-01	-1.317212061e-04	8.242885859e-12
-2.510000000e-02	2.678477917e-01	-1.290079757e-04	1.612013382e-11
-2.520000000e-02	2.678477828e-01	-1.262947459e-04	2.330396184e-11
-2.530000000e-02	2.678477739e-01	-1.235815167e-04	9.421570692e-12
-2.540000000e-02	2.678477648e-01	-1.208682880e-04	6.455951666e-11
-2.550000000e-02	2.678477557e-01	-1.181550598e-04	1.047500654e-11
-2.560000000e-02	2.678477464e-01	-1.154418322e-04	9.011291237e-12
-2.570000000e-02	2.678477371e-01	-1.127286052e-04	4.570933259e-11
-2.580000000e-02	2.678477277e-01	-1.100153788e-04	9.771724497e-12
-2.590000000e-02	2.678477183e-01	-1.073021530e-04	1.224023283e-11
-2.600000000e-02	2.678477087e-01	-1.045889277e-04	4.736351861e-11
-2.610000000e-02	2.678476991e-01	-1.018757030e-04	1.509488053e-11
-2.620000000e-02	2.678476894e-01	-9.916247893e-05	7.536393280e-12
-2.630000000e-02	2.678476796e-01	-9.644925543e-05	1.269051750e-11
-2.640000000e-02	2.678476697e-01	-9.373603254e-05	1.627982186e-11
-2.650000000e-02	2.678476597e-01	-9.102281026e-05	1.509102311e-11
-2.660000000e-02	2.678476497e-01	-8.830958858e-05	1.276170938e-11
-2.670000000e-02	2.678476395e-01	-8.559636751e-05	1.724488209e-11
-2.680000000e-02	2.678476293e-01	-8.288314707e-05	6.136155996e-11
-2.690000000e-02	2.678476190e-01	-8.016992724e-05	4.826662947e-12
-2.700000000e-02	2.678476087e-01	-7.745670804e-05	8.011050157e-11
-2.710000000e-02	2.678475982e-01	-7.474348946e-05	8.139465094e-12
-2.720000000e-02	2.678475877e-01	-7.203027152e-05	1.166488220e-11
-2.730000000e-02	2.678475770e-01	-6.931705422e-05	1.517482962e-11
-2.740000000e-02	2.678475663e-01	-6.660383756e-05	1.356857975e-11
-2.750000000e-02	2.678475555e-01	-6.389062155e-05	1.238945163e-11
-2.760000000e-02	2.678475447e-01	-6.117740619e-05	1.961555052e-11
-2.770000000e-02	2.678475337e-01	-5.846419148e-05	1.965651143e-11
-2.780000000e-02	2.678475227e-01	-5.575097743e-05	1.355091636e-11
-2.790000000e-02	2.678475116e-01	-5.303776404e-05	2.032768385e-11
-2.800000000e-02	2.678475004e-01	-5.032455132e-05	1.524542771e-11
-2.810000000e-02	2.678474891e-01	-4.761133927e-05	2.761436880e-11
-2.820000000e-02	2.678474777e-01	-4.489812789e-05	6.797871720e-12
-2.830000000e-02	2.678474663e-01	-4.218491720e-05	7.276027405e-12
-2.840000000e-02	2.678474547e-01	-3.947170719e-05	2.612569531e-11
-2.850000000e-02	2.678474431e-01	-3.675849786e-05	1.337736126e-11
-2.860000000e-02	2.678474314e-01	-3.404528923e-05	1.108105249e-11
-2.870000000e-02	2.678474196e-01	-3.133208129e-05	9.676568083e-12
-2.880000000e-02	2.678474078e-01	-2.861887406e-05	8.947612397e-12
-2.890000000e-02	2.678473958e-01	-2.590566753e-05	1.205804921e-11
-2.900000000e-02	2.678473838e-01	-2.319246171e-05	1.813663444e-11
-2.910000000e-02	2.678473717e-01	-2.047925660e-05	4.268749223e-12
-2.920000000e-02	2.678473595e-01	-1.776605220e-05	1.455900682e-11
-2.930000000e-02	2.678473473e-01	-1.505284853e-05	1.067034253e-11
-2.940000000e-02	2.678473349e-01	-1.233964558e-05	7.243452953e-12
-2.950000000e-02	2.678473225e-01	-9.626443367e-06	7.821955538e-12
-2.960000000e-02	2.678473099e-01	-6.913241884e-06	1.252689675e-11
-2.970000000e-02	2.678472973e-01	-4.200041138e-06	1.881247146e-11
-2.980000000e-02	2.678472847e-01	-1.486841134e-06	7.891422660e-12
-2.990000000e-02	2.678472719e-01	1.226358122e-06	7.228273116e-11
-3.000000000e-02	2.678472590e-01	3.939556631e-06	1.724345567e-11
