# Im(epsi1)     Re(omega/c)      Im(omega/c)      Eq(det).Opt det CON kz, R=0.5 \mum, mu_c=0.3, Re(epsi1)=3.90solve_det_conkz_vs_kz.py
0.000000000e+00	2.678585197e-01	-8.100835308e-04	6.516574503e-11
-1.000000000e-04	2.678585315e-01	-8.073702056e-04	2.233497008e-11
-2.000000000e-04	2.678585432e-01	-8.046568799e-04	1.261271584e-11
-3.000000000e-04	2.678585548e-01	-8.019435537e-04	5.499541679e-12
-4.000000000e-04	2.678585664e-01	-7.992302270e-04	5.955947719e-11
-5.000000000e-04	2.678585778e-01	-7.965168998e-04	8.932981162e-12
-6.000000000e-04	2.678585892e-01	-7.938035722e-04	4.046349790e-12
-7.000000000e-04	2.678586005e-01	-7.910902441e-04	2.374666717e-11
-8.000000000e-04	2.678586117e-01	-7.883769155e-04	1.246672223e-11
-9.000000000e-04	2.678586229e-01	-7.856635865e-04	2.872623638e-12
-1.000000000e-03	2.678586339e-01	-7.829502570e-04	3.089421304e-12
-1.100000000e-03	2.678586449e-01	-7.802369270e-04	1.115617278e-11
-1.200000000e-03	2.678586558e-01	-7.775235966e-04	8.197763399e-12
-1.300000000e-03	2.678586666e-01	-7.748102657e-04	2.361517807e-11
-1.400000000e-03	2.678586773e-01	-7.720969344e-04	1.913930694e-11
-1.500000000e-03	2.678586880e-01	-7.693836027e-04	5.227220551e-13
-1.600000000e-03	2.678586985e-01	-7.666702705e-04	1.293257021e-11
-1.700000000e-03	2.678587090e-01	-7.639569379e-04	5.105778125e-11
-1.800000000e-03	2.678587194e-01	-7.612436049e-04	1.086667750e-11
-1.900000000e-03	2.678587297e-01	-7.585302715e-04	1.963102352e-11
-2.000000000e-03	2.678587399e-01	-7.558169376e-04	1.209910070e-11
-2.100000000e-03	2.678587501e-01	-7.531036033e-04	3.745350960e-12
-2.200000000e-03	2.678587601e-01	-7.503902686e-04	2.254448072e-11
-2.300000000e-03	2.678587701e-01	-7.476769336e-04	6.841765909e-12
-2.400000000e-03	2.678587800e-01	-7.449635981e-04	2.337542842e-11
-2.500000000e-03	2.678587898e-01	-7.422502622e-04	2.827252732e-11
-2.600000000e-03	2.678587996e-01	-7.395369259e-04	1.133828167e-11
-2.700000000e-03	2.678588092e-01	-7.368235892e-04	2.079330616e-11
-2.800000000e-03	2.678588188e-01	-7.341102522e-04	1.203590977e-11
-2.900000000e-03	2.678588283e-01	-7.313969147e-04	6.025439861e-12
-3.000000000e-03	2.678588377e-01	-7.286835769e-04	3.145312087e-12
-3.100000000e-03	2.678588470e-01	-7.259702387e-04	9.014259663e-12
-3.200000000e-03	2.678588563e-01	-7.232569002e-04	4.141091458e-11
-3.300000000e-03	2.678588654e-01	-7.205435613e-04	2.123883929e-11
-3.400000000e-03	2.678588745e-01	-7.178302220e-04	1.637908671e-11
-3.500000000e-03	2.678588835e-01	-7.151168824e-04	7.584952344e-12
-3.600000000e-03	2.678588924e-01	-7.124035424e-04	2.445972371e-11
-3.700000000e-03	2.678589012e-01	-7.096902021e-04	1.937030255e-11
-3.800000000e-03	2.678589100e-01	-7.069768614e-04	4.405374968e-12
-3.900000000e-03	2.678589186e-01	-7.042635204e-04	6.234176567e-12
-4.000000000e-03	2.678589272e-01	-7.015501790e-04	1.662266545e-11
-4.100000000e-03	2.678589357e-01	-6.988368374e-04	4.549670389e-11
-4.200000000e-03	2.678589441e-01	-6.961234954e-04	1.617064889e-11
-4.300000000e-03	2.678589525e-01	-6.934101530e-04	1.394031236e-11
-4.400000000e-03	2.678589607e-01	-6.906968104e-04	2.206558254e-10
-4.500000000e-03	2.678589689e-01	-6.879834675e-04	9.578149283e-12
-4.600000000e-03	2.678589770e-01	-6.852701242e-04	6.710420233e-11
-4.700000000e-03	2.678589850e-01	-6.825567806e-04	1.585877726e-11
-4.800000000e-03	2.678589929e-01	-6.798434368e-04	6.518874418e-12
-4.900000000e-03	2.678590007e-01	-6.771300926e-04	2.849978060e-11
-5.000000000e-03	2.678590085e-01	-6.744167481e-04	3.778819246e-11
-5.100000000e-03	2.678590162e-01	-6.717034034e-04	1.641688528e-11
-5.200000000e-03	2.678590238e-01	-6.689900584e-04	1.270460033e-11
-5.300000000e-03	2.678590313e-01	-6.662767131e-04	6.857170912e-12
-5.400000000e-03	2.678590387e-01	-6.635633675e-04	1.505928987e-11
-5.500000000e-03	2.678590460e-01	-6.608500216e-04	1.015090600e-10
-5.600000000e-03	2.678590533e-01	-6.581366755e-04	9.788841457e-12
-5.700000000e-03	2.678590605e-01	-6.554233291e-04	7.233661660e-12
-5.800000000e-03	2.678590676e-01	-6.527099825e-04	1.061522199e-11
-5.900000000e-03	2.678590746e-01	-6.499966356e-04	1.753545638e-11
-6.000000000e-03	2.678590815e-01	-6.472832884e-04	1.166936610e-11
-6.100000000e-03	2.678590884e-01	-6.445699410e-04	6.140072338e-12
-6.200000000e-03	2.678590951e-01	-6.418565934e-04	7.223070124e-12
-6.300000000e-03	2.678591018e-01	-6.391432455e-04	2.702735388e-11
-6.400000000e-03	2.678591084e-01	-6.364298974e-04	7.483464304e-12
-6.500000000e-03	2.678591150e-01	-6.337165490e-04	1.724105838e-11
-6.600000000e-03	2.678591214e-01	-6.310032005e-04	2.522312036e-11
-6.700000000e-03	2.678591278e-01	-6.282898517e-04	3.768130959e-11
-6.800000000e-03	2.678591340e-01	-6.255765027e-04	5.158724147e-12
-6.900000000e-03	2.678591402e-01	-6.228631534e-04	5.490566287e-12
-7.000000000e-03	2.678591463e-01	-6.201498040e-04	3.068949561e-11
-7.100000000e-03	2.678591524e-01	-6.174364544e-04	7.343599118e-11
-7.200000000e-03	2.678591583e-01	-6.147231045e-04	2.393235169e-11
-7.300000000e-03	2.678591642e-01	-6.120097545e-04	9.142801613e-12
-7.400000000e-03	2.678591699e-01	-6.092964043e-04	1.004736272e-11
-7.500000000e-03	2.678591756e-01	-6.065830539e-04	1.163147092e-11
-7.600000000e-03	2.678591812e-01	-6.038697033e-04	1.370442333e-11
-7.700000000e-03	2.678591868e-01	-6.011563525e-04	1.577693716e-11
-7.800000000e-03	2.678591922e-01	-5.984430015e-04	1.415215058e-11
-7.900000000e-03	2.678591976e-01	-5.957296504e-04	1.119119609e-11
-8.000000000e-03	2.678592029e-01	-5.930162991e-04	4.804495510e-12
-8.100000000e-03	2.678592081e-01	-5.903029477e-04	1.443517576e-11
-8.200000000e-03	2.678592132e-01	-5.875895960e-04	3.279783307e-11
-8.300000000e-03	2.678592182e-01	-5.848762443e-04	4.428724547e-12
-8.400000000e-03	2.678592232e-01	-5.821628923e-04	1.682756522e-12
-8.500000000e-03	2.678592281e-01	-5.794495403e-04	9.861563653e-12
-8.600000000e-03	2.678592329e-01	-5.767361881e-04	8.681471464e-12
-8.700000000e-03	2.678592376e-01	-5.740228357e-04	5.284089698e-12
-8.800000000e-03	2.678592422e-01	-5.713094832e-04	1.066611948e-10
-8.900000000e-03	2.678592467e-01	-5.685961306e-04	1.328269933e-11
-9.000000000e-03	2.678592512e-01	-5.658827779e-04	1.667536754e-11
-9.100000000e-03	2.678592556e-01	-5.631694250e-04	2.133672139e-11
-9.200000000e-03	2.678592599e-01	-5.604560721e-04	1.730559961e-11
-9.300000000e-03	2.678592641e-01	-5.577427190e-04	1.635858681e-11
-9.400000000e-03	2.678592682e-01	-5.550293658e-04	7.781176976e-11
-9.500000000e-03	2.678592723e-01	-5.523160125e-04	1.069411005e-11
-9.600000000e-03	2.678592762e-01	-5.496026591e-04	1.023470053e-11
-9.700000000e-03	2.678592801e-01	-5.468893056e-04	7.929267241e-12
-9.800000000e-03	2.678592839e-01	-5.441759520e-04	8.990229743e-12
-9.900000000e-03	2.678592876e-01	-5.414625983e-04	2.744424660e-11
-1.000000000e-02	2.678592913e-01	-5.387492445e-04	1.999798212e-11
-1.010000000e-02	2.678592948e-01	-5.360358907e-04	1.317454094e-11
-1.020000000e-02	2.678592983e-01	-5.333225367e-04	9.379429878e-12
-1.030000000e-02	2.678593017e-01	-5.306091828e-04	1.738269062e-11
-1.040000000e-02	2.678593050e-01	-5.278958287e-04	1.418904166e-11
-1.050000000e-02	2.678593082e-01	-5.251824746e-04	8.049249421e-12
-1.060000000e-02	2.678593113e-01	-5.224691204e-04	2.023811875e-11
-1.070000000e-02	2.678593144e-01	-5.197557661e-04	7.539978662e-12
-1.080000000e-02	2.678593174e-01	-5.170424119e-04	2.469129820e-11
-1.090000000e-02	2.678593203e-01	-5.143290575e-04	1.090892650e-11
-1.100000000e-02	2.678593231e-01	-5.116157032e-04	2.218356897e-11
-1.110000000e-02	2.678593258e-01	-5.089023487e-04	1.097304466e-11
-1.120000000e-02	2.678593285e-01	-5.061889943e-04	2.312908086e-11
-1.130000000e-02	2.678593310e-01	-5.034756398e-04	4.769806754e-12
-1.140000000e-02	2.678593335e-01	-5.007622853e-04	2.220926972e-11
-1.150000000e-02	2.678593359e-01	-4.980489308e-04	9.806014580e-12
-1.160000000e-02	2.678593382e-01	-4.953355762e-04	2.308134544e-11
-1.170000000e-02	2.678593405e-01	-4.926222217e-04	7.294143626e-12
-1.180000000e-02	2.678593426e-01	-4.899088671e-04	1.210027540e-11
-1.190000000e-02	2.678593447e-01	-4.871955126e-04	1.134901234e-11
-1.200000000e-02	2.678593467e-01	-4.844821580e-04	4.591389429e-11
-1.210000000e-02	2.678593486e-01	-4.817688034e-04	3.554585296e-12
-1.220000000e-02	2.678593504e-01	-4.790554489e-04	2.271889516e-11
-1.230000000e-02	2.678593521e-01	-4.763420943e-04	1.365194497e-10
-1.240000000e-02	2.678593538e-01	-4.736287398e-04	1.864907896e-11
-1.250000000e-02	2.678593554e-01	-4.709153853e-04	2.254209074e-12
-1.260000000e-02	2.678593569e-01	-4.682020308e-04	1.241039909e-11
-1.270000000e-02	2.678593583e-01	-4.654886763e-04	1.153302924e-11
-1.280000000e-02	2.678593596e-01	-4.627753219e-04	5.673087332e-11
-1.290000000e-02	2.678593608e-01	-4.600619675e-04	1.982208444e-11
-1.300000000e-02	2.678593620e-01	-4.573486132e-04	7.181223516e-12
-1.310000000e-02	2.678593631e-01	-4.546352589e-04	1.302283936e-11
-1.320000000e-02	2.678593641e-01	-4.519219046e-04	8.116656302e-12
-1.330000000e-02	2.678593650e-01	-4.492085504e-04	8.185446516e-12
-1.340000000e-02	2.678593658e-01	-4.464951963e-04	1.306707080e-11
-1.350000000e-02	2.678593666e-01	-4.437818422e-04	1.119367392e-11
-1.360000000e-02	2.678593672e-01	-4.410684882e-04	1.061112765e-11
-1.370000000e-02	2.678593678e-01	-4.383551343e-04	1.904597592e-11
-1.380000000e-02	2.678593683e-01	-4.356417804e-04	7.373323419e-12
-1.390000000e-02	2.678593688e-01	-4.329284266e-04	2.255945883e-11
-1.400000000e-02	2.678593691e-01	-4.302150729e-04	1.865855890e-11
-1.410000000e-02	2.678593694e-01	-4.275017193e-04	1.492280225e-11
-1.420000000e-02	2.678593695e-01	-4.247883658e-04	1.236093967e-11
-1.430000000e-02	2.678593696e-01	-4.220750123e-04	5.195893209e-12
-1.440000000e-02	2.678593696e-01	-4.193616590e-04	1.112962038e-11
-1.450000000e-02	2.678593696e-01	-4.166483058e-04	1.080889048e-11
-1.460000000e-02	2.678593694e-01	-4.139349526e-04	6.390597846e-11
-1.470000000e-02	2.678593692e-01	-4.112215996e-04	4.040732097e-11
-1.480000000e-02	2.678593688e-01	-4.085082467e-04	2.881185237e-11
-1.490000000e-02	2.678593684e-01	-4.057948940e-04	3.324498027e-11
-1.500000000e-02	2.678593680e-01	-4.030815413e-04	2.604172134e-11
-1.510000000e-02	2.678593674e-01	-4.003681888e-04	2.685573448e-11
-1.520000000e-02	2.678593667e-01	-3.976548364e-04	2.457030026e-11
-1.530000000e-02	2.678593660e-01	-3.949414842e-04	1.762549625e-11
-1.540000000e-02	2.678593652e-01	-3.922281321e-04	8.008504740e-12
-1.550000000e-02	2.678593643e-01	-3.895147801e-04	4.190453770e-12
-1.560000000e-02	2.678593633e-01	-3.868014283e-04	1.928294294e-11
-1.570000000e-02	2.678593622e-01	-3.840880766e-04	4.229175406e-11
-1.580000000e-02	2.678593611e-01	-3.813747251e-04	5.488636043e-12
-1.590000000e-02	2.678593599e-01	-3.786613738e-04	3.772702825e-11
-1.600000000e-02	2.678593586e-01	-3.759480226e-04	1.510177104e-11
-1.610000000e-02	2.678593572e-01	-3.732346716e-04	9.508003728e-12
-1.620000000e-02	2.678593557e-01	-3.705213208e-04	7.315664377e-12
-1.630000000e-02	2.678593541e-01	-3.678079702e-04	4.054966111e-12
-1.640000000e-02	2.678593525e-01	-3.650946197e-04	1.187482059e-11
-1.650000000e-02	2.678593508e-01	-3.623812694e-04	6.019141495e-12
-1.660000000e-02	2.678593490e-01	-3.596679193e-04	1.567484909e-11
-1.670000000e-02	2.678593471e-01	-3.569545694e-04	1.777393255e-11
-1.680000000e-02	2.678593451e-01	-3.542412198e-04	8.610467371e-12
-1.690000000e-02	2.678593431e-01	-3.515278703e-04	2.324425731e-11
-1.700000000e-02	2.678593409e-01	-3.488145210e-04	1.200029135e-11
-1.710000000e-02	2.678593387e-01	-3.461011719e-04	2.483658515e-11
-1.720000000e-02	2.678593364e-01	-3.433878231e-04	3.828411612e-11
-1.730000000e-02	2.678593340e-01	-3.406744744e-04	8.225027522e-12
-1.740000000e-02	2.678593316e-01	-3.379611260e-04	1.172880005e-11
-1.750000000e-02	2.678593290e-01	-3.352477779e-04	1.131785207e-11
-1.760000000e-02	2.678593264e-01	-3.325344299e-04	1.895535897e-11
-1.770000000e-02	2.678593237e-01	-3.298210822e-04	5.317434581e-11
-1.780000000e-02	2.678593209e-01	-3.271077347e-04	1.448488143e-11
-1.790000000e-02	2.678593180e-01	-3.243943875e-04	1.650531039e-11
-1.800000000e-02	2.678593151e-01	-3.216810406e-04	1.382247833e-11
-1.810000000e-02	2.678593120e-01	-3.189676938e-04	1.000991906e-11
-1.820000000e-02	2.678593089e-01	-3.162543474e-04	1.611116768e-11
-1.830000000e-02	2.678593057e-01	-3.135410012e-04	1.489622240e-11
-1.840000000e-02	2.678593024e-01	-3.108276553e-04	4.849212490e-11
-1.850000000e-02	2.678592990e-01	-3.081143096e-04	1.272682986e-11
-1.860000000e-02	2.678592956e-01	-3.054009642e-04	1.253748178e-11
-1.870000000e-02	2.678592920e-01	-3.026876191e-04	3.416329312e-12
-1.880000000e-02	2.678592884e-01	-2.999742743e-04	1.756308460e-11
-1.890000000e-02	2.678592847e-01	-2.972609298e-04	1.386449710e-10
-1.900000000e-02	2.678592809e-01	-2.945475855e-04	1.236026402e-11
-1.910000000e-02	2.678592771e-01	-2.918342416e-04	1.085799894e-11
-1.920000000e-02	2.678592731e-01	-2.891208979e-04	2.580065825e-11
-1.930000000e-02	2.678592691e-01	-2.864075546e-04	2.497888057e-11
-1.940000000e-02	2.678592650e-01	-2.836942116e-04	3.931070928e-12
-1.950000000e-02	2.678592608e-01	-2.809808688e-04	5.047415088e-12
-1.960000000e-02	2.678592565e-01	-2.782675264e-04	6.746774050e-12
-1.970000000e-02	2.678592522e-01	-2.755541843e-04	1.155407062e-11
-1.980000000e-02	2.678592477e-01	-2.728408426e-04	2.685671184e-11
-1.990000000e-02	2.678592432e-01	-2.701275011e-04	1.992222577e-11
-2.000000000e-02	2.678592386e-01	-2.674141600e-04	3.950500731e-12
-2.010000000e-02	2.678592339e-01	-2.647008193e-04	1.446470916e-11
-2.020000000e-02	2.678592291e-01	-2.619874789e-04	1.299925003e-11
-2.030000000e-02	2.678592243e-01	-2.592741388e-04	4.714072596e-12
-2.040000000e-02	2.678592193e-01	-2.565607991e-04	6.378283063e-12
-2.050000000e-02	2.678592143e-01	-2.538474597e-04	1.148693147e-11
-2.060000000e-02	2.678592092e-01	-2.511341207e-04	9.402895362e-12
-2.070000000e-02	2.678592040e-01	-2.484207820e-04	1.374562253e-11
-2.080000000e-02	2.678591988e-01	-2.457074438e-04	1.178685609e-11
-2.090000000e-02	2.678591934e-01	-2.429941058e-04	1.740103241e-11
-2.100000000e-02	2.678591880e-01	-2.402807683e-04	8.229600900e-12
-2.110000000e-02	2.678591825e-01	-2.375674311e-04	1.373958624e-11
-2.120000000e-02	2.678591769e-01	-2.348540944e-04	4.896792567e-11
-2.130000000e-02	2.678591712e-01	-2.321407580e-04	1.906758656e-11
-2.140000000e-02	2.678591654e-01	-2.294274220e-04	2.087059343e-11
-2.150000000e-02	2.678591596e-01	-2.267140864e-04	1.606070183e-11
-2.160000000e-02	2.678591537e-01	-2.240007512e-04	4.614125653e-12
-2.170000000e-02	2.678591477e-01	-2.212874164e-04	1.125899234e-11
-2.180000000e-02	2.678591416e-01	-2.185740820e-04	4.098842718e-11
-2.190000000e-02	2.678591354e-01	-2.158607480e-04	1.056407792e-11
-2.200000000e-02	2.678591291e-01	-2.131474145e-04	4.272964979e-12
-2.210000000e-02	2.678591228e-01	-2.104340813e-04	2.172199908e-11
-2.220000000e-02	2.678591164e-01	-2.077207486e-04	9.242861491e-12
-2.230000000e-02	2.678591099e-01	-2.050074163e-04	1.603617784e-11
-2.240000000e-02	2.678591033e-01	-2.022940845e-04	9.770544120e-12
-2.250000000e-02	2.678590966e-01	-1.995807531e-04	2.134472691e-11
-2.260000000e-02	2.678590899e-01	-1.968674221e-04	1.720259655e-11
-2.270000000e-02	2.678590831e-01	-1.941540916e-04	5.572617647e-12
-2.280000000e-02	2.678590761e-01	-1.914407615e-04	3.032066181e-11
-2.290000000e-02	2.678590691e-01	-1.887274319e-04	1.951554125e-11
-2.300000000e-02	2.678590621e-01	-1.860141027e-04	5.112474022e-12
-2.310000000e-02	2.678590549e-01	-1.833007740e-04	6.419980666e-12
-2.320000000e-02	2.678590477e-01	-1.805874458e-04	3.275827168e-12
-2.330000000e-02	2.678590403e-01	-1.778741180e-04	1.515878696e-11
-2.340000000e-02	2.678590329e-01	-1.751607907e-04	3.045226809e-11
-2.350000000e-02	2.678590254e-01	-1.724474639e-04	1.280747649e-11
-2.360000000e-02	2.678590179e-01	-1.697341376e-04	1.420718256e-11
-2.370000000e-02	2.678590102e-01	-1.670208117e-04	6.400057545e-12
-2.380000000e-02	2.678590025e-01	-1.643074864e-04	1.269631453e-11
-2.390000000e-02	2.678589946e-01	-1.615941615e-04	1.673465376e-12
-2.400000000e-02	2.678589867e-01	-1.588808372e-04	2.235438852e-11
-2.410000000e-02	2.678589787e-01	-1.561675133e-04	2.297814049e-11
-2.420000000e-02	2.678589707e-01	-1.534541900e-04	1.306487078e-11
-2.430000000e-02	2.678589625e-01	-1.507408672e-04	1.583268453e-11
-2.440000000e-02	2.678589543e-01	-1.480275449e-04	7.995062702e-11
-2.450000000e-02	2.678589460e-01	-1.453142231e-04	1.797832296e-11
-2.460000000e-02	2.678589376e-01	-1.426009018e-04	1.526856792e-11
-2.470000000e-02	2.678589291e-01	-1.398875811e-04	5.716493550e-12
-2.480000000e-02	2.678589205e-01	-1.371742609e-04	1.756724934e-11
-2.490000000e-02	2.678589119e-01	-1.344609412e-04	5.686334715e-12
-2.500000000e-02	2.678589032e-01	-1.317476221e-04	2.818070778e-11
-2.510000000e-02	2.678588944e-01	-1.290343035e-04	9.415355680e-12
-2.520000000e-02	2.678588855e-01	-1.263209855e-04	6.881246529e-11
-2.530000000e-02	2.678588765e-01	-1.236076680e-04	1.387215721e-11
-2.540000000e-02	2.678588674e-01	-1.208943511e-04	6.125932827e-12
-2.550000000e-02	2.678588583e-01	-1.181810348e-04	1.693797302e-11
-2.560000000e-02	2.678588491e-01	-1.154677190e-04	1.033470305e-11
-2.570000000e-02	2.678588398e-01	-1.127544038e-04	1.017890257e-11
-2.580000000e-02	2.678588304e-01	-1.100410891e-04	9.235384069e-12
-2.590000000e-02	2.678588209e-01	-1.073277751e-04	8.281334589e-12
-2.600000000e-02	2.678588114e-01	-1.046144616e-04	1.771263320e-10
-2.610000000e-02	2.678588017e-01	-1.019011487e-04	1.499853789e-11
-2.620000000e-02	2.678587920e-01	-9.918783641e-05	1.633019870e-11
-2.630000000e-02	2.678587822e-01	-9.647452471e-05	8.891403780e-12
-2.640000000e-02	2.678587723e-01	-9.376121361e-05	6.059953985e-12
-2.650000000e-02	2.678587624e-01	-9.104790312e-05	8.546530997e-11
-2.660000000e-02	2.678587523e-01	-8.833459323e-05	1.048737843e-11
-2.670000000e-02	2.678587422e-01	-8.562128396e-05	6.312919879e-12
-2.680000000e-02	2.678587320e-01	-8.290797530e-05	2.939625687e-12
-2.690000000e-02	2.678587217e-01	-8.019466726e-05	1.782436568e-11
-2.700000000e-02	2.678587113e-01	-7.748135985e-05	2.434460243e-11
-2.710000000e-02	2.678587008e-01	-7.476805307e-05	1.073496219e-11
-2.720000000e-02	2.678586903e-01	-7.205474692e-05	1.515221518e-11
-2.730000000e-02	2.678586797e-01	-6.934144141e-05	2.661879806e-11
-2.740000000e-02	2.678586690e-01	-6.662813654e-05	9.786762044e-12
-2.750000000e-02	2.678586582e-01	-6.391483232e-05	1.767098464e-11
-2.760000000e-02	2.678586473e-01	-6.120152875e-05	1.793726807e-11
-2.770000000e-02	2.678586364e-01	-5.848822583e-05	9.009924743e-12
-2.780000000e-02	2.678586253e-01	-5.577492357e-05	2.701164162e-11
-2.790000000e-02	2.678586142e-01	-5.306162197e-05	1.874035269e-11
-2.800000000e-02	2.678586030e-01	-5.034832104e-05	2.286262872e-11
-2.810000000e-02	2.678585917e-01	-4.763502079e-05	1.189107546e-11
-2.820000000e-02	2.678585804e-01	-4.492172120e-05	1.718067640e-11
-2.830000000e-02	2.678585689e-01	-4.220842230e-05	9.613393100e-12
-2.840000000e-02	2.678585574e-01	-3.949512408e-05	9.122052454e-12
-2.850000000e-02	2.678585458e-01	-3.678182654e-05	1.114118586e-11
-2.860000000e-02	2.678585341e-01	-3.406852970e-05	1.903123379e-11
-2.870000000e-02	2.678585223e-01	-3.135523356e-05	2.248397730e-11
-2.880000000e-02	2.678585104e-01	-2.864193811e-05	3.041113864e-11
-2.890000000e-02	2.678584985e-01	-2.592864337e-05	1.210325744e-11
-2.900000000e-02	2.678584865e-01	-2.321534934e-05	1.235398105e-11
-2.910000000e-02	2.678584744e-01	-2.050205602e-05	6.248300984e-12
-2.920000000e-02	2.678584622e-01	-1.778876342e-05	1.382051503e-11
-2.930000000e-02	2.678584499e-01	-1.507547154e-05	5.873730925e-12
-2.940000000e-02	2.678584375e-01	-1.236218038e-05	1.461665783e-11
-2.950000000e-02	2.678584251e-01	-9.648889953e-06	1.282228743e-11
-2.960000000e-02	2.678584126e-01	-6.935600261e-06	8.426882277e-12
-2.970000000e-02	2.678584000e-01	-4.222311305e-06	1.687446773e-11
-2.980000000e-02	2.678583873e-01	-1.509023092e-06	1.255180002e-11
-2.990000000e-02	2.678583745e-01	1.204264375e-06	1.904037600e-11
-3.000000000e-02	2.678583617e-01	3.917551091e-06	1.151108007e-11
