# Im(epsi1)     Re(omega/c)      Im(omega/c)      Eq(det).Opt det CON kz, R=0.5 \mum, mu_c=0.3, Re(epsi1)=3.90solve_det_conkz_vs_kz.py
0.000000000e+00	2.678602260e-01	-8.100909798e-04	1.536613984e-11
-1.000000000e-04	2.678602378e-01	-8.073776410e-04	1.356350996e-10
-2.000000000e-04	2.678602495e-01	-8.046643018e-04	9.981258213e-12
-3.000000000e-04	2.678602611e-01	-8.019509620e-04	3.288139501e-12
-4.000000000e-04	2.678602727e-01	-7.992376218e-04	1.229287125e-11
-5.000000000e-04	2.678602841e-01	-7.965242811e-04	9.732213706e-12
-6.000000000e-04	2.678602955e-01	-7.938109399e-04	4.764084378e-12
-7.000000000e-04	2.678603068e-01	-7.910975982e-04	3.249109103e-11
-8.000000000e-04	2.678603180e-01	-7.883842561e-04	5.815749889e-12
-9.000000000e-04	2.678603292e-01	-7.856709135e-04	1.016938708e-11
-1.000000000e-03	2.678603402e-01	-7.829575704e-04	9.437696190e-11
-1.100000000e-03	2.678603512e-01	-7.802442269e-04	2.483095136e-11
-1.200000000e-03	2.678603621e-01	-7.775308829e-04	1.875348526e-11
-1.300000000e-03	2.678603729e-01	-7.748175385e-04	9.749592676e-12
-1.400000000e-03	2.678603836e-01	-7.721041937e-04	4.930500919e-12
-1.500000000e-03	2.678603943e-01	-7.693908484e-04	2.090005061e-11
-1.600000000e-03	2.678604048e-01	-7.666775027e-04	1.169252113e-11
-1.700000000e-03	2.678604153e-01	-7.639641565e-04	3.665168615e-12
-1.800000000e-03	2.678604257e-01	-7.612508099e-04	4.573426690e-11
-1.900000000e-03	2.678604360e-01	-7.585374629e-04	1.902132243e-11
-2.000000000e-03	2.678604462e-01	-7.558241155e-04	1.513805090e-11
-2.100000000e-03	2.678604564e-01	-7.531107677e-04	1.302442076e-11
-2.200000000e-03	2.678604665e-01	-7.503974194e-04	1.098225445e-11
-2.300000000e-03	2.678604764e-01	-7.476840708e-04	5.052704327e-11
-2.400000000e-03	2.678604863e-01	-7.449707217e-04	2.463795978e-11
-2.500000000e-03	2.678604962e-01	-7.422573723e-04	1.177365689e-11
-2.600000000e-03	2.678605059e-01	-7.395440224e-04	6.326770050e-12
-2.700000000e-03	2.678605155e-01	-7.368306722e-04	2.280064579e-11
-2.800000000e-03	2.678605251e-01	-7.341173216e-04	1.133250195e-11
-2.900000000e-03	2.678605346e-01	-7.314039706e-04	1.201557210e-11
-3.000000000e-03	2.678605440e-01	-7.286906192e-04	1.739990658e-11
-3.100000000e-03	2.678605533e-01	-7.259772675e-04	9.524656981e-12
-3.200000000e-03	2.678605626e-01	-7.232639154e-04	1.350893656e-11
-3.300000000e-03	2.678605717e-01	-7.205505629e-04	6.782937023e-12
-3.400000000e-03	2.678605808e-01	-7.178372101e-04	1.993679201e-12
-3.500000000e-03	2.678605898e-01	-7.151238569e-04	1.258206248e-11
-3.600000000e-03	2.678605987e-01	-7.124105034e-04	1.254502413e-11
-3.700000000e-03	2.678606075e-01	-7.096971495e-04	2.768986308e-11
-3.800000000e-03	2.678606163e-01	-7.069837953e-04	1.082477794e-11
-3.900000000e-03	2.678606249e-01	-7.042704407e-04	6.450953553e-12
-4.000000000e-03	2.678606335e-01	-7.015570858e-04	1.211830046e-11
-4.100000000e-03	2.678606420e-01	-6.988437306e-04	8.861309250e-12
-4.200000000e-03	2.678606504e-01	-6.961303750e-04	1.202607854e-11
-4.300000000e-03	2.678606588e-01	-6.934170191e-04	1.823280439e-11
-4.400000000e-03	2.678606670e-01	-6.907036629e-04	2.415337457e-11
-4.500000000e-03	2.678606752e-01	-6.879903064e-04	3.592910056e-12
-4.600000000e-03	2.678606833e-01	-6.852769496e-04	3.978011312e-12
-4.700000000e-03	2.678606913e-01	-6.825635925e-04	8.210360786e-12
-4.800000000e-03	2.678606992e-01	-6.798502351e-04	1.155490863e-11
-4.900000000e-03	2.678607071e-01	-6.771368774e-04	1.976673400e-11
-5.000000000e-03	2.678607148e-01	-6.744235193e-04	1.865776072e-11
-5.100000000e-03	2.678607225e-01	-6.717101610e-04	1.741882189e-11
-5.200000000e-03	2.678607301e-01	-6.689968025e-04	1.780115243e-11
-5.300000000e-03	2.678607376e-01	-6.662834436e-04	1.534766593e-11
-5.400000000e-03	2.678607450e-01	-6.635700845e-04	2.752407237e-11
-5.500000000e-03	2.678607524e-01	-6.608567250e-04	1.097544316e-11
-5.600000000e-03	2.678607596e-01	-6.581433654e-04	9.353585397e-12
-5.700000000e-03	2.678607668e-01	-6.554300054e-04	8.708816409e-12
-5.800000000e-03	2.678607739e-01	-6.527166452e-04	1.004528178e-11
-5.900000000e-03	2.678607809e-01	-6.500032848e-04	3.147847023e-12
-6.000000000e-03	2.678607878e-01	-6.472899240e-04	9.819468043e-12
-6.100000000e-03	2.678607947e-01	-6.445765631e-04	1.562242815e-11
-6.200000000e-03	2.678608015e-01	-6.418632019e-04	1.140898730e-11
-6.300000000e-03	2.678608082e-01	-6.391498405e-04	2.875738566e-11
-6.400000000e-03	2.678608148e-01	-6.364364788e-04	1.533601559e-11
-6.500000000e-03	2.678608213e-01	-6.337231169e-04	2.687880886e-11
-6.600000000e-03	2.678608277e-01	-6.310097548e-04	7.481030170e-12
-6.700000000e-03	2.678608341e-01	-6.282963924e-04	1.293091927e-11
-6.800000000e-03	2.678608403e-01	-6.255830298e-04	2.877945134e-11
-6.900000000e-03	2.678608465e-01	-6.228696671e-04	1.695046235e-11
-7.000000000e-03	2.678608526e-01	-6.201563041e-04	1.124662323e-11
-7.100000000e-03	2.678608587e-01	-6.174429409e-04	1.242094103e-11
-7.200000000e-03	2.678608646e-01	-6.147295775e-04	5.661612443e-11
-7.300000000e-03	2.678608705e-01	-6.120162139e-04	6.676880552e-11
-7.400000000e-03	2.678608763e-01	-6.093028501e-04	2.205389326e-11
-7.500000000e-03	2.678608819e-01	-6.065894862e-04	6.266133094e-12
-7.600000000e-03	2.678608876e-01	-6.038761220e-04	2.616085125e-12
-7.700000000e-03	2.678608931e-01	-6.011627577e-04	2.178378922e-11
-7.800000000e-03	2.678608985e-01	-5.984493932e-04	4.277077100e-11
-7.900000000e-03	2.678609039e-01	-5.957360285e-04	2.074525962e-11
-8.000000000e-03	2.678609092e-01	-5.930226636e-04	9.644569326e-12
-8.100000000e-03	2.678609144e-01	-5.903092986e-04	1.315055385e-11
-8.200000000e-03	2.678609195e-01	-5.875959334e-04	2.923822086e-11
-8.300000000e-03	2.678609246e-01	-5.848825681e-04	1.179262465e-12
-8.400000000e-03	2.678609295e-01	-5.821692026e-04	7.384831175e-11
-8.500000000e-03	2.678609344e-01	-5.794558370e-04	7.569879238e-12
-8.600000000e-03	2.678609392e-01	-5.767424712e-04	1.163318552e-11
-8.700000000e-03	2.678609439e-01	-5.740291053e-04	1.390862759e-11
-8.800000000e-03	2.678609485e-01	-5.713157393e-04	2.649461967e-12
-8.900000000e-03	2.678609530e-01	-5.686023731e-04	3.691464006e-11
-9.000000000e-03	2.678609575e-01	-5.658890068e-04	2.243197430e-11
-9.100000000e-03	2.678609619e-01	-5.631756404e-04	1.675085291e-11
-9.200000000e-03	2.678609662e-01	-5.604622739e-04	2.622817888e-11
-9.300000000e-03	2.678609704e-01	-5.577489072e-04	2.065533279e-11
-9.400000000e-03	2.678609745e-01	-5.550355405e-04	8.742472072e-12
-9.500000000e-03	2.678609786e-01	-5.523221736e-04	1.302186495e-11
-9.600000000e-03	2.678609825e-01	-5.496088067e-04	5.616412281e-12
-9.700000000e-03	2.678609864e-01	-5.468954396e-04	5.247344929e-11
-9.800000000e-03	2.678609902e-01	-5.441820724e-04	1.908151020e-11
-9.900000000e-03	2.678609939e-01	-5.414687052e-04	1.152005769e-11
-1.000000000e-02	2.678609976e-01	-5.387553379e-04	1.146198785e-11
-1.010000000e-02	2.678610011e-01	-5.360419705e-04	1.816660422e-11
-1.020000000e-02	2.678610046e-01	-5.333286030e-04	1.082919163e-11
-1.030000000e-02	2.678610080e-01	-5.306152355e-04	1.193935566e-11
-1.040000000e-02	2.678610113e-01	-5.279018678e-04	1.763199858e-11
-1.050000000e-02	2.678610145e-01	-5.251885002e-04	9.923952110e-12
-1.060000000e-02	2.678610177e-01	-5.224751324e-04	7.978123646e-12
-1.070000000e-02	2.678610207e-01	-5.197617646e-04	2.359790985e-11
-1.080000000e-02	2.678610237e-01	-5.170483968e-04	1.119924337e-11
-1.090000000e-02	2.678610266e-01	-5.143350289e-04	4.614497392e-12
-1.100000000e-02	2.678610294e-01	-5.116216610e-04	2.429507056e-11
-1.110000000e-02	2.678610321e-01	-5.089082930e-04	1.374818924e-11
-1.120000000e-02	2.678610348e-01	-5.061949250e-04	2.466699479e-11
-1.130000000e-02	2.678610373e-01	-5.034815569e-04	1.111354092e-11
-1.140000000e-02	2.678610398e-01	-5.007681889e-04	6.885491465e-11
-1.150000000e-02	2.678610422e-01	-4.980548208e-04	2.784246834e-11
-1.160000000e-02	2.678610445e-01	-4.953414527e-04	3.736977041e-11
-1.170000000e-02	2.678610468e-01	-4.926280846e-04	8.407189583e-12
-1.180000000e-02	2.678610489e-01	-4.899147165e-04	1.481922837e-11
-1.190000000e-02	2.678610510e-01	-4.872013483e-04	9.914195026e-12
-1.200000000e-02	2.678610530e-01	-4.844879802e-04	2.408286557e-11
-1.210000000e-02	2.678610549e-01	-4.817746121e-04	9.737243256e-12
-1.220000000e-02	2.678610567e-01	-4.790612440e-04	1.382660128e-11
-1.230000000e-02	2.678610585e-01	-4.763478759e-04	9.805685663e-12
-1.240000000e-02	2.678610601e-01	-4.736345078e-04	4.304033985e-12
-1.250000000e-02	2.678610617e-01	-4.709211397e-04	1.243703441e-11
-1.260000000e-02	2.678610632e-01	-4.682077717e-04	1.235972783e-11
-1.270000000e-02	2.678610646e-01	-4.654944037e-04	1.114059980e-11
-1.280000000e-02	2.678610659e-01	-4.627810357e-04	2.772992692e-11
-1.290000000e-02	2.678610672e-01	-4.600676677e-04	1.537355416e-11
-1.300000000e-02	2.678610683e-01	-4.573542998e-04	3.981509360e-12
-1.310000000e-02	2.678610694e-01	-4.546409320e-04	1.319744439e-11
-1.320000000e-02	2.678610704e-01	-4.519275642e-04	2.160323394e-11
-1.330000000e-02	2.678610713e-01	-4.492141964e-04	6.673233011e-11
-1.340000000e-02	2.678610722e-01	-4.465008287e-04	1.695873744e-11
-1.350000000e-02	2.678610729e-01	-4.437874611e-04	1.922721413e-11
-1.360000000e-02	2.678610736e-01	-4.410740935e-04	1.877493000e-11
-1.370000000e-02	2.678610742e-01	-4.383607260e-04	1.067371344e-11
-1.380000000e-02	2.678610747e-01	-4.356473586e-04	4.725692868e-12
-1.390000000e-02	2.678610751e-01	-4.329339913e-04	6.741730468e-11
-1.400000000e-02	2.678610754e-01	-4.302206240e-04	2.404417974e-11
-1.410000000e-02	2.678610757e-01	-4.275072568e-04	4.357362459e-11
-1.420000000e-02	2.678610759e-01	-4.247938897e-04	1.128978520e-11
-1.430000000e-02	2.678610759e-01	-4.220805228e-04	9.479274903e-12
-1.440000000e-02	2.678610760e-01	-4.193671559e-04	2.611838310e-11
-1.450000000e-02	2.678610759e-01	-4.166537891e-04	1.444918536e-11
-1.460000000e-02	2.678610757e-01	-4.139404224e-04	8.634452868e-12
-1.470000000e-02	2.678610755e-01	-4.112270558e-04	1.942018978e-11
-1.480000000e-02	2.678610752e-01	-4.085136894e-04	4.458983385e-12
-1.490000000e-02	2.678610748e-01	-4.058003231e-04	1.666405149e-11
-1.500000000e-02	2.678610743e-01	-4.030869569e-04	9.343853615e-12
-1.510000000e-02	2.678610737e-01	-4.003735908e-04	1.292048982e-11
-1.520000000e-02	2.678610731e-01	-3.976602248e-04	2.305205413e-11
-1.530000000e-02	2.678610723e-01	-3.949468590e-04	1.289451549e-11
-1.540000000e-02	2.678610715e-01	-3.922334934e-04	2.408343118e-11
-1.550000000e-02	2.678610706e-01	-3.895201279e-04	1.411091998e-11
-1.560000000e-02	2.678610696e-01	-3.868067625e-04	4.079170464e-11
-1.570000000e-02	2.678610686e-01	-3.840933973e-04	1.368597169e-11
-1.580000000e-02	2.678610674e-01	-3.813800322e-04	1.401512212e-11
-1.590000000e-02	2.678610662e-01	-3.786666673e-04	8.546690840e-12
-1.600000000e-02	2.678610649e-01	-3.759533026e-04	2.473268901e-11
-1.610000000e-02	2.678610635e-01	-3.732399380e-04	4.547474035e-12
-1.620000000e-02	2.678610620e-01	-3.705265737e-04	4.257712223e-11
-1.630000000e-02	2.678610605e-01	-3.678132095e-04	2.716355089e-11
-1.640000000e-02	2.678610588e-01	-3.650998454e-04	6.598572374e-12
-1.650000000e-02	2.678610571e-01	-3.623864816e-04	8.782946354e-12
-1.660000000e-02	2.678610553e-01	-3.596731180e-04	1.223724337e-11
-1.670000000e-02	2.678610534e-01	-3.569597545e-04	1.738640039e-11
-1.680000000e-02	2.678610514e-01	-3.542463913e-04	1.752638341e-11
-1.690000000e-02	2.678610494e-01	-3.515330282e-04	4.197715437e-12
-1.700000000e-02	2.678610473e-01	-3.488196654e-04	8.521413913e-12
-1.710000000e-02	2.678610450e-01	-3.461063028e-04	1.825711342e-11
-1.720000000e-02	2.678610427e-01	-3.433929403e-04	2.551612980e-11
-1.730000000e-02	2.678610404e-01	-3.406795782e-04	1.077636557e-11
-1.740000000e-02	2.678610379e-01	-3.379662162e-04	6.788179250e-12
-1.750000000e-02	2.678610354e-01	-3.352528545e-04	1.096770231e-11
-1.760000000e-02	2.678610327e-01	-3.325394930e-04	4.652459052e-11
-1.770000000e-02	2.678610300e-01	-3.298261317e-04	6.563381084e-12
-1.780000000e-02	2.678610272e-01	-3.271127707e-04	1.700176773e-11
-1.790000000e-02	2.678610243e-01	-3.243994099e-04	5.521714879e-12
-1.800000000e-02	2.678610214e-01	-3.216860494e-04	2.712411921e-12
-1.810000000e-02	2.678610184e-01	-3.189726891e-04	8.997442857e-12
-1.820000000e-02	2.678610152e-01	-3.162593291e-04	9.450657080e-12
-1.830000000e-02	2.678610120e-01	-3.135459693e-04	1.206360953e-11
-1.840000000e-02	2.678610087e-01	-3.108326099e-04	1.643562769e-11
-1.850000000e-02	2.678610054e-01	-3.081192506e-04	9.889258865e-12
-1.860000000e-02	2.678610019e-01	-3.054058917e-04	1.628153256e-11
-1.870000000e-02	2.678609984e-01	-3.026925330e-04	1.594426205e-11
-1.880000000e-02	2.678609948e-01	-2.999791747e-04	4.284880125e-12
-1.890000000e-02	2.678609911e-01	-2.972658166e-04	1.704524006e-11
-1.900000000e-02	2.678609873e-01	-2.945524588e-04	6.295436965e-12
-1.910000000e-02	2.678609834e-01	-2.918391013e-04	1.851264690e-11
-1.920000000e-02	2.678609795e-01	-2.891257441e-04	6.026291296e-11
-1.930000000e-02	2.678609754e-01	-2.864123872e-04	9.917814126e-12
-1.940000000e-02	2.678609713e-01	-2.836990306e-04	2.337379441e-11
-1.950000000e-02	2.678609671e-01	-2.809856743e-04	3.606173094e-11
-1.960000000e-02	2.678609629e-01	-2.782723183e-04	1.743121008e-11
-1.970000000e-02	2.678609585e-01	-2.755589627e-04	1.239657955e-11
-1.980000000e-02	2.678609541e-01	-2.728456074e-04	2.777878692e-11
-1.990000000e-02	2.678609495e-01	-2.701322524e-04	1.741173200e-11
-2.000000000e-02	2.678609449e-01	-2.674188977e-04	9.269665575e-12
-2.010000000e-02	2.678609402e-01	-2.647055434e-04	1.310203301e-11
-2.020000000e-02	2.678609355e-01	-2.619921894e-04	5.769622740e-12
-2.030000000e-02	2.678609306e-01	-2.592788358e-04	1.107619950e-11
-2.040000000e-02	2.678609257e-01	-2.565654825e-04	9.867895033e-12
-2.050000000e-02	2.678609207e-01	-2.538521296e-04	2.551300977e-11
-2.060000000e-02	2.678609155e-01	-2.511387770e-04	3.084800021e-12
-2.070000000e-02	2.678609104e-01	-2.484254248e-04	8.092979515e-12
-2.080000000e-02	2.678609051e-01	-2.457120730e-04	4.398785469e-11
-2.090000000e-02	2.678608998e-01	-2.429987215e-04	1.292591870e-11
-2.100000000e-02	2.678608943e-01	-2.402853704e-04	2.079302003e-11
-2.110000000e-02	2.678608888e-01	-2.375720197e-04	1.636804600e-11
-2.120000000e-02	2.678608832e-01	-2.348586694e-04	1.436076551e-11
-2.130000000e-02	2.678608775e-01	-2.321453194e-04	1.123492020e-11
-2.140000000e-02	2.678608718e-01	-2.294319699e-04	9.027788700e-12
-2.150000000e-02	2.678608659e-01	-2.267186207e-04	1.753958987e-11
-2.160000000e-02	2.678608600e-01	-2.240052720e-04	1.033019312e-11
-2.170000000e-02	2.678608540e-01	-2.212919236e-04	2.850938520e-11
-2.180000000e-02	2.678608479e-01	-2.185785757e-04	1.356159570e-11
-2.190000000e-02	2.678608417e-01	-2.158652281e-04	9.533921695e-12
-2.200000000e-02	2.678608355e-01	-2.131518810e-04	6.715102997e-12
-2.210000000e-02	2.678608291e-01	-2.104385343e-04	2.496374228e-11
-2.220000000e-02	2.678608227e-01	-2.077251880e-04	1.947712070e-11
-2.230000000e-02	2.678608162e-01	-2.050118422e-04	1.412192721e-11
-2.240000000e-02	2.678608096e-01	-2.022984968e-04	2.386343974e-13
-2.250000000e-02	2.678608030e-01	-1.995851518e-04	3.668647008e-11
-2.260000000e-02	2.678607962e-01	-1.968718073e-04	7.199188148e-12
-2.270000000e-02	2.678607894e-01	-1.941584632e-04	1.445683492e-11
-2.280000000e-02	2.678607825e-01	-1.914451196e-04	2.707770270e-10
-2.290000000e-02	2.678607755e-01	-1.887317764e-04	6.695042273e-12
-2.300000000e-02	2.678607684e-01	-1.860184337e-04	6.624106065e-12
-2.310000000e-02	2.678607612e-01	-1.833050914e-04	8.478969331e-12
-2.320000000e-02	2.678607540e-01	-1.805917496e-04	2.958705270e-11
-2.330000000e-02	2.678607467e-01	-1.778784083e-04	2.083924895e-11
-2.340000000e-02	2.678607393e-01	-1.751650675e-04	2.460180631e-11
-2.350000000e-02	2.678607318e-01	-1.724517271e-04	2.300391403e-11
-2.360000000e-02	2.678607242e-01	-1.697383872e-04	1.015787138e-12
-2.370000000e-02	2.678607165e-01	-1.670250478e-04	1.570587844e-11
-2.380000000e-02	2.678607088e-01	-1.643117089e-04	2.914564932e-11
-2.390000000e-02	2.678607010e-01	-1.615983705e-04	7.610051640e-12
-2.400000000e-02	2.678606931e-01	-1.588850326e-04	7.830386752e-12
-2.410000000e-02	2.678606851e-01	-1.561716952e-04	2.086845695e-11
-2.420000000e-02	2.678606770e-01	-1.534583583e-04	9.921371183e-12
-2.430000000e-02	2.678606689e-01	-1.507450219e-04	3.145346058e-11
-2.440000000e-02	2.678606606e-01	-1.480316860e-04	1.565471433e-11
-2.450000000e-02	2.678606523e-01	-1.453183507e-04	2.180941887e-11
-2.460000000e-02	2.678606439e-01	-1.426050159e-04	1.521487027e-11
-2.470000000e-02	2.678606354e-01	-1.398916816e-04	2.519458652e-11
-2.480000000e-02	2.678606269e-01	-1.371783478e-04	1.935308203e-11
-2.490000000e-02	2.678606182e-01	-1.344650146e-04	6.422813830e-12
-2.500000000e-02	2.678606095e-01	-1.317516819e-04	6.749915084e-12
-2.510000000e-02	2.678606007e-01	-1.290383498e-04	2.047605430e-11
-2.520000000e-02	2.678605918e-01	-1.263250182e-04	8.411288243e-12
-2.530000000e-02	2.678605828e-01	-1.236116872e-04	4.089916823e-11
-2.540000000e-02	2.678605738e-01	-1.208983567e-04	1.627114717e-11
-2.550000000e-02	2.678605646e-01	-1.181850268e-04	2.073942616e-11
-2.560000000e-02	2.678605554e-01	-1.154716975e-04	1.253103842e-11
-2.570000000e-02	2.678605461e-01	-1.127583687e-04	1.013956512e-11
-2.580000000e-02	2.678605367e-01	-1.100450405e-04	2.709262256e-11
-2.590000000e-02	2.678605272e-01	-1.073317129e-04	1.455445593e-11
-2.600000000e-02	2.678605177e-01	-1.046183858e-04	7.307256903e-12
-2.610000000e-02	2.678605081e-01	-1.019050594e-04	4.277394424e-11
-2.620000000e-02	2.678604983e-01	-9.919173354e-05	5.170627104e-12
-2.630000000e-02	2.678604885e-01	-9.647840829e-05	2.486576811e-11
-2.640000000e-02	2.678604787e-01	-9.376508363e-05	9.927736847e-12
-2.650000000e-02	2.678604687e-01	-9.105175958e-05	2.884923264e-12
-2.660000000e-02	2.678604586e-01	-8.833843613e-05	1.341029554e-10
-2.670000000e-02	2.678604485e-01	-8.562511330e-05	2.026497650e-11
-2.680000000e-02	2.678604383e-01	-8.291179109e-05	3.449663732e-12
-2.690000000e-02	2.678604280e-01	-8.019846949e-05	4.521837061e-11
-2.700000000e-02	2.678604176e-01	-7.748514852e-05	3.693174517e-11
-2.710000000e-02	2.678604072e-01	-7.477182818e-05	1.206140375e-11
-2.720000000e-02	2.678603966e-01	-7.205850848e-05	2.554808477e-11
-2.730000000e-02	2.678603860e-01	-6.934518941e-05	2.025851027e-11
-2.740000000e-02	2.678603753e-01	-6.663187098e-05	2.048357842e-11
-2.750000000e-02	2.678603645e-01	-6.391855320e-05	8.539702034e-12
-2.760000000e-02	2.678603536e-01	-6.120523607e-05	5.247776191e-12
-2.770000000e-02	2.678603427e-01	-5.849191960e-05	2.459455835e-11
-2.780000000e-02	2.678603317e-01	-5.577860378e-05	1.803190096e-11
-2.790000000e-02	2.678603205e-01	-5.306528863e-05	3.173899742e-11
-2.800000000e-02	2.678603093e-01	-5.035197414e-05	1.331644787e-11
-2.810000000e-02	2.678602981e-01	-4.763866032e-05	1.199955351e-11
-2.820000000e-02	2.678602867e-01	-4.492534718e-05	3.025271591e-11
-2.830000000e-02	2.678602752e-01	-4.221203472e-05	1.517901792e-11
-2.840000000e-02	2.678602637e-01	-3.949872294e-05	6.611045788e-12
-2.850000000e-02	2.678602521e-01	-3.678541185e-05	9.483271255e-12
-2.860000000e-02	2.678602404e-01	-3.407210145e-05	1.987400094e-12
-2.870000000e-02	2.678602286e-01	-3.135879175e-05	2.693407568e-11
-2.880000000e-02	2.678602168e-01	-2.864548275e-05	1.280585400e-11
-2.890000000e-02	2.678602048e-01	-2.593217445e-05	4.884681282e-12
-2.900000000e-02	2.678601928e-01	-2.321886686e-05	5.705708613e-12
-2.910000000e-02	2.678601807e-01	-2.050555998e-05	5.194845227e-12
-2.920000000e-02	2.678601685e-01	-1.779225382e-05	1.910599960e-11
-2.930000000e-02	2.678601562e-01	-1.507894838e-05	1.064259623e-11
-2.940000000e-02	2.678601439e-01	-1.236564367e-05	1.403253820e-11
-2.950000000e-02	2.678601314e-01	-9.652339688e-06	2.084800328e-11
-2.960000000e-02	2.678601189e-01	-6.939036437e-06	1.411252194e-11
-2.970000000e-02	2.678601063e-01	-4.225733924e-06	1.883788342e-11
-2.980000000e-02	2.678600936e-01	-1.512432154e-06	1.295845265e-11
-2.990000000e-02	2.678600809e-01	1.200868871e-06	7.829954739e-12
-3.000000000e-02	2.678600680e-01	3.914169145e-06	1.977476017e-12
