# Im(epsi1)     Re(omega/c)      Im(omega/c)      Eq(det).Opt det CON kz, R=0.5 \mum, mu_c=0.3, Re(epsi1)=3.90solve_det_conkz_vs_kz.py
0.000000000e+00	2.678481622e-01	-8.100383155e-04	1.180763452e-11
-1.000000000e-04	2.678481740e-01	-8.073250726e-04	4.510125707e-12
-2.000000000e-04	2.678481857e-01	-8.046118291e-04	1.169093745e-11
-3.000000000e-04	2.678481973e-01	-8.018985852e-04	8.054166985e-12
-4.000000000e-04	2.678482089e-01	-7.991853408e-04	1.315980503e-11
-5.000000000e-04	2.678482203e-01	-7.964720959e-04	2.010554021e-11
-6.000000000e-04	2.678482317e-01	-7.937588506e-04	2.346938676e-11
-7.000000000e-04	2.678482430e-01	-7.910456048e-04	1.005590154e-11
-8.000000000e-04	2.678482542e-01	-7.883323585e-04	3.166365743e-11
-9.000000000e-04	2.678482654e-01	-7.856191117e-04	1.144163516e-11
-1.000000000e-03	2.678482764e-01	-7.829058645e-04	4.187101713e-11
-1.100000000e-03	2.678482874e-01	-7.801926168e-04	1.563405137e-11
-1.200000000e-03	2.678482983e-01	-7.774793687e-04	1.116373003e-11
-1.300000000e-03	2.678483091e-01	-7.747661201e-04	3.260832380e-11
-1.400000000e-03	2.678483198e-01	-7.720528711e-04	7.916795253e-12
-1.500000000e-03	2.678483305e-01	-7.693396217e-04	9.974237948e-12
-1.600000000e-03	2.678483410e-01	-7.666263718e-04	1.647124094e-11
-1.700000000e-03	2.678483515e-01	-7.639131215e-04	1.063394994e-11
-1.800000000e-03	2.678483619e-01	-7.611998707e-04	1.079073638e-11
-1.900000000e-03	2.678483722e-01	-7.584866196e-04	1.245040621e-11
-2.000000000e-03	2.678483824e-01	-7.557733680e-04	2.877278088e-11
-2.100000000e-03	2.678483926e-01	-7.530601160e-04	1.723865291e-11
-2.200000000e-03	2.678484026e-01	-7.503468636e-04	1.662156449e-11
-2.300000000e-03	2.678484126e-01	-7.476336108e-04	1.221708342e-11
-2.400000000e-03	2.678484225e-01	-7.449203576e-04	1.135804722e-11
-2.500000000e-03	2.678484323e-01	-7.422071040e-04	1.294285270e-11
-2.600000000e-03	2.678484421e-01	-7.394938500e-04	3.659892697e-11
-2.700000000e-03	2.678484517e-01	-7.367805956e-04	1.003599389e-11
-2.800000000e-03	2.678484613e-01	-7.340673408e-04	5.327115548e-12
-2.900000000e-03	2.678484708e-01	-7.313540857e-04	2.324554697e-11
-3.000000000e-03	2.678484802e-01	-7.286408301e-04	3.360576824e-11
-3.100000000e-03	2.678484895e-01	-7.259275742e-04	4.552862007e-12
-3.200000000e-03	2.678484987e-01	-7.232143180e-04	8.580425691e-12
-3.300000000e-03	2.678485079e-01	-7.205010613e-04	2.185218020e-11
-3.400000000e-03	2.678485170e-01	-7.177878044e-04	4.620569342e-12
-3.500000000e-03	2.678485260e-01	-7.150745470e-04	6.698698729e-12
-3.600000000e-03	2.678485349e-01	-7.123612893e-04	3.118760100e-11
-3.700000000e-03	2.678485437e-01	-7.096480313e-04	1.322016585e-11
-3.800000000e-03	2.678485524e-01	-7.069347729e-04	1.039941223e-11
-3.900000000e-03	2.678485611e-01	-7.042215142e-04	1.499805968e-11
-4.000000000e-03	2.678485697e-01	-7.015082551e-04	5.691404039e-11
-4.100000000e-03	2.678485782e-01	-6.987949957e-04	1.445557123e-11
-4.200000000e-03	2.678485866e-01	-6.960817360e-04	1.520712008e-11
-4.300000000e-03	2.678485949e-01	-6.933684760e-04	1.420312385e-11
-4.400000000e-03	2.678486032e-01	-6.906552156e-04	5.880753018e-11
-4.500000000e-03	2.678486114e-01	-6.879419550e-04	1.252527732e-11
-4.600000000e-03	2.678486194e-01	-6.852286940e-04	8.894144561e-12
-4.700000000e-03	2.678486274e-01	-6.825154327e-04	1.605093614e-11
-4.800000000e-03	2.678486354e-01	-6.798021711e-04	1.788601289e-11
-4.900000000e-03	2.678486432e-01	-6.770889092e-04	6.956211478e-12
-5.000000000e-03	2.678486510e-01	-6.743756471e-04	5.390615754e-12
-5.100000000e-03	2.678486586e-01	-6.716623846e-04	1.310951941e-11
-5.200000000e-03	2.678486662e-01	-6.689491219e-04	5.900092527e-12
-5.300000000e-03	2.678486737e-01	-6.662358588e-04	8.527662075e-12
-5.400000000e-03	2.678486812e-01	-6.635225955e-04	1.967239705e-11
-5.500000000e-03	2.678486885e-01	-6.608093320e-04	5.974355231e-11
-5.600000000e-03	2.678486958e-01	-6.580960681e-04	1.407198635e-11
-5.700000000e-03	2.678487029e-01	-6.553828040e-04	1.189762241e-11
-5.800000000e-03	2.678487100e-01	-6.526695397e-04	7.316893066e-12
-5.900000000e-03	2.678487171e-01	-6.499562751e-04	1.836307634e-11
-6.000000000e-03	2.678487240e-01	-6.472430102e-04	1.002870957e-11
-6.100000000e-03	2.678487308e-01	-6.445297451e-04	2.129528352e-11
-6.200000000e-03	2.678487376e-01	-6.418164797e-04	1.389168058e-11
-6.300000000e-03	2.678487443e-01	-6.391032141e-04	9.361897031e-12
-6.400000000e-03	2.678487509e-01	-6.363899483e-04	4.110598526e-11
-6.500000000e-03	2.678487574e-01	-6.336766822e-04	9.640682055e-12
-6.600000000e-03	2.678487639e-01	-6.309634160e-04	2.696818792e-11
-6.700000000e-03	2.678487702e-01	-6.282501494e-04	1.209706129e-11
-6.800000000e-03	2.678487765e-01	-6.255368827e-04	1.170080747e-10
-6.900000000e-03	2.678487827e-01	-6.228236158e-04	1.309125480e-11
-7.000000000e-03	2.678487888e-01	-6.201103486e-04	5.918496379e-11
-7.100000000e-03	2.678487948e-01	-6.173970813e-04	1.093521238e-11
-7.200000000e-03	2.678488007e-01	-6.146838137e-04	6.426082139e-12
-7.300000000e-03	2.678488066e-01	-6.119705460e-04	3.767948253e-11
-7.400000000e-03	2.678488124e-01	-6.092572781e-04	1.451344435e-11
-7.500000000e-03	2.678488181e-01	-6.065440099e-04	1.059129972e-11
-7.600000000e-03	2.678488237e-01	-6.038307416e-04	9.060619808e-11
-7.700000000e-03	2.678488292e-01	-6.011174731e-04	2.799705714e-11
-7.800000000e-03	2.678488347e-01	-5.984042044e-04	9.198486301e-11
-7.900000000e-03	2.678488400e-01	-5.956909356e-04	3.731184317e-11
-8.000000000e-03	2.678488453e-01	-5.929776666e-04	2.311264019e-11
-8.100000000e-03	2.678488505e-01	-5.902643974e-04	8.922359182e-11
-8.200000000e-03	2.678488556e-01	-5.875511281e-04	4.120653639e-11
-8.300000000e-03	2.678488607e-01	-5.848378586e-04	1.550104053e-11
-8.400000000e-03	2.678488656e-01	-5.821245890e-04	3.070433371e-11
-8.500000000e-03	2.678488705e-01	-5.794113192e-04	3.558046424e-11
-8.600000000e-03	2.678488753e-01	-5.766980493e-04	1.662635289e-11
-8.700000000e-03	2.678488800e-01	-5.739847792e-04	6.754739467e-12
-8.800000000e-03	2.678488846e-01	-5.712715090e-04	1.443682697e-11
-8.900000000e-03	2.678488892e-01	-5.685582387e-04	3.070124994e-11
-9.000000000e-03	2.678488936e-01	-5.658449682e-04	1.329228826e-11
-9.100000000e-03	2.678488980e-01	-5.631316977e-04	4.415299372e-11
-9.200000000e-03	2.678489023e-01	-5.604184270e-04	1.610220695e-11
-9.300000000e-03	2.678489065e-01	-5.577051562e-04	1.243351001e-11
-9.400000000e-03	2.678489106e-01	-5.549918853e-04	9.448428625e-12
-9.500000000e-03	2.678489147e-01	-5.522786142e-04	8.787780440e-12
-9.600000000e-03	2.678489187e-01	-5.495653431e-04	1.965117480e-11
-9.700000000e-03	2.678489225e-01	-5.468520719e-04	3.602307964e-11
-9.800000000e-03	2.678489263e-01	-5.441388006e-04	2.276873415e-11
-9.900000000e-03	2.678489301e-01	-5.414255292e-04	3.687457160e-11
-1.000000000e-02	2.678489337e-01	-5.387122577e-04	1.178511707e-11
-1.010000000e-02	2.678489372e-01	-5.359989862e-04	1.734586184e-11
-1.020000000e-02	2.678489407e-01	-5.332857145e-04	1.068049255e-11
-1.030000000e-02	2.678489441e-01	-5.305724428e-04	2.731375363e-11
-1.040000000e-02	2.678489474e-01	-5.278591711e-04	7.082258832e-12
-1.050000000e-02	2.678489506e-01	-5.251458992e-04	2.729551673e-11
-1.060000000e-02	2.678489538e-01	-5.224326273e-04	1.289917662e-11
-1.070000000e-02	2.678489568e-01	-5.197193554e-04	4.952350364e-11
-1.080000000e-02	2.678489598e-01	-5.170060834e-04	8.797680106e-12
-1.090000000e-02	2.678489627e-01	-5.142928113e-04	1.675161042e-11
-1.100000000e-02	2.678489655e-01	-5.115795392e-04	1.240623327e-11
-1.110000000e-02	2.678489682e-01	-5.088662671e-04	5.990875184e-12
-1.120000000e-02	2.678489709e-01	-5.061529950e-04	3.897342172e-11
-1.130000000e-02	2.678489734e-01	-5.034397228e-04	2.880360002e-11
-1.140000000e-02	2.678489759e-01	-5.007264505e-04	8.556084998e-12
-1.150000000e-02	2.678489783e-01	-4.980131783e-04	1.165390062e-11
-1.160000000e-02	2.678489806e-01	-4.952999060e-04	1.275067877e-11
-1.170000000e-02	2.678489829e-01	-4.925866338e-04	2.387000955e-11
-1.180000000e-02	2.678489850e-01	-4.898733615e-04	3.679089491e-11
-1.190000000e-02	2.678489871e-01	-4.871600892e-04	9.012159827e-12
-1.200000000e-02	2.678489891e-01	-4.844468169e-04	1.358536896e-11
-1.210000000e-02	2.678489910e-01	-4.817335447e-04	9.754375082e-11
-1.220000000e-02	2.678489928e-01	-4.790202724e-04	2.777833225e-11
-1.230000000e-02	2.678489945e-01	-4.763070001e-04	1.419269508e-11
-1.240000000e-02	2.678489962e-01	-4.735937279e-04	7.814644147e-12
-1.250000000e-02	2.678489978e-01	-4.708804557e-04	1.187718637e-11
-1.260000000e-02	2.678489993e-01	-4.681671835e-04	6.859914642e-12
-1.270000000e-02	2.678490007e-01	-4.654539113e-04	1.150374900e-11
-1.280000000e-02	2.678490020e-01	-4.627406392e-04	1.320732021e-11
-1.290000000e-02	2.678490033e-01	-4.600273671e-04	1.449916659e-11
-1.300000000e-02	2.678490044e-01	-4.573140950e-04	1.699971188e-11
-1.310000000e-02	2.678490055e-01	-4.546008230e-04	7.692430082e-12
-1.320000000e-02	2.678490065e-01	-4.518875510e-04	4.868989518e-11
-1.330000000e-02	2.678490074e-01	-4.491742791e-04	1.464844503e-11
-1.340000000e-02	2.678490082e-01	-4.464610073e-04	1.750595433e-11
-1.350000000e-02	2.678490090e-01	-4.437477355e-04	2.013273224e-11
-1.360000000e-02	2.678490097e-01	-4.410344638e-04	1.151917841e-11
-1.370000000e-02	2.678490102e-01	-4.383211921e-04	5.418500486e-11
-1.380000000e-02	2.678490107e-01	-4.356079205e-04	8.178673939e-12
-1.390000000e-02	2.678490112e-01	-4.328946490e-04	5.341004350e-11
-1.400000000e-02	2.678490115e-01	-4.301813776e-04	1.220530416e-11
-1.410000000e-02	2.678490118e-01	-4.274681063e-04	1.837626114e-11
-1.420000000e-02	2.678490119e-01	-4.247548350e-04	9.487585988e-11
-1.430000000e-02	2.678490120e-01	-4.220415639e-04	7.144012248e-12
-1.440000000e-02	2.678490120e-01	-4.193282928e-04	2.075240155e-11
-1.450000000e-02	2.678490120e-01	-4.166150219e-04	1.904987617e-11
-1.460000000e-02	2.678490118e-01	-4.139017511e-04	1.069945004e-11
-1.470000000e-02	2.678490116e-01	-4.111884804e-04	2.161690756e-11
-1.480000000e-02	2.678490112e-01	-4.084752098e-04	2.189356415e-11
-1.490000000e-02	2.678490108e-01	-4.057619393e-04	1.958333436e-11
-1.500000000e-02	2.678490104e-01	-4.030486689e-04	1.028297488e-11
-1.510000000e-02	2.678490098e-01	-4.003353987e-04	1.452759644e-11
-1.520000000e-02	2.678490091e-01	-3.976221286e-04	5.490116371e-12
-1.530000000e-02	2.678490084e-01	-3.949088586e-04	1.740443551e-11
-1.540000000e-02	2.678490076e-01	-3.921955888e-04	2.156305315e-11
-1.550000000e-02	2.678490067e-01	-3.894823191e-04	9.145757182e-12
-1.560000000e-02	2.678490057e-01	-3.867690496e-04	2.659908162e-11
-1.570000000e-02	2.678490046e-01	-3.840557802e-04	8.603949914e-12
-1.580000000e-02	2.678490035e-01	-3.813425110e-04	7.683247327e-12
-1.590000000e-02	2.678490023e-01	-3.786292420e-04	8.602118424e-12
-1.600000000e-02	2.678490010e-01	-3.759159731e-04	3.913497798e-11
-1.610000000e-02	2.678489996e-01	-3.732027044e-04	3.425529073e-11
-1.620000000e-02	2.678489981e-01	-3.704894358e-04	1.890858950e-11
-1.630000000e-02	2.678489965e-01	-3.677761675e-04	3.209957139e-11
-1.640000000e-02	2.678489949e-01	-3.650628993e-04	1.483866080e-11
-1.650000000e-02	2.678489932e-01	-3.623496313e-04	2.228079359e-11
-1.660000000e-02	2.678489914e-01	-3.596363635e-04	7.326768748e-12
-1.670000000e-02	2.678489895e-01	-3.569230959e-04	1.911980804e-11
-1.680000000e-02	2.678489875e-01	-3.542098285e-04	8.982219329e-12
-1.690000000e-02	2.678489855e-01	-3.514965613e-04	4.107744559e-11
-1.700000000e-02	2.678489833e-01	-3.487832943e-04	1.144500397e-11
-1.710000000e-02	2.678489811e-01	-3.460700276e-04	6.630624168e-12
-1.720000000e-02	2.678489788e-01	-3.433567610e-04	4.360992610e-11
-1.730000000e-02	2.678489764e-01	-3.406434947e-04	6.602081434e-12
-1.740000000e-02	2.678489740e-01	-3.379302285e-04	2.084638179e-11
-1.750000000e-02	2.678489714e-01	-3.352169626e-04	2.552581895e-11
-1.760000000e-02	2.678489688e-01	-3.325036970e-04	9.079022822e-12
-1.770000000e-02	2.678489661e-01	-3.297904316e-04	8.811127178e-12
-1.780000000e-02	2.678489633e-01	-3.270771664e-04	4.198963482e-12
-1.790000000e-02	2.678489604e-01	-3.243639015e-04	1.325003382e-11
-1.800000000e-02	2.678489574e-01	-3.216506368e-04	6.275365644e-12
-1.810000000e-02	2.678489544e-01	-3.189373724e-04	1.872013906e-11
-1.820000000e-02	2.678489513e-01	-3.162241082e-04	5.760878599e-11
-1.830000000e-02	2.678489481e-01	-3.135108443e-04	2.033164171e-11
-1.840000000e-02	2.678489448e-01	-3.107975806e-04	7.744535235e-12
-1.850000000e-02	2.678489414e-01	-3.080843173e-04	7.617635576e-11
-1.860000000e-02	2.678489380e-01	-3.053710542e-04	1.481302191e-11
-1.870000000e-02	2.678489344e-01	-3.026577914e-04	9.303899864e-12
-1.880000000e-02	2.678489308e-01	-2.999445288e-04	2.507354468e-11
-1.890000000e-02	2.678489271e-01	-2.972312666e-04	7.623585439e-12
-1.900000000e-02	2.678489233e-01	-2.945180046e-04	2.379556291e-11
-1.910000000e-02	2.678489195e-01	-2.918047430e-04	2.737424767e-11
-1.920000000e-02	2.678489155e-01	-2.890914816e-04	1.307345921e-11
-1.930000000e-02	2.678489115e-01	-2.863782206e-04	1.702778427e-11
-1.940000000e-02	2.678489074e-01	-2.836649598e-04	1.308002507e-11
-1.950000000e-02	2.678489032e-01	-2.809516994e-04	1.358974073e-11
-1.960000000e-02	2.678488989e-01	-2.782384393e-04	2.866389068e-11
-1.970000000e-02	2.678488945e-01	-2.755251795e-04	3.141351912e-11
-1.980000000e-02	2.678488901e-01	-2.728119200e-04	5.506257789e-11
-1.990000000e-02	2.678488856e-01	-2.700986609e-04	1.105411371e-11
-2.000000000e-02	2.678488810e-01	-2.673854021e-04	1.037171246e-11
-2.010000000e-02	2.678488763e-01	-2.646721436e-04	1.154716365e-11
-2.020000000e-02	2.678488715e-01	-2.619588855e-04	1.105283574e-11
-2.030000000e-02	2.678488666e-01	-2.592456277e-04	2.470430236e-11
-2.040000000e-02	2.678488617e-01	-2.565323702e-04	3.439607914e-11
-2.050000000e-02	2.678488567e-01	-2.538191132e-04	1.484336223e-11
-2.060000000e-02	2.678488516e-01	-2.511058564e-04	9.642826251e-12
-2.070000000e-02	2.678488464e-01	-2.483926001e-04	9.857554084e-12
-2.080000000e-02	2.678488411e-01	-2.456793441e-04	8.555241290e-12
-2.090000000e-02	2.678488358e-01	-2.429660885e-04	1.861032266e-11
-2.100000000e-02	2.678488304e-01	-2.402528332e-04	2.471841513e-11
-2.110000000e-02	2.678488248e-01	-2.375395783e-04	6.638927143e-11
-2.120000000e-02	2.678488192e-01	-2.348263239e-04	9.217569399e-12
-2.130000000e-02	2.678488136e-01	-2.321130698e-04	7.936832693e-12
-2.140000000e-02	2.678488078e-01	-2.293998160e-04	1.881564336e-11
-2.150000000e-02	2.678488020e-01	-2.266865627e-04	7.419638129e-12
-2.160000000e-02	2.678487960e-01	-2.239733098e-04	1.174288460e-11
-2.170000000e-02	2.678487900e-01	-2.212600573e-04	8.574470067e-12
-2.180000000e-02	2.678487839e-01	-2.185468052e-04	6.534690364e-11
-2.190000000e-02	2.678487778e-01	-2.158335535e-04	7.030041883e-12
-2.200000000e-02	2.678487715e-01	-2.131203023e-04	1.666907625e-11
-2.210000000e-02	2.678487652e-01	-2.104070514e-04	4.910229621e-11
-2.220000000e-02	2.678487587e-01	-2.076938010e-04	2.514870662e-11
-2.230000000e-02	2.678487522e-01	-2.049805510e-04	7.756897119e-12
-2.240000000e-02	2.678487457e-01	-2.022673014e-04	3.174432462e-11
-2.250000000e-02	2.678487390e-01	-1.995540523e-04	1.737945317e-11
-2.260000000e-02	2.678487322e-01	-1.968408036e-04	1.038688682e-11
-2.270000000e-02	2.678487254e-01	-1.941275554e-04	1.427961842e-11
-2.280000000e-02	2.678487185e-01	-1.914143076e-04	8.834795529e-12
-2.290000000e-02	2.678487115e-01	-1.887010603e-04	8.671978999e-12
-2.300000000e-02	2.678487044e-01	-1.859878134e-04	7.045779756e-12
-2.310000000e-02	2.678486973e-01	-1.832745670e-04	4.301227834e-11
-2.320000000e-02	2.678486900e-01	-1.805613210e-04	9.058916561e-12
-2.330000000e-02	2.678486827e-01	-1.778480756e-04	2.025594631e-11
-2.340000000e-02	2.678486753e-01	-1.751348306e-04	9.810829948e-12
-2.350000000e-02	2.678486678e-01	-1.724215860e-04	1.656762440e-11
-2.360000000e-02	2.678486602e-01	-1.697083420e-04	1.641227474e-11
-2.370000000e-02	2.678486526e-01	-1.669950985e-04	9.159095511e-12
-2.380000000e-02	2.678486448e-01	-1.642818554e-04	1.922311715e-11
-2.390000000e-02	2.678486370e-01	-1.615686128e-04	4.225835788e-11
-2.400000000e-02	2.678486291e-01	-1.588553708e-04	1.578174515e-11
-2.410000000e-02	2.678486211e-01	-1.561421292e-04	8.072337315e-12
-2.420000000e-02	2.678486130e-01	-1.534288882e-04	1.230458572e-10
-2.430000000e-02	2.678486049e-01	-1.507156476e-04	1.063652833e-11
-2.440000000e-02	2.678485966e-01	-1.480024076e-04	8.258865904e-12
-2.450000000e-02	2.678485883e-01	-1.452891681e-04	2.083882461e-11
-2.460000000e-02	2.678485799e-01	-1.425759292e-04	4.132081564e-11
-2.470000000e-02	2.678485714e-01	-1.398626907e-04	1.336851068e-11
-2.480000000e-02	2.678485629e-01	-1.371494528e-04	1.230414432e-11
-2.490000000e-02	2.678485542e-01	-1.344362154e-04	8.904093011e-12
-2.500000000e-02	2.678485455e-01	-1.317229786e-04	1.263793446e-11
-2.510000000e-02	2.678485367e-01	-1.290097423e-04	2.377241619e-11
-2.520000000e-02	2.678485278e-01	-1.262965066e-04	1.523190328e-11
-2.530000000e-02	2.678485188e-01	-1.235832714e-04	2.488557084e-11
-2.540000000e-02	2.678485098e-01	-1.208700368e-04	1.541558851e-11
-2.550000000e-02	2.678485006e-01	-1.181568027e-04	3.192751981e-11
-2.560000000e-02	2.678484914e-01	-1.154435692e-04	1.880103323e-11
-2.570000000e-02	2.678484821e-01	-1.127303363e-04	1.684183327e-11
-2.580000000e-02	2.678484727e-01	-1.100171039e-04	7.404487100e-12
-2.590000000e-02	2.678484632e-01	-1.073038722e-04	6.545793997e-12
-2.600000000e-02	2.678484537e-01	-1.045906410e-04	1.523264540e-11
-2.610000000e-02	2.678484441e-01	-1.018774104e-04	6.659967534e-12
-2.620000000e-02	2.678484343e-01	-9.916418038e-05	1.446145808e-11
-2.630000000e-02	2.678484245e-01	-9.645095098e-05	1.885444617e-11
-2.640000000e-02	2.678484147e-01	-9.373772217e-05	9.529379828e-12
-2.650000000e-02	2.678484047e-01	-9.102449396e-05	1.877030114e-11
-2.660000000e-02	2.678483947e-01	-8.831126637e-05	7.062486431e-12
-2.670000000e-02	2.678483845e-01	-8.559803938e-05	9.148052005e-12
-2.680000000e-02	2.678483743e-01	-8.288481302e-05	1.204449068e-11
-2.690000000e-02	2.678483640e-01	-8.017158727e-05	9.193217864e-12
-2.700000000e-02	2.678483536e-01	-7.745836215e-05	6.190784984e-12
-2.710000000e-02	2.678483432e-01	-7.474513766e-05	2.848472279e-11
-2.720000000e-02	2.678483326e-01	-7.203191380e-05	1.805800703e-11
-2.730000000e-02	2.678483220e-01	-6.931869058e-05	9.941174420e-12
-2.740000000e-02	2.678483113e-01	-6.660546800e-05	4.061309851e-12
-2.750000000e-02	2.678483005e-01	-6.389224607e-05	3.954647714e-11
-2.760000000e-02	2.678482896e-01	-6.117902479e-05	2.636532406e-11
-2.770000000e-02	2.678482787e-01	-5.846580416e-05	3.218300978e-11
-2.780000000e-02	2.678482677e-01	-5.575258419e-05	2.656789474e-12
-2.790000000e-02	2.678482565e-01	-5.303936488e-05	6.543943284e-11
-2.800000000e-02	2.678482453e-01	-5.032614625e-05	1.690458374e-11
-2.810000000e-02	2.678482341e-01	-4.761292828e-05	3.158158078e-11
-2.820000000e-02	2.678482227e-01	-4.489971098e-05	8.236190178e-12
-2.830000000e-02	2.678482112e-01	-4.218649437e-05	1.802470094e-11
-2.840000000e-02	2.678481997e-01	-3.947327844e-05	1.786983465e-11
-2.850000000e-02	2.678481881e-01	-3.676006320e-05	8.446308847e-12
-2.860000000e-02	2.678481764e-01	-3.404684865e-05	1.396745184e-11
-2.870000000e-02	2.678481646e-01	-3.133363479e-05	1.166445002e-11
-2.880000000e-02	2.678481528e-01	-2.862042164e-05	6.473414502e-12
-2.890000000e-02	2.678481408e-01	-2.590720919e-05	1.278625387e-11
-2.900000000e-02	2.678481288e-01	-2.319399745e-05	1.158922246e-11
-2.910000000e-02	2.678481167e-01	-2.048078642e-05	1.196842558e-11
-2.920000000e-02	2.678481045e-01	-1.776757611e-05	9.409425351e-12
-2.930000000e-02	2.678480922e-01	-1.505436652e-05	1.709677782e-11
-2.940000000e-02	2.678480799e-01	-1.234115765e-05	6.944639097e-12
-2.950000000e-02	2.678480674e-01	-9.627949518e-06	1.219126449e-11
-2.960000000e-02	2.678480549e-01	-6.914742115e-06	5.881131136e-11
-2.970000000e-02	2.678480423e-01	-4.201535452e-06	8.105990558e-12
-2.980000000e-02	2.678480296e-01	-1.488329530e-06	1.137274205e-11
-2.990000000e-02	2.678480169e-01	1.224875647e-06	6.173786023e-12
-3.000000000e-02	2.678480040e-01	3.938080073e-06	1.262191976e-11
