# Im(epsi1)     Re(omega/c)      Im(omega/c)      Eq(det).Opt det CON kz, R=0.5 \mum, mu_c=0.3, Re(epsi1)=3.90solve_det_conkz_vs_kz.py
0.000000000e+00	2.678493221e-01	-8.100433791e-04	1.437525598e-11
-1.000000000e-04	2.678493339e-01	-8.073301270e-04	9.821821371e-12
-2.000000000e-04	2.678493456e-01	-8.046168743e-04	1.850546862e-11
-3.000000000e-04	2.678493573e-01	-8.019036212e-04	1.445276989e-11
-4.000000000e-04	2.678493688e-01	-7.991903676e-04	1.267595066e-11
-5.000000000e-04	2.678493803e-01	-7.964771135e-04	4.052933212e-12
-6.000000000e-04	2.678493917e-01	-7.937638589e-04	1.681986754e-11
-7.000000000e-04	2.678494030e-01	-7.910506039e-04	6.515151941e-11
-8.000000000e-04	2.678494142e-01	-7.883373484e-04	2.845527650e-12
-9.000000000e-04	2.678494253e-01	-7.856240924e-04	1.365023494e-11
-1.000000000e-03	2.678494364e-01	-7.829108360e-04	1.549531060e-11
-1.100000000e-03	2.678494473e-01	-7.801975791e-04	4.071545955e-11
-1.200000000e-03	2.678494582e-01	-7.774843218e-04	9.229449641e-12
-1.300000000e-03	2.678494690e-01	-7.747710640e-04	1.651182663e-11
-1.400000000e-03	2.678494798e-01	-7.720578058e-04	7.264663823e-12
-1.500000000e-03	2.678494904e-01	-7.693445471e-04	2.495445967e-11
-1.600000000e-03	2.678495010e-01	-7.666312880e-04	1.054485588e-11
-1.700000000e-03	2.678495114e-01	-7.639180285e-04	2.330312196e-11
-1.800000000e-03	2.678495218e-01	-7.612047685e-04	1.613582060e-11
-1.900000000e-03	2.678495321e-01	-7.584915081e-04	3.420416644e-11
-2.000000000e-03	2.678495424e-01	-7.557782473e-04	9.664567841e-12
-2.100000000e-03	2.678495525e-01	-7.530649861e-04	2.131294134e-11
-2.200000000e-03	2.678495626e-01	-7.503517245e-04	2.149789598e-11
-2.300000000e-03	2.678495726e-01	-7.476384625e-04	9.596433370e-12
-2.400000000e-03	2.678495825e-01	-7.449252001e-04	1.294828148e-11
-2.500000000e-03	2.678495923e-01	-7.422119373e-04	1.439709274e-11
-2.600000000e-03	2.678496020e-01	-7.394986740e-04	1.817860862e-11
-2.700000000e-03	2.678496117e-01	-7.367854104e-04	1.030854079e-11
-2.800000000e-03	2.678496212e-01	-7.340721465e-04	1.495342456e-11
-2.900000000e-03	2.678496307e-01	-7.313588821e-04	1.643415615e-11
-3.000000000e-03	2.678496401e-01	-7.286456173e-04	8.767791719e-12
-3.100000000e-03	2.678496495e-01	-7.259323522e-04	1.573390285e-11
-3.200000000e-03	2.678496587e-01	-7.232190868e-04	1.721308900e-11
-3.300000000e-03	2.678496679e-01	-7.205058209e-04	1.044688466e-11
-3.400000000e-03	2.678496769e-01	-7.177925547e-04	1.396115677e-11
-3.500000000e-03	2.678496859e-01	-7.150792881e-04	2.335370189e-11
-3.600000000e-03	2.678496948e-01	-7.123660212e-04	1.474049281e-10
-3.700000000e-03	2.678497037e-01	-7.096527540e-04	5.003366677e-11
-3.800000000e-03	2.678497124e-01	-7.069394864e-04	1.448551895e-11
-3.900000000e-03	2.678497211e-01	-7.042262184e-04	2.378449558e-11
-4.000000000e-03	2.678497296e-01	-7.015129502e-04	1.111704518e-11
-4.100000000e-03	2.678497381e-01	-6.987996816e-04	2.157061315e-11
-4.200000000e-03	2.678497466e-01	-6.960864126e-04	1.346527879e-11
-4.300000000e-03	2.678497549e-01	-6.933731434e-04	1.423159761e-11
-4.400000000e-03	2.678497631e-01	-6.906598738e-04	7.814824920e-12
-4.500000000e-03	2.678497713e-01	-6.879466039e-04	1.927252138e-11
-4.600000000e-03	2.678497794e-01	-6.852333337e-04	2.067073506e-11
-4.700000000e-03	2.678497874e-01	-6.825200632e-04	2.305847810e-11
-4.800000000e-03	2.678497953e-01	-6.798067924e-04	1.150231712e-11
-4.900000000e-03	2.678498032e-01	-6.770935214e-04	2.200401438e-11
-5.000000000e-03	2.678498109e-01	-6.743802500e-04	1.217455015e-11
-5.100000000e-03	2.678498186e-01	-6.716669783e-04	1.087831870e-11
-5.200000000e-03	2.678498262e-01	-6.689537063e-04	9.234236914e-12
-5.300000000e-03	2.678498337e-01	-6.662404341e-04	4.406505188e-11
-5.400000000e-03	2.678498411e-01	-6.635271616e-04	2.323896480e-11
-5.500000000e-03	2.678498485e-01	-6.608138888e-04	1.704140713e-11
-5.600000000e-03	2.678498557e-01	-6.581006157e-04	4.814263935e-12
-5.700000000e-03	2.678498629e-01	-6.553873424e-04	6.367771007e-12
-5.800000000e-03	2.678498700e-01	-6.526740689e-04	6.196315978e-12
-5.900000000e-03	2.678498770e-01	-6.499607950e-04	9.054066559e-12
-6.000000000e-03	2.678498840e-01	-6.472475209e-04	1.160645180e-11
-6.100000000e-03	2.678498908e-01	-6.445342466e-04	5.228057746e-12
-6.200000000e-03	2.678498976e-01	-6.418209720e-04	6.583718002e-12
-6.300000000e-03	2.678499043e-01	-6.391076972e-04	4.166010198e-11
-6.400000000e-03	2.678499109e-01	-6.363944222e-04	1.049827489e-11
-6.500000000e-03	2.678499174e-01	-6.336811469e-04	3.150872459e-11
-6.600000000e-03	2.678499238e-01	-6.309678714e-04	1.028719234e-11
-6.700000000e-03	2.678499302e-01	-6.282545957e-04	1.256502692e-11
-6.800000000e-03	2.678499364e-01	-6.255413198e-04	1.009988033e-11
-6.900000000e-03	2.678499426e-01	-6.228280436e-04	7.941825831e-12
-7.000000000e-03	2.678499487e-01	-6.201147672e-04	2.760996198e-11
-7.100000000e-03	2.678499548e-01	-6.174014907e-04	3.200684839e-11
-7.200000000e-03	2.678499607e-01	-6.146882139e-04	6.531063879e-12
-7.300000000e-03	2.678499666e-01	-6.119749370e-04	5.084658914e-11
-7.400000000e-03	2.678499723e-01	-6.092616598e-04	1.179330333e-11
-7.500000000e-03	2.678499780e-01	-6.065483825e-04	2.954566894e-11
-7.600000000e-03	2.678499837e-01	-6.038351049e-04	2.901988118e-11
-7.700000000e-03	2.678499892e-01	-6.011218272e-04	3.096566872e-11
-7.800000000e-03	2.678499946e-01	-5.984085493e-04	1.412905804e-11
-7.900000000e-03	2.678500000e-01	-5.956952713e-04	2.036760789e-11
-8.000000000e-03	2.678500053e-01	-5.929819931e-04	1.014978704e-11
-8.100000000e-03	2.678500105e-01	-5.902687147e-04	2.102508409e-11
-8.200000000e-03	2.678500156e-01	-5.875554361e-04	5.597068068e-11
-8.300000000e-03	2.678500206e-01	-5.848421574e-04	1.094136169e-11
-8.400000000e-03	2.678500256e-01	-5.821288786e-04	1.496657581e-11
-8.500000000e-03	2.678500305e-01	-5.794155996e-04	1.912094803e-11
-8.600000000e-03	2.678500353e-01	-5.767023204e-04	2.027265518e-11
-8.700000000e-03	2.678500400e-01	-5.739890412e-04	1.875641091e-11
-8.800000000e-03	2.678500446e-01	-5.712757618e-04	1.781774968e-11
-8.900000000e-03	2.678500491e-01	-5.685624822e-04	9.358443149e-12
-9.000000000e-03	2.678500536e-01	-5.658492025e-04	3.942203860e-11
-9.100000000e-03	2.678500580e-01	-5.631359228e-04	4.436640828e-12
-9.200000000e-03	2.678500623e-01	-5.604226429e-04	1.677099282e-11
-9.300000000e-03	2.678500665e-01	-5.577093628e-04	7.205152157e-12
-9.400000000e-03	2.678500706e-01	-5.549960827e-04	1.727688213e-11
-9.500000000e-03	2.678500746e-01	-5.522828025e-04	1.941644659e-11
-9.600000000e-03	2.678500786e-01	-5.495695221e-04	3.686349722e-12
-9.700000000e-03	2.678500825e-01	-5.468562417e-04	4.522170895e-11
-9.800000000e-03	2.678500863e-01	-5.441429612e-04	1.500468672e-11
-9.900000000e-03	2.678500900e-01	-5.414296806e-04	4.264039172e-11
-1.000000000e-02	2.678500936e-01	-5.387163999e-04	7.436758741e-12
-1.010000000e-02	2.678500972e-01	-5.360031191e-04	7.552629236e-11
-1.020000000e-02	2.678501007e-01	-5.332898383e-04	8.434160197e-12
-1.030000000e-02	2.678501041e-01	-5.305765573e-04	1.258130801e-11
-1.040000000e-02	2.678501074e-01	-5.278632764e-04	2.524282187e-11
-1.050000000e-02	2.678501106e-01	-5.251499953e-04	1.905974061e-11
-1.060000000e-02	2.678501137e-01	-5.224367142e-04	9.215603454e-12
-1.070000000e-02	2.678501168e-01	-5.197234330e-04	4.022248986e-11
-1.080000000e-02	2.678501198e-01	-5.170101518e-04	4.010943728e-11
-1.090000000e-02	2.678501227e-01	-5.142968705e-04	1.292568513e-11
-1.100000000e-02	2.678501255e-01	-5.115835892e-04	8.251486874e-12
-1.110000000e-02	2.678501282e-01	-5.088703079e-04	1.679256922e-11
-1.120000000e-02	2.678501308e-01	-5.061570265e-04	1.462306244e-11
-1.130000000e-02	2.678501334e-01	-5.034437451e-04	2.297632012e-10
-1.140000000e-02	2.678501359e-01	-5.007304637e-04	1.094431958e-11
-1.150000000e-02	2.678501383e-01	-4.980171822e-04	1.042227998e-11
-1.160000000e-02	2.678501406e-01	-4.953039008e-04	1.783040603e-11
-1.170000000e-02	2.678501428e-01	-4.925906193e-04	6.245905450e-12
-1.180000000e-02	2.678501450e-01	-4.898773378e-04	1.156884064e-11
-1.190000000e-02	2.678501471e-01	-4.871640563e-04	8.943228813e-12
-1.200000000e-02	2.678501490e-01	-4.844507748e-04	4.177628119e-11
-1.210000000e-02	2.678501509e-01	-4.817374933e-04	9.785526394e-12
-1.220000000e-02	2.678501528e-01	-4.790242118e-04	1.054737316e-11
-1.230000000e-02	2.678501545e-01	-4.763109303e-04	9.919042141e-12
-1.240000000e-02	2.678501562e-01	-4.735976489e-04	1.101826353e-11
-1.250000000e-02	2.678501577e-01	-4.708843674e-04	1.997330026e-11
-1.260000000e-02	2.678501592e-01	-4.681710860e-04	4.493589448e-11
-1.270000000e-02	2.678501606e-01	-4.654578046e-04	1.350900365e-11
-1.280000000e-02	2.678501620e-01	-4.627445233e-04	7.334623035e-12
-1.290000000e-02	2.678501632e-01	-4.600312420e-04	7.468770576e-11
-1.300000000e-02	2.678501644e-01	-4.573179607e-04	2.471679540e-11
-1.310000000e-02	2.678501655e-01	-4.546046795e-04	2.111301241e-11
-1.320000000e-02	2.678501665e-01	-4.518913983e-04	1.043375119e-11
-1.330000000e-02	2.678501674e-01	-4.491781172e-04	9.532705544e-12
-1.340000000e-02	2.678501682e-01	-4.464648361e-04	1.613558361e-11
-1.350000000e-02	2.678501690e-01	-4.437515551e-04	5.561419666e-12
-1.360000000e-02	2.678501696e-01	-4.410382742e-04	6.468025054e-12
-1.370000000e-02	2.678501702e-01	-4.383249933e-04	1.862915576e-11
-1.380000000e-02	2.678501707e-01	-4.356117125e-04	3.574598813e-11
-1.390000000e-02	2.678501711e-01	-4.328984318e-04	7.642570372e-12
-1.400000000e-02	2.678501715e-01	-4.301851512e-04	1.916712689e-11
-1.410000000e-02	2.678501717e-01	-4.274718706e-04	2.033349343e-11
-1.420000000e-02	2.678501719e-01	-4.247585902e-04	1.610683799e-11
-1.430000000e-02	2.678501720e-01	-4.220453098e-04	6.545314755e-12
-1.440000000e-02	2.678501720e-01	-4.193320295e-04	9.700235841e-12
-1.450000000e-02	2.678501719e-01	-4.166187494e-04	1.527411891e-11
-1.460000000e-02	2.678501718e-01	-4.139054693e-04	1.262524767e-11
-1.470000000e-02	2.678501715e-01	-4.111921894e-04	1.614055962e-11
-1.480000000e-02	2.678501712e-01	-4.084789096e-04	3.670987797e-11
-1.490000000e-02	2.678501708e-01	-4.057656299e-04	1.435214217e-11
-1.500000000e-02	2.678501703e-01	-4.030523503e-04	4.795402233e-12
-1.510000000e-02	2.678501698e-01	-4.003390709e-04	1.224937951e-11
-1.520000000e-02	2.678501691e-01	-3.976257916e-04	8.395301627e-12
-1.530000000e-02	2.678501684e-01	-3.949125124e-04	1.146072254e-11
-1.540000000e-02	2.678501676e-01	-3.921992333e-04	2.136160053e-11
-1.550000000e-02	2.678501667e-01	-3.894859545e-04	2.247872836e-11
-1.560000000e-02	2.678501657e-01	-3.867726757e-04	2.353258506e-11
-1.570000000e-02	2.678501646e-01	-3.840593971e-04	6.306699062e-12
-1.580000000e-02	2.678501635e-01	-3.813461187e-04	1.994386445e-11
-1.590000000e-02	2.678501622e-01	-3.786328404e-04	1.280919349e-11
-1.600000000e-02	2.678501609e-01	-3.759195623e-04	1.232534173e-11
-1.610000000e-02	2.678501595e-01	-3.732062844e-04	1.739990935e-11
-1.620000000e-02	2.678501581e-01	-3.704930067e-04	3.025225991e-11
-1.630000000e-02	2.678501565e-01	-3.677797291e-04	1.403720412e-11
-1.640000000e-02	2.678501549e-01	-3.650664517e-04	2.127332115e-11
-1.650000000e-02	2.678501531e-01	-3.623531745e-04	5.552324031e-12
-1.660000000e-02	2.678501513e-01	-3.596398975e-04	1.310338466e-11
-1.670000000e-02	2.678501494e-01	-3.569266207e-04	2.124911555e-11
-1.680000000e-02	2.678501475e-01	-3.542133440e-04	1.738645636e-11
-1.690000000e-02	2.678501454e-01	-3.515000676e-04	1.134277854e-11
-1.700000000e-02	2.678501433e-01	-3.487867914e-04	1.246190524e-11
-1.710000000e-02	2.678501411e-01	-3.460735154e-04	1.673859178e-11
-1.720000000e-02	2.678501388e-01	-3.433602397e-04	1.093557818e-11
-1.730000000e-02	2.678501364e-01	-3.406469641e-04	9.922281023e-12
-1.740000000e-02	2.678501339e-01	-3.379336888e-04	1.041103255e-11
-1.750000000e-02	2.678501314e-01	-3.352204137e-04	7.945450147e-12
-1.760000000e-02	2.678501288e-01	-3.325071388e-04	9.666412029e-12
-1.770000000e-02	2.678501260e-01	-3.297938642e-04	8.815217522e-12
-1.780000000e-02	2.678501232e-01	-3.270805898e-04	2.368297047e-11
-1.790000000e-02	2.678501204e-01	-3.243673156e-04	1.740603118e-11
-1.800000000e-02	2.678501174e-01	-3.216540417e-04	2.024370225e-11
-1.810000000e-02	2.678501144e-01	-3.189407681e-04	4.787857866e-11
-1.820000000e-02	2.678501112e-01	-3.162274947e-04	8.962393959e-12
-1.830000000e-02	2.678501080e-01	-3.135142216e-04	6.262135853e-11
-1.840000000e-02	2.678501048e-01	-3.108009487e-04	5.848981791e-12
-1.850000000e-02	2.678501014e-01	-3.080876761e-04	2.541273817e-11
-1.860000000e-02	2.678500979e-01	-3.053744038e-04	1.318875759e-11
-1.870000000e-02	2.678500944e-01	-3.026611318e-04	3.093312888e-11
-1.880000000e-02	2.678500908e-01	-2.999478601e-04	9.679758682e-12
-1.890000000e-02	2.678500871e-01	-2.972345886e-04	3.472966508e-12
-1.900000000e-02	2.678500833e-01	-2.945213174e-04	1.232746235e-10
-1.910000000e-02	2.678500794e-01	-2.918080466e-04	2.022985804e-11
-1.920000000e-02	2.678500755e-01	-2.890947760e-04	1.489857663e-11
-1.930000000e-02	2.678500714e-01	-2.863815057e-04	1.963610444e-11
-1.940000000e-02	2.678500673e-01	-2.836682358e-04	9.362266625e-12
-1.950000000e-02	2.678500631e-01	-2.809549661e-04	1.163435626e-11
-1.960000000e-02	2.678500589e-01	-2.782416968e-04	1.493949730e-11
-1.970000000e-02	2.678500545e-01	-2.755284278e-04	1.451314661e-11
-1.980000000e-02	2.678500501e-01	-2.728151591e-04	1.149370307e-11
-1.990000000e-02	2.678500455e-01	-2.701018907e-04	6.875158120e-12
-2.000000000e-02	2.678500409e-01	-2.673886227e-04	1.131714506e-11
-2.010000000e-02	2.678500362e-01	-2.646753550e-04	1.853475406e-11
-2.020000000e-02	2.678500315e-01	-2.619620877e-04	1.076916646e-11
-2.030000000e-02	2.678500266e-01	-2.592488207e-04	9.143352953e-12
-2.040000000e-02	2.678500217e-01	-2.565355540e-04	1.129674875e-11
-2.050000000e-02	2.678500167e-01	-2.538222877e-04	2.305132635e-11
-2.060000000e-02	2.678500116e-01	-2.511090218e-04	1.680751113e-11
-2.070000000e-02	2.678500064e-01	-2.483957562e-04	1.722205557e-11
-2.080000000e-02	2.678500011e-01	-2.456824910e-04	2.623492894e-11
-2.090000000e-02	2.678499958e-01	-2.429692262e-04	1.861425529e-11
-2.100000000e-02	2.678499903e-01	-2.402559617e-04	9.136739537e-12
-2.110000000e-02	2.678499848e-01	-2.375426976e-04	9.294943816e-12
-2.120000000e-02	2.678499792e-01	-2.348294339e-04	1.682828983e-11
-2.130000000e-02	2.678499735e-01	-2.321161706e-04	1.458747041e-11
-2.140000000e-02	2.678499678e-01	-2.294029077e-04	2.323209234e-11
-2.150000000e-02	2.678499619e-01	-2.266896451e-04	1.670910465e-11
-2.160000000e-02	2.678499560e-01	-2.239763830e-04	9.531146288e-12
-2.170000000e-02	2.678499500e-01	-2.212631213e-04	2.602671798e-11
-2.180000000e-02	2.678499439e-01	-2.185498600e-04	4.947580105e-12
-2.190000000e-02	2.678499377e-01	-2.158365991e-04	9.139470896e-12
-2.200000000e-02	2.678499315e-01	-2.131233386e-04	8.414044319e-12
-2.210000000e-02	2.678499251e-01	-2.104100785e-04	1.550801802e-11
-2.220000000e-02	2.678499187e-01	-2.076968189e-04	1.979400851e-11
-2.230000000e-02	2.678499122e-01	-2.049835597e-04	1.111089395e-11
-2.240000000e-02	2.678499056e-01	-2.022703009e-04	2.106009222e-11
-2.250000000e-02	2.678498990e-01	-1.995570426e-04	1.505422711e-11
-2.260000000e-02	2.678498922e-01	-1.968437847e-04	3.807517387e-12
-2.270000000e-02	2.678498854e-01	-1.941305272e-04	1.057933070e-11
-2.280000000e-02	2.678498785e-01	-1.914172702e-04	1.472420641e-11
-2.290000000e-02	2.678498715e-01	-1.887040137e-04	1.333854999e-11
-2.300000000e-02	2.678498644e-01	-1.859907576e-04	1.136748344e-11
-2.310000000e-02	2.678498572e-01	-1.832775019e-04	7.102789212e-12
-2.320000000e-02	2.678498500e-01	-1.805642468e-04	1.538190642e-11
-2.330000000e-02	2.678498427e-01	-1.778509921e-04	6.701860534e-12
-2.340000000e-02	2.678498352e-01	-1.751377379e-04	7.722670521e-12
-2.350000000e-02	2.678498278e-01	-1.724244841e-04	1.022150246e-11
-2.360000000e-02	2.678498202e-01	-1.697112309e-04	3.490012944e-11
-2.370000000e-02	2.678498125e-01	-1.669979781e-04	1.096632201e-11
-2.380000000e-02	2.678498048e-01	-1.642847259e-04	2.076727563e-11
-2.390000000e-02	2.678497970e-01	-1.615714741e-04	1.593152082e-11
-2.400000000e-02	2.678497891e-01	-1.588582228e-04	1.506084744e-11
-2.410000000e-02	2.678497811e-01	-1.561449720e-04	1.225461329e-11
-2.420000000e-02	2.678497730e-01	-1.534317218e-04	9.818884561e-12
-2.430000000e-02	2.678497649e-01	-1.507184720e-04	1.584810108e-11
-2.440000000e-02	2.678497566e-01	-1.480052228e-04	4.525904088e-11
-2.450000000e-02	2.678497483e-01	-1.452919741e-04	1.400497684e-11
-2.460000000e-02	2.678497399e-01	-1.425787259e-04	2.006404744e-11
-2.470000000e-02	2.678497314e-01	-1.398654782e-04	1.187804341e-11
-2.480000000e-02	2.678497229e-01	-1.371522311e-04	2.711061710e-11
-2.490000000e-02	2.678497142e-01	-1.344389845e-04	1.737662967e-11
-2.500000000e-02	2.678497055e-01	-1.317257385e-04	1.347132337e-11
-2.510000000e-02	2.678496967e-01	-1.290124930e-04	1.282904219e-11
-2.520000000e-02	2.678496878e-01	-1.262992480e-04	1.694545854e-11
-2.530000000e-02	2.678496788e-01	-1.235860036e-04	1.022626425e-11
-2.540000000e-02	2.678496697e-01	-1.208727598e-04	7.913245380e-12
-2.550000000e-02	2.678496606e-01	-1.181595165e-04	7.882113430e-12
-2.560000000e-02	2.678496514e-01	-1.154462738e-04	2.228874896e-11
-2.570000000e-02	2.678496421e-01	-1.127330316e-04	1.214461292e-11
-2.580000000e-02	2.678496327e-01	-1.100197901e-04	7.793085829e-12
-2.590000000e-02	2.678496232e-01	-1.073065491e-04	1.269102299e-11
-2.600000000e-02	2.678496137e-01	-1.045933087e-04	6.064565290e-12
-2.610000000e-02	2.678496040e-01	-1.018800689e-04	3.402202626e-12
-2.620000000e-02	2.678495943e-01	-9.916682967e-05	6.979013777e-12
-2.630000000e-02	2.678495845e-01	-9.645359104e-05	7.561461652e-12
-2.640000000e-02	2.678495746e-01	-9.374035302e-05	1.339864103e-11
-2.650000000e-02	2.678495647e-01	-9.102711560e-05	6.633304180e-11
-2.660000000e-02	2.678495546e-01	-8.831387879e-05	1.222451609e-11
-2.670000000e-02	2.678495445e-01	-8.560064259e-05	1.610417547e-11
-2.680000000e-02	2.678495343e-01	-8.288740700e-05	8.358435635e-12
-2.690000000e-02	2.678495240e-01	-8.017417204e-05	1.492824070e-11
-2.700000000e-02	2.678495136e-01	-7.746093771e-05	2.157480023e-11
-2.710000000e-02	2.678495032e-01	-7.474770400e-05	7.548594195e-12
-2.720000000e-02	2.678494926e-01	-7.203447093e-05	1.332995339e-11
-2.730000000e-02	2.678494820e-01	-6.932123849e-05	1.091258902e-11
-2.740000000e-02	2.678494713e-01	-6.660800670e-05	5.113174742e-11
-2.750000000e-02	2.678494605e-01	-6.389477555e-05	8.811880195e-12
-2.760000000e-02	2.678494496e-01	-6.118154505e-05	1.918070757e-11
-2.770000000e-02	2.678494387e-01	-5.846831521e-05	2.413300139e-11
-2.780000000e-02	2.678494276e-01	-5.575508602e-05	1.658923726e-11
-2.790000000e-02	2.678494165e-01	-5.304185750e-05	2.630754334e-11
-2.800000000e-02	2.678494053e-01	-5.032862965e-05	9.898061233e-12
-2.810000000e-02	2.678493940e-01	-4.761540246e-05	6.321852939e-12
-2.820000000e-02	2.678493827e-01	-4.490217596e-05	1.255019691e-11
-2.830000000e-02	2.678493712e-01	-4.218895013e-05	1.398983446e-11
-2.840000000e-02	2.678493597e-01	-3.947572498e-05	6.323818392e-11
-2.850000000e-02	2.678493481e-01	-3.676250052e-05	1.151210686e-11
-2.860000000e-02	2.678493364e-01	-3.404927676e-05	3.981122579e-11
-2.870000000e-02	2.678493246e-01	-3.133605369e-05	1.386017050e-11
-2.880000000e-02	2.678493127e-01	-2.862283132e-05	1.240253566e-11
-2.890000000e-02	2.678493008e-01	-2.590960965e-05	2.737930997e-11
-2.900000000e-02	2.678492888e-01	-2.319638870e-05	1.042248375e-11
-2.910000000e-02	2.678492767e-01	-2.048316845e-05	1.936112702e-11
-2.920000000e-02	2.678492645e-01	-1.776994892e-05	1.732235434e-11
-2.930000000e-02	2.678492522e-01	-1.505673012e-05	1.363012588e-11
-2.940000000e-02	2.678492398e-01	-1.234351204e-05	1.246874484e-11
-2.950000000e-02	2.678492274e-01	-9.630294687e-06	1.493944922e-11
-2.960000000e-02	2.678492149e-01	-6.917078069e-06	6.182092286e-11
-2.970000000e-02	2.678492023e-01	-4.203862190e-06	1.082700624e-11
-2.980000000e-02	2.678491896e-01	-1.490647052e-06	1.328110283e-11
-2.990000000e-02	2.678491768e-01	1.222567339e-06	7.270772187e-12
-3.000000000e-02	2.678491640e-01	3.935780981e-06	8.236254815e-12
