# Im(epsi1)     Re(omega/c)      Im(omega/c)      Eq(det).Opt det CON kz, R=0.5 \mum, mu_c=0.3, Re(epsi1)=3.90solve_det_conkz_vs_kz.py
0.000000000e+00	2.678468559e-01	-8.100326133e-04	2.970052307e-11
-1.000000000e-04	2.678468677e-01	-8.073193807e-04	2.661897146e-11
-2.000000000e-04	2.678468794e-01	-8.046061477e-04	1.124230890e-11
-3.000000000e-04	2.678468911e-01	-8.018929141e-04	1.221290923e-11
-4.000000000e-04	2.678469026e-01	-7.991796801e-04	1.493348751e-11
-5.000000000e-04	2.678469141e-01	-7.964664456e-04	2.022708970e-11
-6.000000000e-04	2.678469255e-01	-7.937532106e-04	1.838074935e-11
-7.000000000e-04	2.678469368e-01	-7.910399752e-04	1.006095375e-11
-8.000000000e-04	2.678469480e-01	-7.883267393e-04	1.178198832e-11
-9.000000000e-04	2.678469591e-01	-7.856135029e-04	5.560082026e-12
-1.000000000e-03	2.678469702e-01	-7.829002661e-04	6.703072620e-12
-1.100000000e-03	2.678469812e-01	-7.801870288e-04	1.360353309e-11
-1.200000000e-03	2.678469920e-01	-7.774737910e-04	4.889670363e-12
-1.300000000e-03	2.678470028e-01	-7.747605528e-04	8.548747740e-12
-1.400000000e-03	2.678470136e-01	-7.720473142e-04	5.606768882e-11
-1.500000000e-03	2.678470242e-01	-7.693340751e-04	8.138520179e-12
-1.600000000e-03	2.678470348e-01	-7.666208356e-04	1.038476513e-11
-1.700000000e-03	2.678470452e-01	-7.639075957e-04	1.272602373e-11
-1.800000000e-03	2.678470556e-01	-7.611943553e-04	8.231157263e-12
-1.900000000e-03	2.678470660e-01	-7.584811145e-04	2.034100540e-11
-2.000000000e-03	2.678470762e-01	-7.557678733e-04	5.635853451e-12
-2.100000000e-03	2.678470863e-01	-7.530546317e-04	1.319479279e-11
-2.200000000e-03	2.678470964e-01	-7.503413897e-04	5.860285148e-11
-2.300000000e-03	2.678471064e-01	-7.476281473e-04	9.369754030e-12
-2.400000000e-03	2.678471163e-01	-7.449149044e-04	2.004233167e-11
-2.500000000e-03	2.678471261e-01	-7.422016612e-04	8.708404759e-12
-2.600000000e-03	2.678471358e-01	-7.394884176e-04	1.238343272e-11
-2.700000000e-03	2.678471455e-01	-7.367751736e-04	1.392773693e-11
-2.800000000e-03	2.678471550e-01	-7.340619292e-04	9.783429138e-12
-2.900000000e-03	2.678471645e-01	-7.313486844e-04	9.773070415e-12
-3.000000000e-03	2.678471739e-01	-7.286354392e-04	1.495798197e-11
-3.100000000e-03	2.678471833e-01	-7.259221937e-04	1.712331126e-11
-3.200000000e-03	2.678471925e-01	-7.232089478e-04	1.823048336e-11
-3.300000000e-03	2.678472017e-01	-7.204957016e-04	3.020295647e-11
-3.400000000e-03	2.678472107e-01	-7.177824550e-04	1.408814688e-11
-3.500000000e-03	2.678472197e-01	-7.150692080e-04	1.708025799e-11
-3.600000000e-03	2.678472286e-01	-7.123559607e-04	1.204443019e-11
-3.700000000e-03	2.678472375e-01	-7.096427130e-04	1.423183889e-11
-3.800000000e-03	2.678472462e-01	-7.069294650e-04	1.261840818e-11
-3.900000000e-03	2.678472549e-01	-7.042162167e-04	7.135716318e-12
-4.000000000e-03	2.678472634e-01	-7.015029680e-04	1.270728125e-11
-4.100000000e-03	2.678472719e-01	-6.987897190e-04	7.194658975e-12
-4.200000000e-03	2.678472804e-01	-6.960764696e-04	5.225960340e-11
-4.300000000e-03	2.678472887e-01	-6.933632200e-04	1.249210051e-11
-4.400000000e-03	2.678472969e-01	-6.906499700e-04	1.415092885e-11
-4.500000000e-03	2.678473051e-01	-6.879367197e-04	1.162285762e-10
-4.600000000e-03	2.678473132e-01	-6.852234691e-04	7.572822350e-12
-4.700000000e-03	2.678473212e-01	-6.825102182e-04	4.353556929e-12
-4.800000000e-03	2.678473291e-01	-6.797969670e-04	8.882809423e-12
-4.900000000e-03	2.678473370e-01	-6.770837155e-04	1.111630848e-11
-5.000000000e-03	2.678473447e-01	-6.743704637e-04	1.799354136e-12
-5.100000000e-03	2.678473524e-01	-6.716572116e-04	9.297532123e-12
-5.200000000e-03	2.678473600e-01	-6.689439593e-04	1.171853090e-11
-5.300000000e-03	2.678473675e-01	-6.662307066e-04	1.103885041e-11
-5.400000000e-03	2.678473749e-01	-6.635174537e-04	2.933249635e-11
-5.500000000e-03	2.678473823e-01	-6.608042005e-04	1.060042917e-11
-5.600000000e-03	2.678473895e-01	-6.580909470e-04	7.103759989e-12
-5.700000000e-03	2.678473967e-01	-6.553776933e-04	1.221697470e-11
-5.800000000e-03	2.678474038e-01	-6.526644393e-04	1.099141506e-10
-5.900000000e-03	2.678474108e-01	-6.499511851e-04	1.133693577e-11
-6.000000000e-03	2.678474177e-01	-6.472379306e-04	1.864008734e-11
-6.100000000e-03	2.678474246e-01	-6.445246759e-04	6.968397677e-12
-6.200000000e-03	2.678474314e-01	-6.418114209e-04	1.589689260e-11
-6.300000000e-03	2.678474380e-01	-6.390981657e-04	1.655240306e-11
-6.400000000e-03	2.678474446e-01	-6.363849102e-04	6.926679468e-12
-6.500000000e-03	2.678474512e-01	-6.336716545e-04	1.927698412e-11
-6.600000000e-03	2.678474576e-01	-6.309583986e-04	1.550034140e-11
-6.700000000e-03	2.678474640e-01	-6.282451425e-04	1.167778122e-11
-6.800000000e-03	2.678474702e-01	-6.255318861e-04	1.178056086e-11
-6.900000000e-03	2.678474764e-01	-6.228186296e-04	7.106495270e-11
-7.000000000e-03	2.678474825e-01	-6.201053728e-04	2.202015399e-11
-7.100000000e-03	2.678474886e-01	-6.173921158e-04	1.433364978e-11
-7.200000000e-03	2.678474945e-01	-6.146788587e-04	4.497000921e-12
-7.300000000e-03	2.678475004e-01	-6.119656013e-04	2.480953134e-11
-7.400000000e-03	2.678475061e-01	-6.092523437e-04	1.289421456e-11
-7.500000000e-03	2.678475118e-01	-6.065390860e-04	1.590471668e-11
-7.600000000e-03	2.678475174e-01	-6.038258280e-04	2.670117586e-11
-7.700000000e-03	2.678475230e-01	-6.011125699e-04	4.734982986e-12
-7.800000000e-03	2.678475284e-01	-5.983993116e-04	1.017106441e-11
-7.900000000e-03	2.678475338e-01	-5.956860532e-04	1.207988682e-11
-8.000000000e-03	2.678475391e-01	-5.929727945e-04	7.286893908e-12
-8.100000000e-03	2.678475443e-01	-5.902595358e-04	1.479122573e-10
-8.200000000e-03	2.678475494e-01	-5.875462768e-04	2.329885654e-11
-8.300000000e-03	2.678475544e-01	-5.848330177e-04	2.425713126e-11
-8.400000000e-03	2.678475594e-01	-5.821197584e-04	1.663920552e-11
-8.500000000e-03	2.678475643e-01	-5.794064990e-04	5.989310594e-12
-8.600000000e-03	2.678475690e-01	-5.766932395e-04	1.293472638e-11
-8.700000000e-03	2.678475738e-01	-5.739799798e-04	1.796009744e-11
-8.800000000e-03	2.678475784e-01	-5.712667200e-04	1.309436242e-11
-8.900000000e-03	2.678475829e-01	-5.685534600e-04	8.033205508e-12
-9.000000000e-03	2.678475874e-01	-5.658402000e-04	1.235298791e-11
-9.100000000e-03	2.678475918e-01	-5.631269398e-04	6.768032055e-12
-9.200000000e-03	2.678475960e-01	-5.604136794e-04	1.252266451e-11
-9.300000000e-03	2.678476003e-01	-5.577004190e-04	1.161312261e-11
-9.400000000e-03	2.678476044e-01	-5.549871585e-04	9.505846098e-12
-9.500000000e-03	2.678476084e-01	-5.522738978e-04	9.914489999e-12
-9.600000000e-03	2.678476124e-01	-5.495606371e-04	1.687211344e-11
-9.700000000e-03	2.678476163e-01	-5.468473763e-04	1.522669592e-11
-9.800000000e-03	2.678476201e-01	-5.441341153e-04	1.118260986e-11
-9.900000000e-03	2.678476238e-01	-5.414208543e-04	3.234798613e-11
-1.000000000e-02	2.678476274e-01	-5.387075932e-04	1.337484003e-11
-1.010000000e-02	2.678476310e-01	-5.359943320e-04	3.351151944e-11
-1.020000000e-02	2.678476345e-01	-5.332810708e-04	6.910492294e-12
-1.030000000e-02	2.678476378e-01	-5.305678094e-04	4.948150117e-12
-1.040000000e-02	2.678476412e-01	-5.278545480e-04	6.360441895e-12
-1.050000000e-02	2.678476444e-01	-5.251412866e-04	1.214480154e-11
-1.060000000e-02	2.678476475e-01	-5.224280251e-04	1.495870981e-11
-1.070000000e-02	2.678476506e-01	-5.197147635e-04	1.545336823e-11
-1.080000000e-02	2.678476535e-01	-5.170015019e-04	1.331353213e-10
-1.090000000e-02	2.678476564e-01	-5.142882402e-04	1.152826660e-11
-1.100000000e-02	2.678476593e-01	-5.115749785e-04	9.900423512e-12
-1.110000000e-02	2.678476620e-01	-5.088617167e-04	8.261470277e-12
-1.120000000e-02	2.678476646e-01	-5.061484550e-04	4.370138200e-12
-1.130000000e-02	2.678476672e-01	-5.034351931e-04	2.905339162e-11
-1.140000000e-02	2.678476697e-01	-5.007219313e-04	9.265330409e-12
-1.150000000e-02	2.678476721e-01	-4.980086694e-04	2.054784711e-11
-1.160000000e-02	2.678476744e-01	-4.952954076e-04	5.138781040e-12
-1.170000000e-02	2.678476766e-01	-4.925821457e-04	1.583463138e-11
-1.180000000e-02	2.678476788e-01	-4.898688838e-04	9.849424677e-12
-1.190000000e-02	2.678476808e-01	-4.871556219e-04	5.683361750e-11
-1.200000000e-02	2.678476828e-01	-4.844423600e-04	8.777668858e-12
-1.210000000e-02	2.678476847e-01	-4.817290981e-04	4.655884990e-11
-1.220000000e-02	2.678476866e-01	-4.790158362e-04	1.462880700e-11
-1.230000000e-02	2.678476883e-01	-4.763025743e-04	1.124749350e-11
-1.240000000e-02	2.678476900e-01	-4.735893124e-04	6.630227508e-11
-1.250000000e-02	2.678476915e-01	-4.708760506e-04	5.534953569e-12
-1.260000000e-02	2.678476930e-01	-4.681627888e-04	1.550471094e-11
-1.270000000e-02	2.678476944e-01	-4.654495270e-04	4.627128139e-11
-1.280000000e-02	2.678476958e-01	-4.627362652e-04	6.081405160e-12
-1.290000000e-02	2.678476970e-01	-4.600230035e-04	1.008360804e-11
-1.300000000e-02	2.678476982e-01	-4.573097418e-04	2.336585876e-11
-1.310000000e-02	2.678476992e-01	-4.545964802e-04	9.828223954e-12
-1.320000000e-02	2.678477002e-01	-4.518832186e-04	8.608120031e-11
-1.330000000e-02	2.678477012e-01	-4.491699570e-04	5.533372022e-11
-1.340000000e-02	2.678477020e-01	-4.464566956e-04	2.130075793e-11
-1.350000000e-02	2.678477027e-01	-4.437434342e-04	8.855884817e-12
-1.360000000e-02	2.678477034e-01	-4.410301728e-04	2.018614423e-11
-1.370000000e-02	2.678477040e-01	-4.383169115e-04	2.760182015e-10
-1.380000000e-02	2.678477045e-01	-4.356036503e-04	1.813720890e-11
-1.390000000e-02	2.678477049e-01	-4.328903892e-04	1.919561620e-11
-1.400000000e-02	2.678477053e-01	-4.301771282e-04	8.368682223e-12
-1.410000000e-02	2.678477055e-01	-4.274638672e-04	1.149794029e-11
-1.420000000e-02	2.678477057e-01	-4.247506064e-04	1.130395817e-11
-1.430000000e-02	2.678477058e-01	-4.220373456e-04	1.039049714e-11
-1.440000000e-02	2.678477058e-01	-4.193240849e-04	7.209748228e-12
-1.450000000e-02	2.678477057e-01	-4.166108244e-04	1.386631312e-11
-1.460000000e-02	2.678477055e-01	-4.138975639e-04	1.998749746e-11
-1.470000000e-02	2.678477053e-01	-4.111843036e-04	9.084752780e-12
-1.480000000e-02	2.678477050e-01	-4.084710433e-04	1.382605361e-11
-1.490000000e-02	2.678477046e-01	-4.057577832e-04	1.442992098e-11
-1.500000000e-02	2.678477041e-01	-4.030445233e-04	2.751096564e-11
-1.510000000e-02	2.678477035e-01	-4.003312634e-04	8.090915524e-12
-1.520000000e-02	2.678477029e-01	-3.976180037e-04	1.016400733e-11
-1.530000000e-02	2.678477021e-01	-3.949047441e-04	1.420806516e-11
-1.540000000e-02	2.678477013e-01	-3.921914847e-04	5.324830025e-12
-1.550000000e-02	2.678477004e-01	-3.894782254e-04	9.178390416e-12
-1.560000000e-02	2.678476995e-01	-3.867649662e-04	1.027774163e-11
-1.570000000e-02	2.678476984e-01	-3.840517072e-04	5.121725395e-12
-1.580000000e-02	2.678476972e-01	-3.813384484e-04	2.904904274e-11
-1.590000000e-02	2.678476960e-01	-3.786251897e-04	1.764814667e-11
-1.600000000e-02	2.678476947e-01	-3.759119312e-04	8.860596873e-12
-1.610000000e-02	2.678476933e-01	-3.731986729e-04	1.134474324e-11
-1.620000000e-02	2.678476918e-01	-3.704854147e-04	2.637948021e-11
-1.630000000e-02	2.678476903e-01	-3.677721567e-04	1.722252156e-11
-1.640000000e-02	2.678476886e-01	-3.650588989e-04	8.493110521e-12
-1.650000000e-02	2.678476869e-01	-3.623456413e-04	9.423815892e-12
-1.660000000e-02	2.678476851e-01	-3.596323839e-04	8.015832604e-12
-1.670000000e-02	2.678476832e-01	-3.569191267e-04	4.860617298e-12
-1.680000000e-02	2.678476813e-01	-3.542058697e-04	2.616223675e-11
-1.690000000e-02	2.678476792e-01	-3.514926128e-04	8.608140995e-12
-1.700000000e-02	2.678476771e-01	-3.487793562e-04	1.402868232e-11
-1.710000000e-02	2.678476748e-01	-3.460660998e-04	8.317802287e-12
-1.720000000e-02	2.678476725e-01	-3.433528436e-04	1.169614208e-11
-1.730000000e-02	2.678476702e-01	-3.406395877e-04	4.151343423e-12
-1.740000000e-02	2.678476677e-01	-3.379263319e-04	1.445181265e-11
-1.750000000e-02	2.678476652e-01	-3.352130764e-04	5.554852415e-12
-1.760000000e-02	2.678476625e-01	-3.324998211e-04	1.338540252e-11
-1.770000000e-02	2.678476598e-01	-3.297865661e-04	1.992532435e-11
-1.780000000e-02	2.678476570e-01	-3.270733113e-04	9.427613554e-12
-1.790000000e-02	2.678476541e-01	-3.243600568e-04	9.141753499e-12
-1.800000000e-02	2.678476512e-01	-3.216468025e-04	1.155743483e-11
-1.810000000e-02	2.678476481e-01	-3.189335484e-04	9.962669939e-12
-1.820000000e-02	2.678476450e-01	-3.162202946e-04	1.385320520e-11
-1.830000000e-02	2.678476418e-01	-3.135070411e-04	6.255249065e-12
-1.840000000e-02	2.678476385e-01	-3.107937878e-04	6.925800239e-12
-1.850000000e-02	2.678476352e-01	-3.080805348e-04	1.618198467e-11
-1.860000000e-02	2.678476317e-01	-3.053672821e-04	7.154765841e-12
-1.870000000e-02	2.678476282e-01	-3.026540297e-04	1.435770188e-11
-1.880000000e-02	2.678476245e-01	-2.999407775e-04	2.354855784e-11
-1.890000000e-02	2.678476208e-01	-2.972275256e-04	1.295326309e-11
-1.900000000e-02	2.678476171e-01	-2.945142741e-04	7.518316544e-12
-1.910000000e-02	2.678476132e-01	-2.918010228e-04	8.305689762e-12
-1.920000000e-02	2.678476093e-01	-2.890877718e-04	1.244073830e-11
-1.930000000e-02	2.678476052e-01	-2.863745211e-04	3.819164198e-11
-1.940000000e-02	2.678476011e-01	-2.836612708e-04	5.106002019e-11
-1.950000000e-02	2.678475969e-01	-2.809480207e-04	1.085393323e-11
-1.960000000e-02	2.678475926e-01	-2.782347710e-04	4.337011831e-11
-1.970000000e-02	2.678475883e-01	-2.755215216e-04	1.519097776e-11
-1.980000000e-02	2.678475838e-01	-2.728082725e-04	1.733886768e-11
-1.990000000e-02	2.678475793e-01	-2.700950237e-04	1.529647115e-11
-2.000000000e-02	2.678475747e-01	-2.673817753e-04	7.339822301e-12
-2.010000000e-02	2.678475700e-01	-2.646685272e-04	6.064993782e-12
-2.020000000e-02	2.678475652e-01	-2.619552794e-04	1.337085346e-11
-2.030000000e-02	2.678475604e-01	-2.592420320e-04	2.083225753e-11
-2.040000000e-02	2.678475554e-01	-2.565287849e-04	2.630189852e-11
-2.050000000e-02	2.678475504e-01	-2.538155382e-04	1.093818739e-11
-2.060000000e-02	2.678475453e-01	-2.511022919e-04	2.448746419e-11
-2.070000000e-02	2.678475401e-01	-2.483890459e-04	6.664885304e-12
-2.080000000e-02	2.678475349e-01	-2.456758003e-04	4.893843729e-12
-2.090000000e-02	2.678475295e-01	-2.429625551e-04	1.012093532e-11
-2.100000000e-02	2.678475241e-01	-2.402493102e-04	2.700854239e-11
-2.110000000e-02	2.678475186e-01	-2.375360657e-04	1.399665926e-11
-2.120000000e-02	2.678475130e-01	-2.348228216e-04	8.187425036e-12
-2.130000000e-02	2.678475073e-01	-2.321095779e-04	1.388715866e-11
-2.140000000e-02	2.678475015e-01	-2.293963345e-04	1.250848962e-11
-2.150000000e-02	2.678474957e-01	-2.266830916e-04	1.664587639e-11
-2.160000000e-02	2.678474898e-01	-2.239698491e-04	1.882437812e-11
-2.170000000e-02	2.678474838e-01	-2.212566069e-04	1.174457157e-11
-2.180000000e-02	2.678474777e-01	-2.185433652e-04	6.242783980e-11
-2.190000000e-02	2.678474715e-01	-2.158301239e-04	2.952853828e-11
-2.200000000e-02	2.678474652e-01	-2.131168830e-04	3.517633470e-11
-2.210000000e-02	2.678474589e-01	-2.104036425e-04	1.737765500e-11
-2.220000000e-02	2.678474525e-01	-2.076904025e-04	1.455964023e-11
-2.230000000e-02	2.678474460e-01	-2.049771629e-04	2.904996836e-11
-2.240000000e-02	2.678474394e-01	-2.022639237e-04	8.890306737e-12
-2.250000000e-02	2.678474327e-01	-1.995506850e-04	1.469790983e-11
-2.260000000e-02	2.678474260e-01	-1.968374466e-04	1.298055374e-11
-2.270000000e-02	2.678474192e-01	-1.941242088e-04	3.265116901e-12
-2.280000000e-02	2.678474122e-01	-1.914109714e-04	3.679730886e-12
-2.290000000e-02	2.678474052e-01	-1.886977344e-04	1.886475184e-11
-2.300000000e-02	2.678473982e-01	-1.859844979e-04	2.575323506e-11
-2.310000000e-02	2.678473910e-01	-1.832712619e-04	8.686005337e-12
-2.320000000e-02	2.678473838e-01	-1.805580263e-04	1.499321135e-11
-2.330000000e-02	2.678473764e-01	-1.778447912e-04	1.905228860e-11
-2.340000000e-02	2.678473690e-01	-1.751315566e-04	2.182317592e-11
-2.350000000e-02	2.678473615e-01	-1.724183225e-04	8.113226867e-12
-2.360000000e-02	2.678473539e-01	-1.697050888e-04	5.922882008e-11
-2.370000000e-02	2.678473463e-01	-1.669918556e-04	1.938988044e-11
-2.380000000e-02	2.678473386e-01	-1.642786230e-04	2.566519542e-11
-2.390000000e-02	2.678473307e-01	-1.615653908e-04	1.742106935e-11
-2.400000000e-02	2.678473228e-01	-1.588521591e-04	3.490693667e-11
-2.410000000e-02	2.678473148e-01	-1.561389279e-04	3.572094608e-11
-2.420000000e-02	2.678473068e-01	-1.534256972e-04	9.311575360e-12
-2.430000000e-02	2.678472986e-01	-1.507124671e-04	9.431714489e-12
-2.440000000e-02	2.678472904e-01	-1.479992374e-04	6.624636907e-12
-2.450000000e-02	2.678472821e-01	-1.452860083e-04	8.061099007e-12
-2.460000000e-02	2.678472737e-01	-1.425727797e-04	6.862738150e-12
-2.470000000e-02	2.678472652e-01	-1.398595517e-04	1.213864530e-11
-2.480000000e-02	2.678472566e-01	-1.371463241e-04	1.180682309e-11
-2.490000000e-02	2.678472480e-01	-1.344330971e-04	1.591283952e-11
-2.500000000e-02	2.678472393e-01	-1.317198707e-04	1.450414007e-11
-2.510000000e-02	2.678472304e-01	-1.290066448e-04	1.582068337e-11
-2.520000000e-02	2.678472215e-01	-1.262934194e-04	2.450377722e-11
-2.530000000e-02	2.678472126e-01	-1.235801946e-04	1.971801478e-11
-2.540000000e-02	2.678472035e-01	-1.208669704e-04	1.931173559e-11
-2.550000000e-02	2.678471944e-01	-1.181537467e-04	1.651175346e-11
-2.560000000e-02	2.678471852e-01	-1.154405236e-04	2.541981413e-11
-2.570000000e-02	2.678471758e-01	-1.127273010e-04	9.424831513e-12
-2.580000000e-02	2.678471665e-01	-1.100140790e-04	8.082837384e-12
-2.590000000e-02	2.678471570e-01	-1.073008576e-04	1.465056453e-11
-2.600000000e-02	2.678471474e-01	-1.045876368e-04	7.804437944e-11
-2.610000000e-02	2.678471378e-01	-1.018744166e-04	1.926170417e-11
-2.620000000e-02	2.678471281e-01	-9.916119700e-05	1.133708642e-11
-2.630000000e-02	2.678471183e-01	-9.644797796e-05	9.653193114e-12
-2.640000000e-02	2.678471084e-01	-9.373475953e-05	3.996507049e-11
-2.650000000e-02	2.678470984e-01	-9.102154170e-05	9.581320239e-12
-2.660000000e-02	2.678470884e-01	-8.830832448e-05	5.375925383e-11
-2.670000000e-02	2.678470783e-01	-8.559510788e-05	1.145988541e-11
-2.680000000e-02	2.678470680e-01	-8.288189189e-05	1.027316586e-11
-2.690000000e-02	2.678470578e-01	-8.016867652e-05	2.064387965e-11
-2.700000000e-02	2.678470474e-01	-7.745546178e-05	5.102509871e-11
-2.710000000e-02	2.678470369e-01	-7.474224767e-05	9.990018686e-12
-2.720000000e-02	2.678470264e-01	-7.202903419e-05	5.104544665e-12
-2.730000000e-02	2.678470158e-01	-6.931582134e-05	5.661366994e-12
-2.740000000e-02	2.678470050e-01	-6.660260914e-05	1.554007439e-11
-2.750000000e-02	2.678469943e-01	-6.388939759e-05	1.096427608e-11
-2.760000000e-02	2.678469834e-01	-6.117618668e-05	1.029489464e-11
-2.770000000e-02	2.678469724e-01	-5.846297643e-05	9.791133506e-12
-2.780000000e-02	2.678469614e-01	-5.574976684e-05	2.003953219e-11
-2.790000000e-02	2.678469503e-01	-5.303655791e-05	2.308001285e-12
-2.800000000e-02	2.678469391e-01	-5.032334965e-05	1.511602478e-11
-2.810000000e-02	2.678469278e-01	-4.761014206e-05	7.220323584e-11
-2.820000000e-02	2.678469164e-01	-4.489693515e-05	9.698917187e-12
-2.830000000e-02	2.678469050e-01	-4.218372891e-05	4.936609475e-12
-2.840000000e-02	2.678468934e-01	-3.947052336e-05	1.753861801e-11
-2.850000000e-02	2.678468818e-01	-3.675731849e-05	3.512595758e-12
-2.860000000e-02	2.678468701e-01	-3.404411432e-05	1.099252658e-11
-2.870000000e-02	2.678468584e-01	-3.133091084e-05	4.523335999e-11
-2.880000000e-02	2.678468465e-01	-2.861770807e-05	9.525277293e-12
-2.890000000e-02	2.678468346e-01	-2.590450599e-05	2.130108198e-11
-2.900000000e-02	2.678468225e-01	-2.319130463e-05	4.344371462e-11
-2.910000000e-02	2.678468104e-01	-2.047810398e-05	7.406709820e-12
-2.920000000e-02	2.678467982e-01	-1.776490405e-05	1.071892153e-11
-2.930000000e-02	2.678467860e-01	-1.505170483e-05	3.211397088e-11
-2.940000000e-02	2.678467736e-01	-1.233850635e-05	1.226431397e-11
-2.950000000e-02	2.678467612e-01	-9.625308588e-06	1.009652207e-11
-2.960000000e-02	2.678467487e-01	-6.912111563e-06	7.911949631e-12
-2.970000000e-02	2.678467361e-01	-4.198915277e-06	1.290045310e-11
-2.980000000e-02	2.678467234e-01	-1.485719732e-06	2.592396566e-11
-2.990000000e-02	2.678467106e-01	1.227475066e-06	1.174912462e-11
-3.000000000e-02	2.678466978e-01	3.940669115e-06	1.162034374e-11
