# Im(epsi1)     Re(omega/c)      Im(omega/c)      Eq(det).Opt det CON kz, R=0.5 \mum, mu_c=0.3, Re(epsi1)=3.90solve_det_conkz_vs_kz.py
0.000000000e+00	2.678462663e-01	-8.100300394e-04	1.992316007e-11
-1.000000000e-04	2.678462781e-01	-8.073168115e-04	5.638868541e-12
-2.000000000e-04	2.678462898e-01	-8.046035831e-04	7.352513703e-12
-3.000000000e-04	2.678463015e-01	-8.018903543e-04	1.795377449e-11
-4.000000000e-04	2.678463130e-01	-7.991771249e-04	1.664810453e-11
-5.000000000e-04	2.678463245e-01	-7.964638951e-04	3.270379212e-11
-6.000000000e-04	2.678463358e-01	-7.937506648e-04	7.497357721e-12
-7.000000000e-04	2.678463471e-01	-7.910374341e-04	1.120709818e-11
-8.000000000e-04	2.678463584e-01	-7.883242028e-04	1.051320109e-11
-9.000000000e-04	2.678463695e-01	-7.856109711e-04	9.922431139e-12
-1.000000000e-03	2.678463806e-01	-7.828977390e-04	1.222310693e-11
-1.100000000e-03	2.678463915e-01	-7.801845064e-04	1.167456859e-11
-1.200000000e-03	2.678464024e-01	-7.774712733e-04	2.657740685e-11
-1.300000000e-03	2.678464132e-01	-7.747580398e-04	1.962479430e-11
-1.400000000e-03	2.678464239e-01	-7.720448059e-04	1.261615769e-11
-1.500000000e-03	2.678464346e-01	-7.693315715e-04	7.265848795e-12
-1.600000000e-03	2.678464451e-01	-7.666183366e-04	1.266376696e-11
-1.700000000e-03	2.678464556e-01	-7.639051014e-04	7.172059283e-12
-1.800000000e-03	2.678464660e-01	-7.611918657e-04	9.262087996e-12
-1.900000000e-03	2.678464763e-01	-7.584786296e-04	2.017316532e-11
-2.000000000e-03	2.678464866e-01	-7.557653931e-04	9.112468992e-12
-2.100000000e-03	2.678464967e-01	-7.530521562e-04	1.278626697e-11
-2.200000000e-03	2.678465068e-01	-7.503389188e-04	6.289244941e-12
-2.300000000e-03	2.678465167e-01	-7.476256811e-04	8.636236136e-12
-2.400000000e-03	2.678465266e-01	-7.449124429e-04	5.912847779e-11
-2.500000000e-03	2.678465365e-01	-7.421992044e-04	1.844412392e-11
-2.600000000e-03	2.678465462e-01	-7.394859654e-04	2.811160165e-11
-2.700000000e-03	2.678465558e-01	-7.367727261e-04	8.609268704e-12
-2.800000000e-03	2.678465654e-01	-7.340594864e-04	1.775178690e-11
-2.900000000e-03	2.678465749e-01	-7.313462463e-04	4.415345541e-11
-3.000000000e-03	2.678465843e-01	-7.286330058e-04	9.154141868e-12
-3.100000000e-03	2.678465936e-01	-7.259197650e-04	1.441429608e-11
-3.200000000e-03	2.678466029e-01	-7.232065238e-04	1.162202811e-11
-3.300000000e-03	2.678466120e-01	-7.204932822e-04	7.605324966e-12
-3.400000000e-03	2.678466211e-01	-7.177800403e-04	1.132801567e-11
-3.500000000e-03	2.678466301e-01	-7.150667980e-04	3.775717364e-11
-3.600000000e-03	2.678466390e-01	-7.123535554e-04	3.461091009e-11
-3.700000000e-03	2.678466478e-01	-7.096403124e-04	8.762766476e-12
-3.800000000e-03	2.678466566e-01	-7.069270691e-04	4.214321749e-11
-3.900000000e-03	2.678466652e-01	-7.042138254e-04	1.538085651e-11
-4.000000000e-03	2.678466738e-01	-7.015005814e-04	1.233501691e-11
-4.100000000e-03	2.678466823e-01	-6.987873371e-04	1.389869638e-11
-4.200000000e-03	2.678466907e-01	-6.960740924e-04	3.147602024e-11
-4.300000000e-03	2.678466991e-01	-6.933608475e-04	5.605880534e-12
-4.400000000e-03	2.678467073e-01	-6.906476022e-04	3.185862475e-11
-4.500000000e-03	2.678467155e-01	-6.879343566e-04	9.233093298e-12
-4.600000000e-03	2.678467236e-01	-6.852211106e-04	2.730923909e-11
-4.700000000e-03	2.678467316e-01	-6.825078644e-04	1.266862257e-11
-4.800000000e-03	2.678467395e-01	-6.797946179e-04	2.877875571e-11
-4.900000000e-03	2.678467473e-01	-6.770813711e-04	1.596763075e-11
-5.000000000e-03	2.678467551e-01	-6.743681240e-04	1.445672746e-11
-5.100000000e-03	2.678467628e-01	-6.716548766e-04	1.547200691e-11
-5.200000000e-03	2.678467704e-01	-6.689416289e-04	1.279583893e-11
-5.300000000e-03	2.678467779e-01	-6.662283809e-04	1.643649606e-11
-5.400000000e-03	2.678467853e-01	-6.635151327e-04	7.868462642e-12
-5.500000000e-03	2.678467926e-01	-6.608018842e-04	2.558347248e-11
-5.600000000e-03	2.678467999e-01	-6.580886354e-04	9.802984774e-12
-5.700000000e-03	2.678468071e-01	-6.553753864e-04	1.323178935e-11
-5.800000000e-03	2.678468142e-01	-6.526621371e-04	1.012870306e-11
-5.900000000e-03	2.678468212e-01	-6.499488875e-04	1.718018625e-11
-6.000000000e-03	2.678468281e-01	-6.472356377e-04	3.709416477e-11
-6.100000000e-03	2.678468350e-01	-6.445223877e-04	3.668169251e-11
-6.200000000e-03	2.678468417e-01	-6.418091374e-04	1.222638415e-11
-6.300000000e-03	2.678468484e-01	-6.390958868e-04	2.688008393e-11
-6.400000000e-03	2.678468550e-01	-6.363826361e-04	9.617822181e-12
-6.500000000e-03	2.678468615e-01	-6.336693851e-04	1.241857505e-11
-6.600000000e-03	2.678468680e-01	-6.309561338e-04	9.218462488e-12
-6.700000000e-03	2.678468743e-01	-6.282428824e-04	1.166334836e-11
-6.800000000e-03	2.678468806e-01	-6.255296307e-04	1.538321362e-11
-6.900000000e-03	2.678468868e-01	-6.228163789e-04	7.406453114e-12
-7.000000000e-03	2.678468929e-01	-6.201031268e-04	1.022897874e-11
-7.100000000e-03	2.678468989e-01	-6.173898745e-04	9.533670109e-12
-7.200000000e-03	2.678469049e-01	-6.146766220e-04	1.059215476e-11
-7.300000000e-03	2.678469107e-01	-6.119633693e-04	2.229670874e-11
-7.400000000e-03	2.678469165e-01	-6.092501164e-04	9.454883155e-12
-7.500000000e-03	2.678469222e-01	-6.065368634e-04	4.856023576e-11
-7.600000000e-03	2.678469278e-01	-6.038236101e-04	7.358786615e-12
-7.700000000e-03	2.678469333e-01	-6.011103567e-04	1.256353471e-11
-7.800000000e-03	2.678469388e-01	-5.983971031e-04	9.373757642e-12
-7.900000000e-03	2.678469442e-01	-5.956838493e-04	6.662243155e-12
-8.000000000e-03	2.678469494e-01	-5.929705953e-04	4.544809249e-11
-8.100000000e-03	2.678469546e-01	-5.902573412e-04	1.108709981e-11
-8.200000000e-03	2.678469598e-01	-5.875440870e-04	1.024602470e-11
-8.300000000e-03	2.678469648e-01	-5.848308325e-04	1.954292281e-11
-8.400000000e-03	2.678469698e-01	-5.821175780e-04	1.789099346e-10
-8.500000000e-03	2.678469746e-01	-5.794043232e-04	8.105164555e-12
-8.600000000e-03	2.678469794e-01	-5.766910684e-04	1.053601276e-11
-8.700000000e-03	2.678469841e-01	-5.739778134e-04	7.094807173e-12
-8.800000000e-03	2.678469887e-01	-5.712645582e-04	1.257299348e-11
-8.900000000e-03	2.678469933e-01	-5.685513030e-04	2.232893183e-11
-9.000000000e-03	2.678469977e-01	-5.658380476e-04	1.583365481e-11
-9.100000000e-03	2.678470021e-01	-5.631247921e-04	5.761521924e-12
-9.200000000e-03	2.678470064e-01	-5.604115364e-04	4.819076299e-11
-9.300000000e-03	2.678470106e-01	-5.576982807e-04	9.916689565e-11
-9.400000000e-03	2.678470148e-01	-5.549850249e-04	6.510371157e-12
-9.500000000e-03	2.678470188e-01	-5.522717689e-04	1.454633119e-11
-9.600000000e-03	2.678470228e-01	-5.495585128e-04	1.354527772e-11
-9.700000000e-03	2.678470267e-01	-5.468452567e-04	1.337730214e-11
-9.800000000e-03	2.678470305e-01	-5.441320004e-04	1.678766642e-11
-9.900000000e-03	2.678470342e-01	-5.414187441e-04	1.006689971e-11
-1.000000000e-02	2.678470378e-01	-5.387054877e-04	1.623083040e-11
-1.010000000e-02	2.678470414e-01	-5.359922312e-04	2.497646977e-11
-1.020000000e-02	2.678470448e-01	-5.332789746e-04	1.092462161e-11
-1.030000000e-02	2.678470482e-01	-5.305657180e-04	1.308736468e-11
-1.040000000e-02	2.678470515e-01	-5.278524613e-04	2.017437205e-11
-1.050000000e-02	2.678470547e-01	-5.251392045e-04	1.462796961e-11
-1.060000000e-02	2.678470579e-01	-5.224259477e-04	9.358769393e-12
-1.070000000e-02	2.678470609e-01	-5.197126908e-04	2.534119081e-11
-1.080000000e-02	2.678470639e-01	-5.169994338e-04	7.951541049e-12
-1.090000000e-02	2.678470668e-01	-5.142861768e-04	4.260066418e-11
-1.100000000e-02	2.678470696e-01	-5.115729198e-04	1.111947736e-11
-1.110000000e-02	2.678470723e-01	-5.088596627e-04	2.074628213e-11
-1.120000000e-02	2.678470750e-01	-5.061464056e-04	3.173433268e-11
-1.130000000e-02	2.678470776e-01	-5.034331485e-04	1.190549912e-11
-1.140000000e-02	2.678470800e-01	-5.007198914e-04	1.415468192e-11
-1.150000000e-02	2.678470824e-01	-4.980066342e-04	5.638011840e-12
-1.160000000e-02	2.678470848e-01	-4.952933770e-04	9.340561946e-12
-1.170000000e-02	2.678470870e-01	-4.925801198e-04	2.396690961e-11
-1.180000000e-02	2.678470891e-01	-4.898668626e-04	1.192093482e-11
-1.190000000e-02	2.678470912e-01	-4.871536053e-04	9.142143909e-12
-1.200000000e-02	2.678470932e-01	-4.844403481e-04	1.125909850e-11
-1.210000000e-02	2.678470951e-01	-4.817270909e-04	1.124427283e-11
-1.220000000e-02	2.678470969e-01	-4.790138337e-04	4.110045361e-11
-1.230000000e-02	2.678470987e-01	-4.763005765e-04	7.651137126e-12
-1.240000000e-02	2.678471003e-01	-4.735873193e-04	1.117122392e-11
-1.250000000e-02	2.678471019e-01	-4.708740622e-04	1.432444462e-11
-1.260000000e-02	2.678471034e-01	-4.681608050e-04	2.663445390e-11
-1.270000000e-02	2.678471048e-01	-4.654475479e-04	1.025906576e-11
-1.280000000e-02	2.678471061e-01	-4.627342908e-04	2.093227870e-11
-1.290000000e-02	2.678471074e-01	-4.600210338e-04	2.061195659e-11
-1.300000000e-02	2.678471085e-01	-4.573077768e-04	8.873841685e-12
-1.310000000e-02	2.678471096e-01	-4.545945198e-04	9.977201783e-12
-1.320000000e-02	2.678471106e-01	-4.518812629e-04	5.174543407e-12
-1.330000000e-02	2.678471115e-01	-4.491680061e-04	6.939141014e-12
-1.340000000e-02	2.678471124e-01	-4.464547493e-04	9.011712464e-12
-1.350000000e-02	2.678471131e-01	-4.437414926e-04	1.142898740e-11
-1.360000000e-02	2.678471138e-01	-4.410282359e-04	1.292973840e-11
-1.370000000e-02	2.678471144e-01	-4.383149793e-04	1.408087767e-11
-1.380000000e-02	2.678471149e-01	-4.356017228e-04	1.742441120e-11
-1.390000000e-02	2.678471153e-01	-4.328884664e-04	7.772466890e-12
-1.400000000e-02	2.678471156e-01	-4.301752100e-04	1.718884930e-11
-1.410000000e-02	2.678471159e-01	-4.274619537e-04	1.397117700e-11
-1.420000000e-02	2.678471160e-01	-4.247486976e-04	8.450313029e-11
-1.430000000e-02	2.678471161e-01	-4.220354415e-04	1.188877086e-11
-1.440000000e-02	2.678471161e-01	-4.193221855e-04	1.399807027e-11
-1.450000000e-02	2.678471161e-01	-4.166089296e-04	3.054186737e-11
-1.460000000e-02	2.678471159e-01	-4.138956739e-04	2.351891954e-11
-1.470000000e-02	2.678471157e-01	-4.111824182e-04	1.310607192e-11
-1.480000000e-02	2.678471154e-01	-4.084691627e-04	1.430498089e-11
-1.490000000e-02	2.678471150e-01	-4.057559072e-04	1.580554914e-11
-1.500000000e-02	2.678471145e-01	-4.030426519e-04	1.511292187e-11
-1.510000000e-02	2.678471139e-01	-4.003293968e-04	6.475487865e-12
-1.520000000e-02	2.678471132e-01	-3.976161417e-04	1.060025456e-11
-1.530000000e-02	2.678471125e-01	-3.949028868e-04	7.111335956e-12
-1.540000000e-02	2.678471117e-01	-3.921896321e-04	1.158514442e-11
-1.550000000e-02	2.678471108e-01	-3.894763775e-04	1.859197352e-11
-1.560000000e-02	2.678471098e-01	-3.867631230e-04	2.489912588e-11
-1.570000000e-02	2.678471088e-01	-3.840498687e-04	9.847197806e-12
-1.580000000e-02	2.678471076e-01	-3.813366145e-04	1.010957080e-11
-1.590000000e-02	2.678471064e-01	-3.786233606e-04	1.105578023e-11
-1.600000000e-02	2.678471051e-01	-3.759101067e-04	1.360801217e-11
-1.610000000e-02	2.678471037e-01	-3.731968531e-04	1.526328371e-11
-1.620000000e-02	2.678471022e-01	-3.704835996e-04	1.193472427e-11
-1.630000000e-02	2.678471006e-01	-3.677703463e-04	5.136013139e-11
-1.640000000e-02	2.678470990e-01	-3.650570932e-04	7.959813605e-12
-1.650000000e-02	2.678470973e-01	-3.623438403e-04	8.459987691e-12
-1.660000000e-02	2.678470955e-01	-3.596305875e-04	6.277212292e-12
-1.670000000e-02	2.678470936e-01	-3.569173350e-04	4.161771652e-12
-1.680000000e-02	2.678470916e-01	-3.542040827e-04	1.242999667e-11
-1.690000000e-02	2.678470896e-01	-3.514908305e-04	2.146151722e-11
-1.700000000e-02	2.678470874e-01	-3.487775786e-04	1.365535740e-11
-1.710000000e-02	2.678470852e-01	-3.460643269e-04	1.545389880e-11
-1.720000000e-02	2.678470829e-01	-3.433510754e-04	8.016006426e-11
-1.730000000e-02	2.678470805e-01	-3.406378241e-04	1.447982585e-11
-1.740000000e-02	2.678470781e-01	-3.379245730e-04	1.782052411e-11
-1.750000000e-02	2.678470755e-01	-3.352113222e-04	1.889204391e-11
-1.760000000e-02	2.678470729e-01	-3.324980716e-04	1.983035938e-11
-1.770000000e-02	2.678470702e-01	-3.297848213e-04	1.845814456e-11
-1.780000000e-02	2.678470674e-01	-3.270715711e-04	7.333159183e-11
-1.790000000e-02	2.678470645e-01	-3.243583213e-04	1.283303495e-11
-1.800000000e-02	2.678470616e-01	-3.216450717e-04	7.118844144e-12
-1.810000000e-02	2.678470585e-01	-3.189318223e-04	1.817966981e-11
-1.820000000e-02	2.678470554e-01	-3.162185732e-04	5.881153638e-12
-1.830000000e-02	2.678470522e-01	-3.135053243e-04	1.911530718e-11
-1.840000000e-02	2.678470489e-01	-3.107920758e-04	1.266239291e-11
-1.850000000e-02	2.678470455e-01	-3.080788275e-04	1.803566589e-11
-1.860000000e-02	2.678470421e-01	-3.053655794e-04	1.815561429e-11
-1.870000000e-02	2.678470385e-01	-3.026523317e-04	1.243995593e-11
-1.880000000e-02	2.678470349e-01	-2.999390842e-04	1.225716701e-11
-1.890000000e-02	2.678470312e-01	-2.972258370e-04	7.416748922e-12
-1.900000000e-02	2.678470274e-01	-2.945125901e-04	7.274749007e-12
-1.910000000e-02	2.678470236e-01	-2.917993435e-04	1.239958675e-11
-1.920000000e-02	2.678470196e-01	-2.890860972e-04	4.312539452e-11
-1.930000000e-02	2.678470156e-01	-2.863728512e-04	1.825118020e-11
-1.940000000e-02	2.678470115e-01	-2.836596056e-04	3.438472731e-11
-1.950000000e-02	2.678470073e-01	-2.809463602e-04	8.502555986e-12
-1.960000000e-02	2.678470030e-01	-2.782331151e-04	2.675618408e-11
-1.970000000e-02	2.678469986e-01	-2.755198704e-04	5.916809568e-12
-1.980000000e-02	2.678469942e-01	-2.728066260e-04	2.342623571e-11
-1.990000000e-02	2.678469897e-01	-2.700933819e-04	4.572535891e-11
-2.000000000e-02	2.678469851e-01	-2.673801382e-04	1.029211472e-11
-2.010000000e-02	2.678469804e-01	-2.646668947e-04	4.629862746e-12
-2.020000000e-02	2.678469756e-01	-2.619536517e-04	8.128614331e-12
-2.030000000e-02	2.678469708e-01	-2.592404090e-04	2.371589489e-11
-2.040000000e-02	2.678469658e-01	-2.565271666e-04	7.459040551e-12
-2.050000000e-02	2.678469608e-01	-2.538139246e-04	1.304795471e-11
-2.060000000e-02	2.678469557e-01	-2.511006829e-04	8.211609382e-12
-2.070000000e-02	2.678469505e-01	-2.483874416e-04	2.217856094e-11
-2.080000000e-02	2.678469452e-01	-2.456742007e-04	1.720615592e-11
-2.090000000e-02	2.678469399e-01	-2.429609601e-04	1.754673683e-11
-2.100000000e-02	2.678469345e-01	-2.402477199e-04	1.480816485e-11
-2.110000000e-02	2.678469289e-01	-2.375344801e-04	1.665842075e-11
-2.120000000e-02	2.678469234e-01	-2.348212407e-04	2.405492286e-11
-2.130000000e-02	2.678469177e-01	-2.321080017e-04	2.801447470e-11
-2.140000000e-02	2.678469119e-01	-2.293947630e-04	1.594812702e-11
-2.150000000e-02	2.678469061e-01	-2.266815248e-04	1.388847848e-11
-2.160000000e-02	2.678469001e-01	-2.239682869e-04	2.040955104e-11
-2.170000000e-02	2.678468941e-01	-2.212550495e-04	8.418521491e-12
-2.180000000e-02	2.678468880e-01	-2.185418124e-04	9.921623683e-12
-2.190000000e-02	2.678468819e-01	-2.158285758e-04	1.747626021e-11
-2.200000000e-02	2.678468756e-01	-2.131153396e-04	6.681419078e-12
-2.210000000e-02	2.678468693e-01	-2.104021038e-04	1.504354746e-11
-2.220000000e-02	2.678468629e-01	-2.076888684e-04	6.232638619e-12
-2.230000000e-02	2.678468564e-01	-2.049756335e-04	6.006345911e-11
-2.240000000e-02	2.678468498e-01	-2.022623990e-04	7.630816868e-12
-2.250000000e-02	2.678468431e-01	-1.995491650e-04	2.028187946e-11
-2.260000000e-02	2.678468363e-01	-1.968359313e-04	1.803617777e-11
-2.270000000e-02	2.678468295e-01	-1.941226982e-04	8.185491527e-12
-2.280000000e-02	2.678468226e-01	-1.914094654e-04	1.895585411e-11
-2.290000000e-02	2.678468156e-01	-1.886962332e-04	1.209331975e-11
-2.300000000e-02	2.678468085e-01	-1.859830013e-04	3.114831321e-11
-2.310000000e-02	2.678468014e-01	-1.832697700e-04	7.715711240e-12
-2.320000000e-02	2.678467941e-01	-1.805565391e-04	1.667731399e-11
-2.330000000e-02	2.678467868e-01	-1.778433087e-04	8.168731793e-11
-2.340000000e-02	2.678467794e-01	-1.751300788e-04	1.248891442e-11
-2.350000000e-02	2.678467719e-01	-1.724168493e-04	1.672778874e-11
-2.360000000e-02	2.678467643e-01	-1.697036203e-04	9.364699532e-12
-2.370000000e-02	2.678467567e-01	-1.669903918e-04	1.684543113e-11
-2.380000000e-02	2.678467489e-01	-1.642771639e-04	1.036551944e-11
-2.390000000e-02	2.678467411e-01	-1.615639363e-04	3.270487675e-11
-2.400000000e-02	2.678467332e-01	-1.588507094e-04	1.198283846e-11
-2.410000000e-02	2.678467252e-01	-1.561374829e-04	4.378265204e-12
-2.420000000e-02	2.678467171e-01	-1.534242569e-04	9.185130996e-12
-2.430000000e-02	2.678467090e-01	-1.507110314e-04	9.681394043e-12
-2.440000000e-02	2.678467007e-01	-1.479978064e-04	1.566201359e-11
-2.450000000e-02	2.678466924e-01	-1.452845820e-04	1.609236754e-11
-2.460000000e-02	2.678466840e-01	-1.425713581e-04	1.010909897e-11
-2.470000000e-02	2.678466756e-01	-1.398581347e-04	1.347352332e-11
-2.480000000e-02	2.678466670e-01	-1.371449119e-04	2.169719582e-11
-2.490000000e-02	2.678466583e-01	-1.344316895e-04	1.341047302e-11
-2.500000000e-02	2.678466496e-01	-1.317184678e-04	6.858521547e-11
-2.510000000e-02	2.678466408e-01	-1.290052466e-04	3.305792078e-11
-2.520000000e-02	2.678466319e-01	-1.262920259e-04	3.178621318e-11
-2.530000000e-02	2.678466229e-01	-1.235788058e-04	3.244087547e-11
-2.540000000e-02	2.678466139e-01	-1.208655862e-04	1.715463168e-11
-2.550000000e-02	2.678466047e-01	-1.181523672e-04	1.507966820e-11
-2.560000000e-02	2.678465955e-01	-1.154391488e-04	5.734191601e-12
-2.570000000e-02	2.678465862e-01	-1.127259309e-04	2.028966118e-11
-2.580000000e-02	2.678465768e-01	-1.100127136e-04	2.732831637e-11
-2.590000000e-02	2.678465674e-01	-1.072994969e-04	2.889487321e-11
-2.600000000e-02	2.678465578e-01	-1.045862808e-04	8.729346617e-12
-2.610000000e-02	2.678465482e-01	-1.018730653e-04	1.990270063e-11
-2.620000000e-02	2.678465384e-01	-9.915985031e-05	9.124122490e-12
-2.630000000e-02	2.678465286e-01	-9.644663597e-05	5.608437814e-12
-2.640000000e-02	2.678465188e-01	-9.373342222e-05	9.391857296e-12
-2.650000000e-02	2.678465088e-01	-9.102020908e-05	1.497056595e-11
-2.660000000e-02	2.678464988e-01	-8.830699654e-05	3.788753005e-11
-2.670000000e-02	2.678464886e-01	-8.559378462e-05	1.817828141e-11
-2.680000000e-02	2.678464784e-01	-8.288057332e-05	5.225320791e-11
-2.690000000e-02	2.678464681e-01	-8.016736263e-05	2.394356098e-11
-2.700000000e-02	2.678464577e-01	-7.745415257e-05	2.537674093e-11
-2.710000000e-02	2.678464473e-01	-7.474094314e-05	5.279756051e-11
-2.720000000e-02	2.678464367e-01	-7.202773435e-05	1.175830227e-11
-2.730000000e-02	2.678464261e-01	-6.931452619e-05	1.081834754e-11
-2.740000000e-02	2.678464154e-01	-6.660131867e-05	1.660972261e-11
-2.750000000e-02	2.678464046e-01	-6.388811180e-05	2.517359334e-11
-2.760000000e-02	2.678463937e-01	-6.117490558e-05	2.944951426e-11
-2.770000000e-02	2.678463828e-01	-5.846170002e-05	2.225883979e-11
-2.780000000e-02	2.678463718e-01	-5.574849511e-05	4.216889640e-11
-2.790000000e-02	2.678463606e-01	-5.303529087e-05	9.954315376e-12
-2.800000000e-02	2.678463494e-01	-5.032208729e-05	1.238871985e-11
-2.810000000e-02	2.678463382e-01	-4.760888438e-05	1.500271232e-11
-2.820000000e-02	2.678463268e-01	-4.489568215e-05	2.463250002e-11
-2.830000000e-02	2.678463153e-01	-4.218248060e-05	1.060527242e-11
-2.840000000e-02	2.678463038e-01	-3.946927973e-05	6.840560794e-12
-2.850000000e-02	2.678462922e-01	-3.675607955e-05	6.741596323e-12
-2.860000000e-02	2.678462805e-01	-3.404288006e-05	7.458043527e-12
-2.870000000e-02	2.678462687e-01	-3.132968127e-05	1.827269060e-11
-2.880000000e-02	2.678462569e-01	-2.861648318e-05	3.999871325e-11
-2.890000000e-02	2.678462449e-01	-2.590328579e-05	3.833593833e-11
-2.900000000e-02	2.678462329e-01	-2.319008911e-05	8.790229906e-12
-2.910000000e-02	2.678462208e-01	-2.047689315e-05	3.790471206e-11
-2.920000000e-02	2.678462086e-01	-1.776369789e-05	1.706906963e-11
-2.930000000e-02	2.678461963e-01	-1.505050337e-05	4.902199180e-11
-2.940000000e-02	2.678461840e-01	-1.233730956e-05	2.596880807e-11
-2.950000000e-02	2.678461715e-01	-9.624116489e-06	1.335821516e-11
-2.960000000e-02	2.678461590e-01	-6.910924150e-06	2.483916989e-11
-2.970000000e-02	2.678461464e-01	-4.197732547e-06	1.419212114e-11
-2.980000000e-02	2.678461337e-01	-1.484541686e-06	4.410447864e-11
-2.990000000e-02	2.678461210e-01	1.228648426e-06	2.370551381e-11
-3.000000000e-02	2.678461081e-01	3.941837791e-06	9.872998910e-12
