# Im(epsi1)     Re(omega/c)      Im(omega/c)      Eq(det).Opt det CON kz, R=0.5 \mum, mu_c=0.3, Re(epsi1)=3.90solve_det_conkz_vs_kz.py
0.000000000e+00	2.678462969e-01	-8.100301730e-04	5.920601083e-12
-1.000000000e-04	2.678463087e-01	-8.073169449e-04	1.109391666e-11
-2.000000000e-04	2.678463204e-01	-8.046037163e-04	6.219541134e-12
-3.000000000e-04	2.678463321e-01	-8.018904872e-04	2.733780133e-11
-4.000000000e-04	2.678463436e-01	-7.991772576e-04	1.131471496e-11
-5.000000000e-04	2.678463551e-01	-7.964640276e-04	1.398267217e-11
-6.000000000e-04	2.678463665e-01	-7.937507970e-04	1.598813873e-11
-7.000000000e-04	2.678463778e-01	-7.910375660e-04	1.335872116e-11
-8.000000000e-04	2.678463890e-01	-7.883243345e-04	8.410725345e-12
-9.000000000e-04	2.678464001e-01	-7.856111026e-04	2.181315299e-11
-1.000000000e-03	2.678464112e-01	-7.828978702e-04	1.324279882e-11
-1.100000000e-03	2.678464221e-01	-7.801846373e-04	1.133576156e-11
-1.200000000e-03	2.678464330e-01	-7.774714040e-04	1.384225403e-11
-1.300000000e-03	2.678464438e-01	-7.747581703e-04	8.811806249e-12
-1.400000000e-03	2.678464546e-01	-7.720449361e-04	1.652631899e-11
-1.500000000e-03	2.678464652e-01	-7.693317015e-04	2.215501176e-11
-1.600000000e-03	2.678464758e-01	-7.666184664e-04	9.530198351e-12
-1.700000000e-03	2.678464862e-01	-7.639052309e-04	1.110309475e-11
-1.800000000e-03	2.678464966e-01	-7.611919950e-04	8.279880893e-12
-1.900000000e-03	2.678465069e-01	-7.584787586e-04	2.806238822e-11
-2.000000000e-03	2.678465172e-01	-7.557655219e-04	8.208178046e-12
-2.100000000e-03	2.678465273e-01	-7.530522847e-04	6.668520560e-12
-2.200000000e-03	2.678465374e-01	-7.503390471e-04	1.982076856e-11
-2.300000000e-03	2.678465474e-01	-7.476258091e-04	1.647271668e-11
-2.400000000e-03	2.678465573e-01	-7.449125707e-04	1.217657864e-11
-2.500000000e-03	2.678465671e-01	-7.421993319e-04	7.940318555e-12
-2.600000000e-03	2.678465768e-01	-7.394860928e-04	3.198828246e-11
-2.700000000e-03	2.678465865e-01	-7.367728532e-04	8.766741551e-12
-2.800000000e-03	2.678465960e-01	-7.340596132e-04	1.242414541e-11
-2.900000000e-03	2.678466055e-01	-7.313463729e-04	7.949686561e-12
-3.000000000e-03	2.678466149e-01	-7.286331322e-04	2.056090147e-11
-3.100000000e-03	2.678466242e-01	-7.259198911e-04	1.096667591e-11
-3.200000000e-03	2.678466335e-01	-7.232066497e-04	4.555134388e-12
-3.300000000e-03	2.678466426e-01	-7.204934078e-04	6.079056287e-12
-3.400000000e-03	2.678466517e-01	-7.177801657e-04	4.242149586e-12
-3.500000000e-03	2.678466607e-01	-7.150669231e-04	1.188359966e-11
-3.600000000e-03	2.678466696e-01	-7.123536803e-04	3.900790502e-12
-3.700000000e-03	2.678466784e-01	-7.096404370e-04	1.058266333e-11
-3.800000000e-03	2.678466872e-01	-7.069271935e-04	1.817453896e-11
-3.900000000e-03	2.678466959e-01	-7.042139496e-04	1.843169476e-11
-4.000000000e-03	2.678467044e-01	-7.015007053e-04	7.285521106e-12
-4.100000000e-03	2.678467129e-01	-6.987874608e-04	1.234614398e-11
-4.200000000e-03	2.678467213e-01	-6.960742159e-04	1.918733810e-11
-4.300000000e-03	2.678467297e-01	-6.933609706e-04	8.467236118e-12
-4.400000000e-03	2.678467379e-01	-6.906477251e-04	1.150609837e-11
-4.500000000e-03	2.678467461e-01	-6.879344793e-04	1.679200971e-11
-4.600000000e-03	2.678467542e-01	-6.852212331e-04	7.508084164e-12
-4.700000000e-03	2.678467622e-01	-6.825079866e-04	6.014145508e-11
-4.800000000e-03	2.678467701e-01	-6.797947399e-04	6.196613071e-12
-4.900000000e-03	2.678467779e-01	-6.770814928e-04	1.594066814e-11
-5.000000000e-03	2.678467857e-01	-6.743682455e-04	1.093050079e-11
-5.100000000e-03	2.678467934e-01	-6.716549978e-04	3.736154738e-11
-5.200000000e-03	2.678468010e-01	-6.689417499e-04	3.288563125e-12
-5.300000000e-03	2.678468085e-01	-6.662285017e-04	9.011218772e-12
-5.400000000e-03	2.678468159e-01	-6.635152532e-04	1.147812968e-11
-5.500000000e-03	2.678468232e-01	-6.608020045e-04	5.554184624e-12
-5.600000000e-03	2.678468305e-01	-6.580887554e-04	7.156587846e-12
-5.700000000e-03	2.678468377e-01	-6.553755061e-04	9.110256713e-12
-5.800000000e-03	2.678468448e-01	-6.526622566e-04	3.445138009e-11
-5.900000000e-03	2.678468518e-01	-6.499490068e-04	1.402401837e-11
-6.000000000e-03	2.678468587e-01	-6.472357568e-04	1.849618421e-10
-6.100000000e-03	2.678468656e-01	-6.445225065e-04	1.362881400e-11
-6.200000000e-03	2.678468723e-01	-6.418092559e-04	6.683405525e-12
-6.300000000e-03	2.678468790e-01	-6.390960051e-04	1.558707874e-11
-6.400000000e-03	2.678468856e-01	-6.363827541e-04	7.090238197e-12
-6.500000000e-03	2.678468922e-01	-6.336695029e-04	7.128275899e-12
-6.600000000e-03	2.678468986e-01	-6.309562514e-04	7.493728545e-12
-6.700000000e-03	2.678469049e-01	-6.282429997e-04	1.475879735e-11
-6.800000000e-03	2.678469112e-01	-6.255297478e-04	1.092424866e-11
-6.900000000e-03	2.678469174e-01	-6.228164957e-04	7.781952002e-12
-7.000000000e-03	2.678469235e-01	-6.201032434e-04	4.643774821e-12
-7.100000000e-03	2.678469295e-01	-6.173899909e-04	7.525113368e-12
-7.200000000e-03	2.678469355e-01	-6.146767381e-04	8.599616061e-12
-7.300000000e-03	2.678469413e-01	-6.119634852e-04	7.687904606e-11
-7.400000000e-03	2.678469471e-01	-6.092502321e-04	1.834480433e-11
-7.500000000e-03	2.678469528e-01	-6.065369788e-04	1.767711092e-11
-7.600000000e-03	2.678469584e-01	-6.038237253e-04	1.079018770e-11
-7.700000000e-03	2.678469640e-01	-6.011104716e-04	6.525739240e-12
-7.800000000e-03	2.678469694e-01	-5.983972177e-04	1.814117394e-11
-7.900000000e-03	2.678469748e-01	-5.956839637e-04	1.562136331e-11
-8.000000000e-03	2.678469801e-01	-5.929707095e-04	1.331444085e-11
-8.100000000e-03	2.678469853e-01	-5.902574552e-04	4.779218623e-11
-8.200000000e-03	2.678469904e-01	-5.875442007e-04	2.045271303e-11
-8.300000000e-03	2.678469954e-01	-5.848309460e-04	2.172095621e-11
-8.400000000e-03	2.678470004e-01	-5.821176912e-04	1.927146188e-11
-8.500000000e-03	2.678470052e-01	-5.794044362e-04	1.168843754e-11
-8.600000000e-03	2.678470100e-01	-5.766911811e-04	9.419906490e-12
-8.700000000e-03	2.678470147e-01	-5.739779259e-04	8.612484363e-12
-8.800000000e-03	2.678470194e-01	-5.712646705e-04	1.277042464e-11
-8.900000000e-03	2.678470239e-01	-5.685514150e-04	8.501928077e-12
-9.000000000e-03	2.678470284e-01	-5.658381593e-04	1.577339140e-11
-9.100000000e-03	2.678470327e-01	-5.631249036e-04	2.202328550e-11
-9.200000000e-03	2.678470370e-01	-5.604116477e-04	9.295059188e-12
-9.300000000e-03	2.678470412e-01	-5.576983917e-04	2.594142322e-11
-9.400000000e-03	2.678470454e-01	-5.549851356e-04	1.219077807e-11
-9.500000000e-03	2.678470494e-01	-5.522718794e-04	2.060020126e-11
-9.600000000e-03	2.678470534e-01	-5.495586231e-04	1.240905803e-11
-9.700000000e-03	2.678470573e-01	-5.468453667e-04	1.054010015e-11
-9.800000000e-03	2.678470611e-01	-5.441321103e-04	2.375281325e-11
-9.900000000e-03	2.678470648e-01	-5.414188537e-04	5.625356598e-12
-1.000000000e-02	2.678470684e-01	-5.387055970e-04	8.065014459e-12
-1.010000000e-02	2.678470720e-01	-5.359923403e-04	1.693226686e-11
-1.020000000e-02	2.678470754e-01	-5.332790835e-04	3.114880211e-11
-1.030000000e-02	2.678470788e-01	-5.305658266e-04	2.231534366e-11
-1.040000000e-02	2.678470821e-01	-5.278525696e-04	1.503061150e-11
-1.050000000e-02	2.678470854e-01	-5.251393126e-04	2.468063171e-11
-1.060000000e-02	2.678470885e-01	-5.224260555e-04	6.153200738e-12
-1.070000000e-02	2.678470916e-01	-5.197127984e-04	3.523508081e-12
-1.080000000e-02	2.678470945e-01	-5.169995412e-04	6.251283667e-12
-1.090000000e-02	2.678470974e-01	-5.142862840e-04	9.886243935e-12
-1.100000000e-02	2.678471002e-01	-5.115730267e-04	1.799375183e-11
-1.110000000e-02	2.678471030e-01	-5.088597694e-04	1.156277275e-11
-1.120000000e-02	2.678471056e-01	-5.061465121e-04	8.795854842e-12
-1.130000000e-02	2.678471082e-01	-5.034332547e-04	2.066432628e-11
-1.140000000e-02	2.678471107e-01	-5.007199973e-04	9.547415896e-12
-1.150000000e-02	2.678471131e-01	-4.980067399e-04	1.563695591e-11
-1.160000000e-02	2.678471154e-01	-4.952934824e-04	1.242435658e-11
-1.170000000e-02	2.678471176e-01	-4.925802250e-04	1.477081486e-11
-1.180000000e-02	2.678471198e-01	-4.898669675e-04	5.908109872e-12
-1.190000000e-02	2.678471218e-01	-4.871537101e-04	4.971804122e-11
-1.200000000e-02	2.678471238e-01	-4.844404526e-04	1.432829091e-11
-1.210000000e-02	2.678471257e-01	-4.817271951e-04	7.081425997e-12
-1.220000000e-02	2.678471275e-01	-4.790139377e-04	8.504534795e-12
-1.230000000e-02	2.678471293e-01	-4.763006802e-04	2.179125265e-11
-1.240000000e-02	2.678471309e-01	-4.735874228e-04	1.462447548e-11
-1.250000000e-02	2.678471325e-01	-4.708741654e-04	3.399534160e-12
-1.260000000e-02	2.678471340e-01	-4.681609080e-04	3.610660499e-12
-1.270000000e-02	2.678471354e-01	-4.654476507e-04	3.717090054e-11
-1.280000000e-02	2.678471367e-01	-4.627343934e-04	9.273620324e-12
-1.290000000e-02	2.678471380e-01	-4.600211361e-04	8.702885804e-12
-1.300000000e-02	2.678471391e-01	-4.573078788e-04	2.150617443e-11
-1.310000000e-02	2.678471402e-01	-4.545946216e-04	2.659447481e-11
-1.320000000e-02	2.678471412e-01	-4.518813645e-04	4.695675233e-12
-1.330000000e-02	2.678471421e-01	-4.491681074e-04	1.251474655e-11
-1.340000000e-02	2.678471430e-01	-4.464548504e-04	2.850618637e-11
-1.350000000e-02	2.678471437e-01	-4.437415934e-04	1.362852405e-11
-1.360000000e-02	2.678471444e-01	-4.410283365e-04	1.566615634e-11
-1.370000000e-02	2.678471450e-01	-4.383150797e-04	8.598731445e-12
-1.380000000e-02	2.678471455e-01	-4.356018229e-04	7.515365415e-12
-1.390000000e-02	2.678471459e-01	-4.328885662e-04	2.450399344e-11
-1.400000000e-02	2.678471462e-01	-4.301753096e-04	8.498990651e-12
-1.410000000e-02	2.678471465e-01	-4.274620531e-04	1.082514828e-11
-1.420000000e-02	2.678471467e-01	-4.247487967e-04	8.848912325e-12
-1.430000000e-02	2.678471468e-01	-4.220355404e-04	1.354845842e-11
-1.440000000e-02	2.678471468e-01	-4.193222841e-04	1.065523253e-11
-1.450000000e-02	2.678471467e-01	-4.166090280e-04	2.801383289e-11
-1.460000000e-02	2.678471465e-01	-4.138957720e-04	1.125870474e-11
-1.470000000e-02	2.678471463e-01	-4.111825161e-04	1.459489559e-11
-1.480000000e-02	2.678471460e-01	-4.084692603e-04	9.059031663e-12
-1.490000000e-02	2.678471456e-01	-4.057560046e-04	1.163252359e-11
-1.500000000e-02	2.678471451e-01	-4.030427491e-04	7.483975619e-12
-1.510000000e-02	2.678471445e-01	-4.003294937e-04	1.059161495e-11
-1.520000000e-02	2.678471439e-01	-3.976162384e-04	1.383739018e-11
-1.530000000e-02	2.678471431e-01	-3.949029833e-04	1.013600763e-11
-1.540000000e-02	2.678471423e-01	-3.921897283e-04	1.514969456e-11
-1.550000000e-02	2.678471414e-01	-3.894764734e-04	1.985831744e-11
-1.560000000e-02	2.678471404e-01	-3.867632187e-04	1.449214770e-11
-1.570000000e-02	2.678471394e-01	-3.840499642e-04	1.119886995e-11
-1.580000000e-02	2.678471382e-01	-3.813367098e-04	1.045921671e-11
-1.590000000e-02	2.678471370e-01	-3.786234555e-04	1.786333636e-11
-1.600000000e-02	2.678471357e-01	-3.759102015e-04	1.403308720e-11
-1.610000000e-02	2.678471343e-01	-3.731969476e-04	2.989487396e-11
-1.620000000e-02	2.678471328e-01	-3.704836939e-04	1.528245159e-11
-1.630000000e-02	2.678471313e-01	-3.677704403e-04	1.089185333e-11
-1.640000000e-02	2.678471296e-01	-3.650571870e-04	1.717308193e-11
-1.650000000e-02	2.678471279e-01	-3.623439338e-04	8.718873630e-12
-1.660000000e-02	2.678471261e-01	-3.596306808e-04	1.248029584e-11
-1.670000000e-02	2.678471242e-01	-3.569174280e-04	8.722383982e-12
-1.680000000e-02	2.678471222e-01	-3.542041754e-04	7.534036265e-12
-1.690000000e-02	2.678471202e-01	-3.514909231e-04	1.079853253e-11
-1.700000000e-02	2.678471180e-01	-3.487776709e-04	1.819090379e-11
-1.710000000e-02	2.678471158e-01	-3.460644189e-04	6.466524998e-12
-1.720000000e-02	2.678471135e-01	-3.433511672e-04	1.262130385e-11
-1.730000000e-02	2.678471111e-01	-3.406379157e-04	5.492076153e-12
-1.740000000e-02	2.678471087e-01	-3.379246644e-04	1.067396062e-11
-1.750000000e-02	2.678471061e-01	-3.352114133e-04	1.782438577e-11
-1.760000000e-02	2.678471035e-01	-3.324981625e-04	7.835969670e-12
-1.770000000e-02	2.678471008e-01	-3.297849119e-04	3.348449569e-11
-1.780000000e-02	2.678470980e-01	-3.270716615e-04	1.020229455e-10
-1.790000000e-02	2.678470951e-01	-3.243584114e-04	2.468956460e-11
-1.800000000e-02	2.678470922e-01	-3.216451615e-04	4.349327082e-11
-1.810000000e-02	2.678470891e-01	-3.189319119e-04	1.102583615e-11
-1.820000000e-02	2.678470860e-01	-3.162186626e-04	6.932573035e-12
-1.830000000e-02	2.678470828e-01	-3.135054135e-04	1.837914171e-11
-1.840000000e-02	2.678470795e-01	-3.107921647e-04	1.144300410e-11
-1.850000000e-02	2.678470761e-01	-3.080789161e-04	2.228866392e-11
-1.860000000e-02	2.678470727e-01	-3.053656678e-04	1.347118135e-11
-1.870000000e-02	2.678470691e-01	-3.026524198e-04	1.260703108e-11
-1.880000000e-02	2.678470655e-01	-2.999391721e-04	1.645449380e-11
-1.890000000e-02	2.678470618e-01	-2.972259247e-04	6.211881996e-12
-1.900000000e-02	2.678470580e-01	-2.945126776e-04	1.012833177e-11
-1.910000000e-02	2.678470542e-01	-2.917994307e-04	6.173958583e-12
-1.920000000e-02	2.678470502e-01	-2.890861842e-04	2.591297775e-11
-1.930000000e-02	2.678470462e-01	-2.863729379e-04	1.012686513e-11
-1.940000000e-02	2.678470421e-01	-2.836596920e-04	1.576199613e-11
-1.950000000e-02	2.678470379e-01	-2.809464464e-04	1.664278258e-11
-1.960000000e-02	2.678470336e-01	-2.782332011e-04	4.432127882e-11
-1.970000000e-02	2.678470293e-01	-2.755199561e-04	1.700233912e-11
-1.980000000e-02	2.678470248e-01	-2.728067115e-04	1.189802285e-11
-1.990000000e-02	2.678470203e-01	-2.700934672e-04	7.232286971e-11
-2.000000000e-02	2.678470157e-01	-2.673802232e-04	5.742995025e-11
-2.010000000e-02	2.678470110e-01	-2.646669795e-04	8.829375449e-12
-2.020000000e-02	2.678470062e-01	-2.619537362e-04	3.592877307e-12
-2.030000000e-02	2.678470014e-01	-2.592404932e-04	1.660202987e-11
-2.040000000e-02	2.678469964e-01	-2.565272506e-04	1.992771527e-11
-2.050000000e-02	2.678469914e-01	-2.538140083e-04	1.570335379e-11
-2.060000000e-02	2.678469863e-01	-2.511007664e-04	9.723878908e-12
-2.070000000e-02	2.678469811e-01	-2.483875249e-04	2.181824205e-11
-2.080000000e-02	2.678469759e-01	-2.456742837e-04	1.723187210e-11
-2.090000000e-02	2.678469705e-01	-2.429610429e-04	1.342368216e-11
-2.100000000e-02	2.678469651e-01	-2.402478025e-04	1.033743719e-11
-2.110000000e-02	2.678469596e-01	-2.375345624e-04	3.772997564e-11
-2.120000000e-02	2.678469540e-01	-2.348213228e-04	7.925920612e-12
-2.130000000e-02	2.678469483e-01	-2.321080835e-04	1.495875509e-11
-2.140000000e-02	2.678469425e-01	-2.293948446e-04	1.526021417e-11
-2.150000000e-02	2.678469367e-01	-2.266816061e-04	3.314213522e-11
-2.160000000e-02	2.678469308e-01	-2.239683680e-04	1.346727556e-11
-2.170000000e-02	2.678469247e-01	-2.212551303e-04	8.645000822e-12
-2.180000000e-02	2.678469187e-01	-2.185418931e-04	8.173200451e-12
-2.190000000e-02	2.678469125e-01	-2.158286562e-04	1.143206753e-11
-2.200000000e-02	2.678469062e-01	-2.131154197e-04	1.336029807e-11
-2.210000000e-02	2.678468999e-01	-2.104021837e-04	1.287629934e-11
-2.220000000e-02	2.678468935e-01	-2.076889481e-04	4.481050733e-11
-2.230000000e-02	2.678468870e-01	-2.049757129e-04	1.210054443e-11
-2.240000000e-02	2.678468804e-01	-2.022624782e-04	7.126404097e-12
-2.250000000e-02	2.678468737e-01	-1.995492439e-04	1.078045493e-11
-2.260000000e-02	2.678468670e-01	-1.968360100e-04	1.604049110e-11
-2.270000000e-02	2.678468601e-01	-1.941227766e-04	1.407160484e-11
-2.280000000e-02	2.678468532e-01	-1.914095436e-04	1.734432614e-11
-2.290000000e-02	2.678468462e-01	-1.886963111e-04	2.180126509e-11
-2.300000000e-02	2.678468391e-01	-1.859830791e-04	1.873348483e-11
-2.310000000e-02	2.678468320e-01	-1.832698475e-04	1.066580176e-11
-2.320000000e-02	2.678468247e-01	-1.805566163e-04	3.356791225e-11
-2.330000000e-02	2.678468174e-01	-1.778433857e-04	9.507972382e-12
-2.340000000e-02	2.678468100e-01	-1.751301555e-04	2.311086956e-11
-2.350000000e-02	2.678468025e-01	-1.724169258e-04	1.419266406e-11
-2.360000000e-02	2.678467949e-01	-1.697036966e-04	7.724372482e-11
-2.370000000e-02	2.678467873e-01	-1.669904679e-04	9.731212296e-12
-2.380000000e-02	2.678467795e-01	-1.642772396e-04	9.995883487e-12
-2.390000000e-02	2.678467717e-01	-1.615640119e-04	5.858026295e-12
-2.400000000e-02	2.678467638e-01	-1.588507846e-04	1.063931194e-11
-2.410000000e-02	2.678467558e-01	-1.561375579e-04	9.348602207e-12
-2.420000000e-02	2.678467477e-01	-1.534243317e-04	1.308416380e-11
-2.430000000e-02	2.678467396e-01	-1.507111059e-04	2.501817229e-11
-2.440000000e-02	2.678467314e-01	-1.479978807e-04	1.072312117e-11
-2.450000000e-02	2.678467230e-01	-1.452846561e-04	1.659174537e-11
-2.460000000e-02	2.678467146e-01	-1.425714319e-04	9.110051985e-12
-2.470000000e-02	2.678467062e-01	-1.398582083e-04	2.891030183e-11
-2.480000000e-02	2.678466976e-01	-1.371449852e-04	6.077984501e-12
-2.490000000e-02	2.678466890e-01	-1.344317626e-04	1.185742714e-11
-2.500000000e-02	2.678466802e-01	-1.317185406e-04	1.629551768e-11
-2.510000000e-02	2.678466714e-01	-1.290053192e-04	5.825440496e-12
-2.520000000e-02	2.678466625e-01	-1.262920982e-04	9.422158676e-12
-2.530000000e-02	2.678466536e-01	-1.235788779e-04	8.774596425e-12
-2.540000000e-02	2.678466445e-01	-1.208656581e-04	6.019877108e-12
-2.550000000e-02	2.678466354e-01	-1.181524388e-04	1.450309187e-11
-2.560000000e-02	2.678466261e-01	-1.154392201e-04	2.084328045e-11
-2.570000000e-02	2.678466168e-01	-1.127260020e-04	1.781315723e-11
-2.580000000e-02	2.678466074e-01	-1.100127845e-04	5.872194867e-12
-2.590000000e-02	2.678465980e-01	-1.072995676e-04	2.770211065e-11
-2.600000000e-02	2.678465884e-01	-1.045863512e-04	7.814673275e-12
-2.610000000e-02	2.678465788e-01	-1.018731354e-04	4.246445176e-11
-2.620000000e-02	2.678465691e-01	-9.915992024e-05	6.460527543e-12
-2.630000000e-02	2.678465593e-01	-9.644670565e-05	1.154496157e-11
-2.640000000e-02	2.678465494e-01	-9.373349166e-05	6.104587248e-12
-2.650000000e-02	2.678465394e-01	-9.102027827e-05	1.319561713e-11
-2.660000000e-02	2.678465294e-01	-8.830706549e-05	1.160077662e-11
-2.670000000e-02	2.678465192e-01	-8.559385333e-05	1.058988678e-11
-2.680000000e-02	2.678465090e-01	-8.288064178e-05	1.419627448e-11
-2.690000000e-02	2.678464987e-01	-8.016743085e-05	8.978125127e-12
-2.700000000e-02	2.678464884e-01	-7.745422055e-05	1.258765300e-11
-2.710000000e-02	2.678464779e-01	-7.474101088e-05	2.297628491e-11
-2.720000000e-02	2.678464674e-01	-7.202780184e-05	1.015352182e-11
-2.730000000e-02	2.678464567e-01	-6.931459344e-05	1.005522163e-11
-2.740000000e-02	2.678464460e-01	-6.660138568e-05	7.839997485e-12
-2.750000000e-02	2.678464352e-01	-6.388817856e-05	1.659006397e-11
-2.760000000e-02	2.678464244e-01	-6.117497210e-05	5.580622959e-11
-2.770000000e-02	2.678464134e-01	-5.846176629e-05	3.179501616e-11
-2.780000000e-02	2.678464024e-01	-5.574856114e-05	5.953943177e-12
-2.790000000e-02	2.678463913e-01	-5.303535666e-05	1.122073405e-11
-2.800000000e-02	2.678463801e-01	-5.032215283e-05	4.987042058e-12
-2.810000000e-02	2.678463688e-01	-4.760894968e-05	8.416753609e-12
-2.820000000e-02	2.678463574e-01	-4.489574721e-05	1.866218207e-11
-2.830000000e-02	2.678463460e-01	-4.218254542e-05	1.691908350e-11
-2.840000000e-02	2.678463344e-01	-3.946934430e-05	1.180583368e-11
-2.850000000e-02	2.678463228e-01	-3.675614388e-05	2.790276248e-11
-2.860000000e-02	2.678463111e-01	-3.404294415e-05	3.137797556e-11
-2.870000000e-02	2.678462993e-01	-3.132974511e-05	4.922277352e-11
-2.880000000e-02	2.678462875e-01	-2.861654678e-05	1.246846484e-11
-2.890000000e-02	2.678462755e-01	-2.590334915e-05	2.095874026e-11
-2.900000000e-02	2.678462635e-01	-2.319015222e-05	5.347203396e-12
-2.910000000e-02	2.678462514e-01	-2.047695601e-05	1.539230271e-11
-2.920000000e-02	2.678462392e-01	-1.776376052e-05	6.120898253e-12
-2.930000000e-02	2.678462269e-01	-1.505056575e-05	1.142064479e-11
-2.940000000e-02	2.678462146e-01	-1.233737170e-05	9.438200763e-12
-2.950000000e-02	2.678462022e-01	-9.624178386e-06	1.478738298e-11
-2.960000000e-02	2.678461896e-01	-6.910985804e-06	7.967910859e-12
-2.970000000e-02	2.678461770e-01	-4.197793958e-06	1.148125136e-11
-2.980000000e-02	2.678461643e-01	-1.484602855e-06	9.634486892e-12
-2.990000000e-02	2.678461516e-01	1.228587503e-06	1.277826538e-11
-3.000000000e-02	2.678461387e-01	3.941777110e-06	1.900416437e-11
