# Im(epsi1)     Re(omega/c)      Im(omega/c)      Eq(det).Opt det CON kz, R=0.5 \mum, mu_c=0.3, Re(epsi1)=3.90solve_det_conkz_vs_kz.py
0.000000000e+00	2.678511953e-01	-8.100515561e-04	1.881910750e-11
-1.000000000e-04	2.678512071e-01	-8.073382891e-04	8.725231718e-12
-2.000000000e-04	2.678512188e-01	-8.046250216e-04	9.283000443e-12
-3.000000000e-04	2.678512304e-01	-8.019117536e-04	1.377289779e-11
-4.000000000e-04	2.678512420e-01	-7.991984851e-04	1.588812139e-11
-5.000000000e-04	2.678512534e-01	-7.964852161e-04	6.270298019e-12
-6.000000000e-04	2.678512648e-01	-7.937719467e-04	1.132560552e-11
-7.000000000e-04	2.678512761e-01	-7.910586767e-04	1.302604642e-11
-8.000000000e-04	2.678512873e-01	-7.883454064e-04	8.231531722e-11
-9.000000000e-04	2.678512985e-01	-7.856321355e-04	1.882585035e-11
-1.000000000e-03	2.678513095e-01	-7.829188642e-04	3.940023874e-11
-1.100000000e-03	2.678513205e-01	-7.802055924e-04	1.673878767e-11
-1.200000000e-03	2.678513314e-01	-7.774923202e-04	9.635676814e-12
-1.300000000e-03	2.678513422e-01	-7.747790475e-04	5.362828841e-11
-1.400000000e-03	2.678513529e-01	-7.720657744e-04	8.586210351e-12
-1.500000000e-03	2.678513635e-01	-7.693525009e-04	1.398125061e-11
-1.600000000e-03	2.678513741e-01	-7.666392269e-04	2.850310711e-11
-1.700000000e-03	2.678513846e-01	-7.639259525e-04	7.503852531e-12
-1.800000000e-03	2.678513950e-01	-7.612126777e-04	1.591684588e-11
-1.900000000e-03	2.678514053e-01	-7.584994024e-04	7.806836088e-11
-2.000000000e-03	2.678514155e-01	-7.557861267e-04	2.230648689e-11
-2.100000000e-03	2.678514257e-01	-7.530728506e-04	2.283660839e-11
-2.200000000e-03	2.678514357e-01	-7.503595742e-04	3.547334369e-11
-2.300000000e-03	2.678514457e-01	-7.476462972e-04	9.573852922e-12
-2.400000000e-03	2.678514556e-01	-7.449330199e-04	1.830496722e-11
-2.500000000e-03	2.678514654e-01	-7.422197422e-04	1.776314675e-11
-2.600000000e-03	2.678514752e-01	-7.395064641e-04	1.900841363e-11
-2.700000000e-03	2.678514848e-01	-7.367931857e-04	1.685285048e-11
-2.800000000e-03	2.678514944e-01	-7.340799068e-04	7.388242027e-12
-2.900000000e-03	2.678515039e-01	-7.313666276e-04	1.676856624e-11
-3.000000000e-03	2.678515133e-01	-7.286533479e-04	4.305782303e-11
-3.100000000e-03	2.678515226e-01	-7.259400679e-04	1.389806202e-11
-3.200000000e-03	2.678515318e-01	-7.232267876e-04	6.955703342e-12
-3.300000000e-03	2.678515410e-01	-7.205135068e-04	6.348380185e-12
-3.400000000e-03	2.678515501e-01	-7.178002258e-04	1.966059441e-11
-3.500000000e-03	2.678515591e-01	-7.150869443e-04	8.783875654e-12
-3.600000000e-03	2.678515680e-01	-7.123736625e-04	1.231047976e-11
-3.700000000e-03	2.678515768e-01	-7.096603804e-04	7.751308723e-12
-3.800000000e-03	2.678515855e-01	-7.069470979e-04	2.498733150e-11
-3.900000000e-03	2.678515942e-01	-7.042338151e-04	4.826314769e-11
-4.000000000e-03	2.678516028e-01	-7.015205319e-04	1.572183524e-11
-4.100000000e-03	2.678516113e-01	-6.988072485e-04	1.244609763e-11
-4.200000000e-03	2.678516197e-01	-6.960939646e-04	2.255628868e-11
-4.300000000e-03	2.678516280e-01	-6.933806805e-04	1.169318055e-11
-4.400000000e-03	2.678516363e-01	-6.906673961e-04	6.920304272e-12
-4.500000000e-03	2.678516445e-01	-6.879541113e-04	6.855731872e-12
-4.600000000e-03	2.678516525e-01	-6.852408262e-04	1.916599491e-11
-4.700000000e-03	2.678516605e-01	-6.825275409e-04	2.961765597e-11
-4.800000000e-03	2.678516685e-01	-6.798142552e-04	2.555094686e-11
-4.900000000e-03	2.678516763e-01	-6.771009692e-04	1.460394143e-11
-5.000000000e-03	2.678516841e-01	-6.743876829e-04	7.768340573e-12
-5.100000000e-03	2.678516917e-01	-6.716743964e-04	4.881446505e-11
-5.200000000e-03	2.678516993e-01	-6.689611095e-04	8.400706875e-12
-5.300000000e-03	2.678517068e-01	-6.662478224e-04	1.496187268e-11
-5.400000000e-03	2.678517143e-01	-6.635345350e-04	9.644612623e-12
-5.500000000e-03	2.678517216e-01	-6.608212474e-04	7.043404090e-12
-5.600000000e-03	2.678517289e-01	-6.581079594e-04	2.003128484e-11
-5.700000000e-03	2.678517361e-01	-6.553946712e-04	1.110172093e-11
-5.800000000e-03	2.678517431e-01	-6.526813828e-04	8.018788776e-12
-5.900000000e-03	2.678517502e-01	-6.499680941e-04	2.304303441e-11
-6.000000000e-03	2.678517571e-01	-6.472548051e-04	1.289763656e-11
-6.100000000e-03	2.678517639e-01	-6.445415159e-04	5.837975758e-12
-6.200000000e-03	2.678517707e-01	-6.418282264e-04	1.859492997e-11
-6.300000000e-03	2.678517774e-01	-6.391149368e-04	4.562274264e-11
-6.400000000e-03	2.678517840e-01	-6.364016468e-04	1.259957511e-11
-6.500000000e-03	2.678517905e-01	-6.336883567e-04	1.045868857e-11
-6.600000000e-03	2.678517970e-01	-6.309750663e-04	1.444224664e-11
-6.700000000e-03	2.678518033e-01	-6.282617757e-04	1.465376101e-11
-6.800000000e-03	2.678518096e-01	-6.255484849e-04	8.899839915e-12
-6.900000000e-03	2.678518158e-01	-6.228351938e-04	1.059002551e-11
-7.000000000e-03	2.678518219e-01	-6.201219026e-04	1.594609829e-11
-7.100000000e-03	2.678518279e-01	-6.174086112e-04	3.109498130e-11
-7.200000000e-03	2.678518339e-01	-6.146953195e-04	6.368528072e-11
-7.300000000e-03	2.678518397e-01	-6.119820277e-04	1.143542072e-11
-7.400000000e-03	2.678518455e-01	-6.092687356e-04	1.169433442e-11
-7.500000000e-03	2.678518512e-01	-6.065554434e-04	7.453643889e-12
-7.600000000e-03	2.678518568e-01	-6.038421510e-04	1.039228334e-11
-7.700000000e-03	2.678518623e-01	-6.011288584e-04	1.181100081e-11
-7.800000000e-03	2.678518678e-01	-5.984155656e-04	1.724408662e-11
-7.900000000e-03	2.678518731e-01	-5.957022727e-04	1.231301285e-11
-8.000000000e-03	2.678518784e-01	-5.929889796e-04	1.378342363e-11
-8.100000000e-03	2.678518836e-01	-5.902756863e-04	2.113576024e-11
-8.200000000e-03	2.678518888e-01	-5.875623929e-04	6.712782999e-12
-8.300000000e-03	2.678518938e-01	-5.848490993e-04	4.107911577e-12
-8.400000000e-03	2.678518987e-01	-5.821358056e-04	1.828256427e-11
-8.500000000e-03	2.678519036e-01	-5.794225117e-04	2.910561184e-11
-8.600000000e-03	2.678519084e-01	-5.767092177e-04	5.245663940e-12
-8.700000000e-03	2.678519131e-01	-5.739959235e-04	1.568013775e-11
-8.800000000e-03	2.678519177e-01	-5.712826293e-04	1.822564632e-11
-8.900000000e-03	2.678519223e-01	-5.685693348e-04	1.422270691e-11
-9.000000000e-03	2.678519267e-01	-5.658560403e-04	1.530199375e-11
-9.100000000e-03	2.678519311e-01	-5.631427456e-04	6.100509768e-12
-9.200000000e-03	2.678519354e-01	-5.604294508e-04	1.202469547e-11
-9.300000000e-03	2.678519396e-01	-5.577161559e-04	1.123351058e-11
-9.400000000e-03	2.678519437e-01	-5.550028609e-04	6.854844685e-12
-9.500000000e-03	2.678519478e-01	-5.522895658e-04	2.558142037e-11
-9.600000000e-03	2.678519518e-01	-5.495762706e-04	1.012279388e-11
-9.700000000e-03	2.678519556e-01	-5.468629753e-04	1.094651480e-11
-9.800000000e-03	2.678519594e-01	-5.441496799e-04	2.244335878e-11
-9.900000000e-03	2.678519632e-01	-5.414363844e-04	1.034890822e-11
-1.000000000e-02	2.678519668e-01	-5.387230888e-04	2.555110432e-11
-1.010000000e-02	2.678519704e-01	-5.360097932e-04	1.971260786e-11
-1.020000000e-02	2.678519738e-01	-5.332964974e-04	6.881291717e-12
-1.030000000e-02	2.678519772e-01	-5.305832016e-04	2.203188362e-11
-1.040000000e-02	2.678519805e-01	-5.278699058e-04	4.982490175e-11
-1.050000000e-02	2.678519837e-01	-5.251566098e-04	1.352731279e-11
-1.060000000e-02	2.678519869e-01	-5.224433138e-04	1.234226233e-11
-1.070000000e-02	2.678519899e-01	-5.197300178e-04	5.502226963e-12
-1.080000000e-02	2.678519929e-01	-5.170167217e-04	5.702739430e-12
-1.090000000e-02	2.678519958e-01	-5.143034255e-04	9.076761015e-12
-1.100000000e-02	2.678519986e-01	-5.115901294e-04	1.474883759e-11
-1.110000000e-02	2.678520013e-01	-5.088768331e-04	6.333066449e-11
-1.120000000e-02	2.678520040e-01	-5.061635369e-04	1.079868274e-11
-1.130000000e-02	2.678520066e-01	-5.034502406e-04	2.973209571e-11
-1.140000000e-02	2.678520090e-01	-5.007369443e-04	1.826506062e-11
-1.150000000e-02	2.678520114e-01	-4.980236479e-04	1.097296808e-11
-1.160000000e-02	2.678520138e-01	-4.953103516e-04	1.362629300e-11
-1.170000000e-02	2.678520160e-01	-4.925970552e-04	1.953101307e-11
-1.180000000e-02	2.678520181e-01	-4.898837589e-04	2.816107353e-11
-1.190000000e-02	2.678520202e-01	-4.871704625e-04	6.618614027e-12
-1.200000000e-02	2.678520222e-01	-4.844571661e-04	1.221853854e-11
-1.210000000e-02	2.678520241e-01	-4.817438697e-04	8.786981811e-12
-1.220000000e-02	2.678520259e-01	-4.790305734e-04	1.459829799e-11
-1.230000000e-02	2.678520277e-01	-4.763172770e-04	4.893816885e-12
-1.240000000e-02	2.678520293e-01	-4.736039807e-04	2.409894431e-11
-1.250000000e-02	2.678520309e-01	-4.708906843e-04	8.546190890e-12
-1.260000000e-02	2.678520324e-01	-4.681773881e-04	7.983846030e-12
-1.270000000e-02	2.678520338e-01	-4.654640918e-04	1.251280240e-11
-1.280000000e-02	2.678520351e-01	-4.627507956e-04	6.339604729e-12
-1.290000000e-02	2.678520364e-01	-4.600374994e-04	1.751095894e-11
-1.300000000e-02	2.678520375e-01	-4.573242032e-04	9.386973733e-12
-1.310000000e-02	2.678520386e-01	-4.546109071e-04	1.311829971e-11
-1.320000000e-02	2.678520396e-01	-4.518976110e-04	9.084196027e-12
-1.330000000e-02	2.678520405e-01	-4.491843150e-04	2.799852531e-11
-1.340000000e-02	2.678520414e-01	-4.464710191e-04	1.377570983e-11
-1.350000000e-02	2.678520421e-01	-4.437577232e-04	2.886375571e-11
-1.360000000e-02	2.678520428e-01	-4.410444274e-04	1.404600154e-11
-1.370000000e-02	2.678520434e-01	-4.383311316e-04	1.425004967e-11
-1.380000000e-02	2.678520439e-01	-4.356178360e-04	8.713107891e-12
-1.390000000e-02	2.678520443e-01	-4.329045404e-04	7.851899778e-12
-1.400000000e-02	2.678520446e-01	-4.301912448e-04	1.643152437e-11
-1.410000000e-02	2.678520449e-01	-4.274779494e-04	3.249010421e-10
-1.420000000e-02	2.678520451e-01	-4.247646541e-04	6.119039386e-11
-1.430000000e-02	2.678520451e-01	-4.220513588e-04	1.968444753e-11
-1.440000000e-02	2.678520452e-01	-4.193380637e-04	9.419978873e-12
-1.450000000e-02	2.678520451e-01	-4.166247687e-04	1.678426048e-11
-1.460000000e-02	2.678520449e-01	-4.139114737e-04	1.276170100e-11
-1.470000000e-02	2.678520447e-01	-4.111981789e-04	4.245272244e-12
-1.480000000e-02	2.678520444e-01	-4.084848842e-04	1.852466215e-11
-1.490000000e-02	2.678520440e-01	-4.057715896e-04	3.670667405e-11
-1.500000000e-02	2.678520435e-01	-4.030582952e-04	1.516498227e-11
-1.510000000e-02	2.678520429e-01	-4.003450009e-04	1.090410205e-11
-1.520000000e-02	2.678520423e-01	-3.976317067e-04	8.387986378e-12
-1.530000000e-02	2.678520415e-01	-3.949184126e-04	1.081126694e-11
-1.540000000e-02	2.678520407e-01	-3.922051187e-04	1.670425398e-11
-1.550000000e-02	2.678520398e-01	-3.894918249e-04	8.946626270e-12
-1.560000000e-02	2.678520388e-01	-3.867785313e-04	1.803405039e-11
-1.570000000e-02	2.678520378e-01	-3.840652378e-04	1.428582803e-11
-1.580000000e-02	2.678520366e-01	-3.813519445e-04	3.548960903e-11
-1.590000000e-02	2.678520354e-01	-3.786386514e-04	1.508519277e-11
-1.600000000e-02	2.678520341e-01	-3.759253584e-04	1.916421144e-11
-1.610000000e-02	2.678520327e-01	-3.732120656e-04	2.774711148e-11
-1.620000000e-02	2.678520312e-01	-3.704987730e-04	2.183446406e-11
-1.630000000e-02	2.678520297e-01	-3.677854805e-04	1.288284770e-11
-1.640000000e-02	2.678520280e-01	-3.650721882e-04	1.058663317e-11
-1.650000000e-02	2.678520263e-01	-3.623588961e-04	1.221538906e-11
-1.660000000e-02	2.678520245e-01	-3.596456043e-04	1.858981635e-11
-1.670000000e-02	2.678520226e-01	-3.569323126e-04	1.340269823e-11
-1.680000000e-02	2.678520206e-01	-3.542190211e-04	5.686904214e-11
-1.690000000e-02	2.678520186e-01	-3.515057298e-04	1.088499206e-11
-1.700000000e-02	2.678520164e-01	-3.487924387e-04	1.075741550e-11
-1.710000000e-02	2.678520142e-01	-3.460791478e-04	8.307162897e-12
-1.720000000e-02	2.678520119e-01	-3.433658571e-04	5.872266441e-12
-1.730000000e-02	2.678520095e-01	-3.406525667e-04	9.552225482e-12
-1.740000000e-02	2.678520071e-01	-3.379392765e-04	1.487958505e-11
-1.750000000e-02	2.678520045e-01	-3.352259865e-04	1.672156821e-11
-1.760000000e-02	2.678520019e-01	-3.325126968e-04	6.408590998e-12
-1.770000000e-02	2.678519992e-01	-3.297994072e-04	1.255943640e-11
-1.780000000e-02	2.678519964e-01	-3.270861180e-04	9.145825493e-12
-1.790000000e-02	2.678519935e-01	-3.243728289e-04	2.082116623e-11
-1.800000000e-02	2.678519906e-01	-3.216595402e-04	1.349767365e-11
-1.810000000e-02	2.678519875e-01	-3.189462516e-04	9.893625269e-12
-1.820000000e-02	2.678519844e-01	-3.162329634e-04	6.961169028e-12
-1.830000000e-02	2.678519812e-01	-3.135196754e-04	1.564158853e-11
-1.840000000e-02	2.678519779e-01	-3.108063876e-04	9.515212517e-12
-1.850000000e-02	2.678519745e-01	-3.080931002e-04	1.047124274e-11
-1.860000000e-02	2.678519711e-01	-3.053798130e-04	8.473352369e-12
-1.870000000e-02	2.678519676e-01	-3.026665261e-04	1.613576492e-11
-1.880000000e-02	2.678519639e-01	-2.999532394e-04	4.000372541e-12
-1.890000000e-02	2.678519602e-01	-2.972399531e-04	8.061714271e-12
-1.900000000e-02	2.678519565e-01	-2.945266671e-04	8.414389842e-12
-1.910000000e-02	2.678519526e-01	-2.918133813e-04	1.186975079e-11
-1.920000000e-02	2.678519486e-01	-2.891000958e-04	5.533758009e-12
-1.930000000e-02	2.678519446e-01	-2.863868107e-04	6.515276921e-12
-1.940000000e-02	2.678519405e-01	-2.836735258e-04	1.563584488e-11
-1.950000000e-02	2.678519363e-01	-2.809602413e-04	9.706316142e-12
-1.960000000e-02	2.678519320e-01	-2.782469571e-04	3.870521944e-12
-1.970000000e-02	2.678519277e-01	-2.755336732e-04	9.534278094e-12
-1.980000000e-02	2.678519232e-01	-2.728203896e-04	1.230164993e-11
-1.990000000e-02	2.678519187e-01	-2.701071064e-04	1.977456655e-11
-2.000000000e-02	2.678519141e-01	-2.673938235e-04	2.353921270e-11
-2.010000000e-02	2.678519094e-01	-2.646805409e-04	2.144098844e-11
-2.020000000e-02	2.678519046e-01	-2.619672587e-04	6.076264487e-12
-2.030000000e-02	2.678518998e-01	-2.592539768e-04	8.079848368e-12
-2.040000000e-02	2.678518948e-01	-2.565406953e-04	3.303757862e-11
-2.050000000e-02	2.678518898e-01	-2.538274141e-04	2.064767806e-11
-2.060000000e-02	2.678518847e-01	-2.511141333e-04	1.472120655e-11
-2.070000000e-02	2.678518795e-01	-2.484008528e-04	8.780375280e-12
-2.080000000e-02	2.678518743e-01	-2.456875727e-04	1.623464704e-11
-2.090000000e-02	2.678518689e-01	-2.429742930e-04	3.017145494e-11
-2.100000000e-02	2.678518635e-01	-2.402610137e-04	2.481221933e-11
-2.110000000e-02	2.678518580e-01	-2.375477347e-04	1.372348564e-11
-2.120000000e-02	2.678518524e-01	-2.348344561e-04	1.412100062e-11
-2.130000000e-02	2.678518467e-01	-2.321211779e-04	1.474996733e-11
-2.140000000e-02	2.678518409e-01	-2.294079001e-04	9.422242902e-13
-2.150000000e-02	2.678518351e-01	-2.266946227e-04	7.481793576e-12
-2.160000000e-02	2.678518292e-01	-2.239813457e-04	2.526982966e-11
-2.170000000e-02	2.678518232e-01	-2.212680691e-04	7.236802629e-12
-2.180000000e-02	2.678518171e-01	-2.185547929e-04	1.117828257e-11
-2.190000000e-02	2.678518109e-01	-2.158415171e-04	5.373028604e-11
-2.200000000e-02	2.678518046e-01	-2.131282418e-04	9.573929798e-12
-2.210000000e-02	2.678517983e-01	-2.104149668e-04	8.019296235e-12
-2.220000000e-02	2.678517919e-01	-2.077016923e-04	1.333108149e-11
-2.230000000e-02	2.678517854e-01	-2.049884182e-04	7.685440201e-11
-2.240000000e-02	2.678517788e-01	-2.022751446e-04	7.650357823e-12
-2.250000000e-02	2.678517721e-01	-1.995618713e-04	1.902409357e-11
-2.260000000e-02	2.678517654e-01	-1.968485986e-04	1.720211888e-11
-2.270000000e-02	2.678517585e-01	-1.941353262e-04	1.251169705e-11
-2.280000000e-02	2.678517516e-01	-1.914220543e-04	1.506531512e-11
-2.290000000e-02	2.678517446e-01	-1.887087829e-04	2.174613231e-11
-2.300000000e-02	2.678517376e-01	-1.859955119e-04	5.199208371e-11
-2.310000000e-02	2.678517304e-01	-1.832822414e-04	2.649774810e-11
-2.320000000e-02	2.678517231e-01	-1.805689714e-04	7.389605486e-12
-2.330000000e-02	2.678517158e-01	-1.778557018e-04	4.832161245e-11
-2.340000000e-02	2.678517084e-01	-1.751424327e-04	9.861516832e-12
-2.350000000e-02	2.678517009e-01	-1.724291641e-04	1.780446988e-11
-2.360000000e-02	2.678516933e-01	-1.697158960e-04	1.899172613e-11
-2.370000000e-02	2.678516857e-01	-1.670026283e-04	1.445132414e-11
-2.380000000e-02	2.678516779e-01	-1.642893612e-04	5.316904886e-12
-2.390000000e-02	2.678516701e-01	-1.615760945e-04	4.707823543e-11
-2.400000000e-02	2.678516622e-01	-1.588628284e-04	7.472247787e-12
-2.410000000e-02	2.678516542e-01	-1.561495627e-04	1.926911320e-11
-2.420000000e-02	2.678516462e-01	-1.534362975e-04	9.849649942e-11
-2.430000000e-02	2.678516380e-01	-1.507230329e-04	7.794819000e-12
-2.440000000e-02	2.678516298e-01	-1.480097688e-04	2.437535262e-11
-2.450000000e-02	2.678516215e-01	-1.452965052e-04	8.216165350e-12
-2.460000000e-02	2.678516131e-01	-1.425832421e-04	4.048224063e-12
-2.470000000e-02	2.678516046e-01	-1.398699796e-04	1.562125375e-11
-2.480000000e-02	2.678515960e-01	-1.371567176e-04	9.679817092e-11
-2.490000000e-02	2.678515874e-01	-1.344434561e-04	1.363302463e-11
-2.500000000e-02	2.678515786e-01	-1.317301952e-04	2.047997988e-11
-2.510000000e-02	2.678515698e-01	-1.290169348e-04	2.765922179e-11
-2.520000000e-02	2.678515609e-01	-1.263036750e-04	1.782245294e-11
-2.530000000e-02	2.678515520e-01	-1.235904157e-04	2.134591597e-11
-2.540000000e-02	2.678515429e-01	-1.208771570e-04	3.627669696e-10
-2.550000000e-02	2.678515338e-01	-1.181638988e-04	1.406950836e-11
-2.560000000e-02	2.678515245e-01	-1.154506412e-04	2.696295100e-11
-2.570000000e-02	2.678515152e-01	-1.127373842e-04	8.262560081e-12
-2.580000000e-02	2.678515059e-01	-1.100241278e-04	3.517127019e-12
-2.590000000e-02	2.678514964e-01	-1.073108719e-04	5.959617130e-11
-2.600000000e-02	2.678514868e-01	-1.045976166e-04	1.862809954e-11
-2.610000000e-02	2.678514772e-01	-1.018843619e-04	7.556595289e-12
-2.620000000e-02	2.678514675e-01	-9.917110782e-05	1.351530769e-11
-2.630000000e-02	2.678514577e-01	-9.645785431e-05	1.209320245e-11
-2.640000000e-02	2.678514478e-01	-9.374460141e-05	6.169856714e-12
-2.650000000e-02	2.678514378e-01	-9.103134910e-05	8.309851306e-12
-2.660000000e-02	2.678514278e-01	-8.831809741e-05	1.068539961e-11
-2.670000000e-02	2.678514177e-01	-8.560484633e-05	2.562992336e-11
-2.680000000e-02	2.678514074e-01	-8.289159587e-05	1.894258684e-11
-2.690000000e-02	2.678513972e-01	-8.017834602e-05	2.692346457e-11
-2.700000000e-02	2.678513868e-01	-7.746509680e-05	2.668144814e-11
-2.710000000e-02	2.678513763e-01	-7.475184822e-05	1.372158748e-11
-2.720000000e-02	2.678513658e-01	-7.203860026e-05	8.152640849e-12
-2.730000000e-02	2.678513552e-01	-6.932535294e-05	1.021222474e-11
-2.740000000e-02	2.678513444e-01	-6.661210627e-05	1.073751747e-11
-2.750000000e-02	2.678513337e-01	-6.389886024e-05	2.296829669e-11
-2.760000000e-02	2.678513228e-01	-6.118561486e-05	1.266972173e-11
-2.770000000e-02	2.678513118e-01	-5.847237014e-05	8.751295201e-12
-2.780000000e-02	2.678513008e-01	-5.575912607e-05	2.556364185e-11
-2.790000000e-02	2.678512897e-01	-5.304588267e-05	2.646827527e-11
-2.800000000e-02	2.678512785e-01	-5.033263993e-05	1.321761747e-11
-2.810000000e-02	2.678512672e-01	-4.761939786e-05	1.882116007e-11
-2.820000000e-02	2.678512558e-01	-4.490615647e-05	5.573902577e-11
-2.830000000e-02	2.678512444e-01	-4.219291576e-05	6.123377843e-12
-2.840000000e-02	2.678512329e-01	-3.947967573e-05	2.563749720e-11
-2.850000000e-02	2.678512212e-01	-3.676643640e-05	9.417210870e-12
-2.860000000e-02	2.678512095e-01	-3.405319775e-05	1.854133116e-11
-2.870000000e-02	2.678511978e-01	-3.133995980e-05	1.217722320e-11
-2.880000000e-02	2.678511859e-01	-2.862672254e-05	1.976321845e-11
-2.890000000e-02	2.678511740e-01	-2.591348600e-05	4.081203984e-11
-2.900000000e-02	2.678511619e-01	-2.320025016e-05	1.896417775e-11
-2.910000000e-02	2.678511498e-01	-2.048701503e-05	3.451748875e-11
-2.920000000e-02	2.678511376e-01	-1.777378062e-05	2.677705219e-11
-2.930000000e-02	2.678511254e-01	-1.506054694e-05	2.158474993e-11
-2.940000000e-02	2.678511130e-01	-1.234731397e-05	5.964221512e-12
-2.950000000e-02	2.678511006e-01	-9.634081742e-06	2.408893439e-11
-2.960000000e-02	2.678510881e-01	-6.920850243e-06	7.232562245e-12
-2.970000000e-02	2.678510755e-01	-4.207619481e-06	2.345651588e-11
-2.980000000e-02	2.678510628e-01	-1.494389462e-06	1.257495213e-11
-2.990000000e-02	2.678510500e-01	1.218839812e-06	6.507072088e-12
-3.000000000e-02	2.678510372e-01	3.932068335e-06	1.210502783e-11
