# Im(epsi1)     Re(omega/c)      Im(omega/c)      Eq(det).Opt det CON kz, R=0.5 \mum, mu_c=0.3, Re(epsi1)=3.90solve_det_conkz_vs_kz.py
0.000000000e+00	2.678462561e-01	-8.100299948e-04	3.145159662e-11
-1.000000000e-04	2.678462679e-01	-8.073167670e-04	1.185859509e-11
-2.000000000e-04	2.678462796e-01	-8.046035387e-04	1.107205460e-11
-3.000000000e-04	2.678462912e-01	-8.018903100e-04	1.005123475e-11
-4.000000000e-04	2.678463028e-01	-7.991770807e-04	1.197752357e-11
-5.000000000e-04	2.678463143e-01	-7.964638510e-04	1.709794114e-11
-6.000000000e-04	2.678463256e-01	-7.937506208e-04	2.614689270e-11
-7.000000000e-04	2.678463369e-01	-7.910373901e-04	1.563335003e-11
-8.000000000e-04	2.678463482e-01	-7.883241589e-04	5.500421232e-12
-9.000000000e-04	2.678463593e-01	-7.856109273e-04	1.989030255e-11
-1.000000000e-03	2.678463703e-01	-7.828976952e-04	1.331273138e-11
-1.100000000e-03	2.678463813e-01	-7.801844627e-04	8.347208204e-12
-1.200000000e-03	2.678463922e-01	-7.774712297e-04	3.031926447e-11
-1.300000000e-03	2.678464030e-01	-7.747579963e-04	1.751512050e-11
-1.400000000e-03	2.678464137e-01	-7.720447624e-04	2.491733038e-11
-1.500000000e-03	2.678464244e-01	-7.693315281e-04	8.554339558e-12
-1.600000000e-03	2.678464349e-01	-7.666182934e-04	4.120250951e-11
-1.700000000e-03	2.678464454e-01	-7.639050582e-04	6.991086452e-12
-1.800000000e-03	2.678464558e-01	-7.611918226e-04	1.068398288e-11
-1.900000000e-03	2.678464661e-01	-7.584785866e-04	1.130581922e-11
-2.000000000e-03	2.678464763e-01	-7.557653502e-04	8.870240547e-12
-2.100000000e-03	2.678464865e-01	-7.530521133e-04	2.456395528e-11
-2.200000000e-03	2.678464966e-01	-7.503388760e-04	1.060570477e-11
-2.300000000e-03	2.678465065e-01	-7.476256384e-04	6.663098414e-12
-2.400000000e-03	2.678465164e-01	-7.449124003e-04	4.117408906e-11
-2.500000000e-03	2.678465263e-01	-7.421991618e-04	2.308479707e-11
-2.600000000e-03	2.678465360e-01	-7.394859230e-04	1.392075419e-11
-2.700000000e-03	2.678465456e-01	-7.367726837e-04	1.062978862e-11
-2.800000000e-03	2.678465552e-01	-7.340594441e-04	2.332954186e-11
-2.900000000e-03	2.678465647e-01	-7.313462041e-04	1.585835451e-11
-3.000000000e-03	2.678465741e-01	-7.286329637e-04	1.973872102e-11
-3.100000000e-03	2.678465834e-01	-7.259197230e-04	8.232241036e-12
-3.200000000e-03	2.678465927e-01	-7.232064818e-04	9.508929959e-12
-3.300000000e-03	2.678466018e-01	-7.204932403e-04	1.061443752e-11
-3.400000000e-03	2.678466109e-01	-7.177799985e-04	1.957805779e-11
-3.500000000e-03	2.678466199e-01	-7.150667563e-04	9.693916942e-12
-3.600000000e-03	2.678466288e-01	-7.123535137e-04	1.017924348e-11
-3.700000000e-03	2.678466376e-01	-7.096402708e-04	2.045596823e-11
-3.800000000e-03	2.678466464e-01	-7.069270276e-04	2.030171042e-11
-3.900000000e-03	2.678466550e-01	-7.042137840e-04	8.350660723e-12
-4.000000000e-03	2.678466636e-01	-7.015005401e-04	1.012464708e-11
-4.100000000e-03	2.678466721e-01	-6.987872959e-04	7.586716968e-12
-4.200000000e-03	2.678466805e-01	-6.960740513e-04	3.655932675e-11
-4.300000000e-03	2.678466889e-01	-6.933608064e-04	7.125152199e-12
-4.400000000e-03	2.678466971e-01	-6.906475612e-04	9.379410668e-12
-4.500000000e-03	2.678467053e-01	-6.879343157e-04	1.102135650e-11
-4.600000000e-03	2.678467134e-01	-6.852210698e-04	2.878384368e-11
-4.700000000e-03	2.678467214e-01	-6.825078237e-04	1.849193605e-11
-4.800000000e-03	2.678467293e-01	-6.797945772e-04	7.131567208e-12
-4.900000000e-03	2.678467371e-01	-6.770813305e-04	5.377718194e-11
-5.000000000e-03	2.678467449e-01	-6.743680835e-04	1.228715127e-11
-5.100000000e-03	2.678467526e-01	-6.716548362e-04	8.533383596e-12
-5.200000000e-03	2.678467601e-01	-6.689415886e-04	2.157371946e-11
-5.300000000e-03	2.678467677e-01	-6.662283407e-04	1.232748335e-11
-5.400000000e-03	2.678467751e-01	-6.635150925e-04	1.433862441e-11
-5.500000000e-03	2.678467824e-01	-6.608018441e-04	2.251043284e-11
-5.600000000e-03	2.678467897e-01	-6.580885954e-04	8.985521447e-12
-5.700000000e-03	2.678467969e-01	-6.553753464e-04	1.683971320e-11
-5.800000000e-03	2.678468040e-01	-6.526620972e-04	1.546678101e-11
-5.900000000e-03	2.678468110e-01	-6.499488477e-04	1.083296768e-11
-6.000000000e-03	2.678468179e-01	-6.472355980e-04	6.885017330e-12
-6.100000000e-03	2.678468248e-01	-6.445223480e-04	9.060865367e-12
-6.200000000e-03	2.678468315e-01	-6.418090978e-04	5.274325608e-11
-6.300000000e-03	2.678468382e-01	-6.390958474e-04	1.090475026e-11
-6.400000000e-03	2.678468448e-01	-6.363825967e-04	1.174500188e-11
-6.500000000e-03	2.678468513e-01	-6.336693458e-04	4.164938659e-11
-6.600000000e-03	2.678468578e-01	-6.309560946e-04	1.733417042e-11
-6.700000000e-03	2.678468641e-01	-6.282428433e-04	6.724391900e-12
-6.800000000e-03	2.678468704e-01	-6.255295917e-04	7.833028868e-12
-6.900000000e-03	2.678468766e-01	-6.228163399e-04	1.810554270e-11
-7.000000000e-03	2.678468827e-01	-6.201030879e-04	1.156581133e-11
-7.100000000e-03	2.678468887e-01	-6.173898357e-04	1.768467032e-11
-7.200000000e-03	2.678468947e-01	-6.146765833e-04	2.783713929e-11
-7.300000000e-03	2.678469005e-01	-6.119633307e-04	1.533120628e-11
-7.400000000e-03	2.678469063e-01	-6.092500779e-04	4.847370334e-11
-7.500000000e-03	2.678469120e-01	-6.065368249e-04	3.737457220e-11
-7.600000000e-03	2.678469176e-01	-6.038235717e-04	4.665319453e-11
-7.700000000e-03	2.678469231e-01	-6.011103184e-04	7.990775255e-12
-7.800000000e-03	2.678469286e-01	-5.983970648e-04	2.815449003e-11
-7.900000000e-03	2.678469340e-01	-5.956838111e-04	1.123849365e-11
-8.000000000e-03	2.678469392e-01	-5.929705573e-04	1.223333055e-11
-8.100000000e-03	2.678469444e-01	-5.902573032e-04	1.703306328e-11
-8.200000000e-03	2.678469496e-01	-5.875440491e-04	4.525955796e-12
-8.300000000e-03	2.678469546e-01	-5.848307947e-04	1.694571047e-11
-8.400000000e-03	2.678469595e-01	-5.821175402e-04	3.243960995e-11
-8.500000000e-03	2.678469644e-01	-5.794042856e-04	1.274172243e-11
-8.600000000e-03	2.678469692e-01	-5.766910308e-04	4.641804287e-12
-8.700000000e-03	2.678469739e-01	-5.739777759e-04	9.927688991e-12
-8.800000000e-03	2.678469785e-01	-5.712645208e-04	6.470458350e-12
-8.900000000e-03	2.678469831e-01	-5.685512656e-04	9.183280704e-12
-9.000000000e-03	2.678469875e-01	-5.658380103e-04	1.219654678e-11
-9.100000000e-03	2.678469919e-01	-5.631247549e-04	1.130669879e-11
-9.200000000e-03	2.678469962e-01	-5.604114994e-04	2.538926328e-11
-9.300000000e-03	2.678470004e-01	-5.576982437e-04	5.833286284e-11
-9.400000000e-03	2.678470046e-01	-5.549849879e-04	9.128301493e-12
-9.500000000e-03	2.678470086e-01	-5.522717321e-04	5.056851871e-11
-9.600000000e-03	2.678470126e-01	-5.495584761e-04	1.476481396e-11
-9.700000000e-03	2.678470164e-01	-5.468452200e-04	6.496875712e-11
-9.800000000e-03	2.678470202e-01	-5.441319638e-04	1.650801513e-11
-9.900000000e-03	2.678470240e-01	-5.414187076e-04	1.762189034e-11
-1.000000000e-02	2.678470276e-01	-5.387054512e-04	1.657547363e-11
-1.010000000e-02	2.678470312e-01	-5.359921948e-04	1.532111904e-11
-1.020000000e-02	2.678470346e-01	-5.332789383e-04	5.042006064e-12
-1.030000000e-02	2.678470380e-01	-5.305656818e-04	2.001958468e-11
-1.040000000e-02	2.678470413e-01	-5.278524251e-04	1.258254006e-11
-1.050000000e-02	2.678470445e-01	-5.251391684e-04	1.249288745e-11
-1.060000000e-02	2.678470477e-01	-5.224259117e-04	1.132303310e-11
-1.070000000e-02	2.678470507e-01	-5.197126549e-04	8.911507541e-12
-1.080000000e-02	2.678470537e-01	-5.169993980e-04	1.653742672e-11
-1.090000000e-02	2.678470566e-01	-5.142861411e-04	4.548383624e-12
-1.100000000e-02	2.678470594e-01	-5.115728842e-04	1.070847356e-11
-1.110000000e-02	2.678470621e-01	-5.088596272e-04	2.517827489e-11
-1.120000000e-02	2.678470648e-01	-5.061463702e-04	3.309012013e-11
-1.130000000e-02	2.678470674e-01	-5.034331131e-04	4.617307656e-12
-1.140000000e-02	2.678470698e-01	-5.007198561e-04	8.225200169e-12
-1.150000000e-02	2.678470722e-01	-4.980065990e-04	3.237888445e-11
-1.160000000e-02	2.678470745e-01	-4.952933418e-04	1.426561848e-11
-1.170000000e-02	2.678470768e-01	-4.925800847e-04	9.172862282e-11
-1.180000000e-02	2.678470789e-01	-4.898668276e-04	1.600762287e-11
-1.190000000e-02	2.678470810e-01	-4.871535704e-04	1.569633941e-11
-1.200000000e-02	2.678470830e-01	-4.844403133e-04	1.251502850e-11
-1.210000000e-02	2.678470849e-01	-4.817270562e-04	6.555751874e-12
-1.220000000e-02	2.678470867e-01	-4.790137990e-04	6.103968596e-11
-1.230000000e-02	2.678470885e-01	-4.763005419e-04	9.319047430e-12
-1.240000000e-02	2.678470901e-01	-4.735872848e-04	1.642936685e-11
-1.250000000e-02	2.678470917e-01	-4.708740277e-04	1.019837064e-10
-1.260000000e-02	2.678470932e-01	-4.681607707e-04	8.613863840e-12
-1.270000000e-02	2.678470946e-01	-4.654475137e-04	1.407975558e-11
-1.280000000e-02	2.678470959e-01	-4.627342567e-04	2.020912026e-11
-1.290000000e-02	2.678470972e-01	-4.600209997e-04	1.381069458e-11
-1.300000000e-02	2.678470983e-01	-4.573077428e-04	3.675700363e-12
-1.310000000e-02	2.678470994e-01	-4.545944859e-04	1.178090069e-11
-1.320000000e-02	2.678471004e-01	-4.518812291e-04	4.843203159e-11
-1.330000000e-02	2.678471013e-01	-4.491679723e-04	8.232932631e-12
-1.340000000e-02	2.678471021e-01	-4.464547156e-04	1.013967411e-11
-1.350000000e-02	2.678471029e-01	-4.437414590e-04	1.263497374e-11
-1.360000000e-02	2.678471036e-01	-4.410282024e-04	8.891594696e-12
-1.370000000e-02	2.678471042e-01	-4.383149459e-04	1.159786905e-11
-1.380000000e-02	2.678471047e-01	-4.356016894e-04	7.335254908e-12
-1.390000000e-02	2.678471051e-01	-4.328884331e-04	1.315661958e-11
-1.400000000e-02	2.678471054e-01	-4.301751768e-04	1.185168298e-11
-1.410000000e-02	2.678471057e-01	-4.274619206e-04	9.270995305e-12
-1.420000000e-02	2.678471058e-01	-4.247486645e-04	1.008190213e-11
-1.430000000e-02	2.678471059e-01	-4.220354085e-04	1.545400193e-11
-1.440000000e-02	2.678471059e-01	-4.193221526e-04	5.987169438e-12
-1.450000000e-02	2.678471059e-01	-4.166088968e-04	2.215762156e-11
-1.460000000e-02	2.678471057e-01	-4.138956411e-04	1.136911592e-11
-1.470000000e-02	2.678471055e-01	-4.111823856e-04	1.002286935e-11
-1.480000000e-02	2.678471051e-01	-4.084691301e-04	1.381175092e-11
-1.490000000e-02	2.678471047e-01	-4.057558748e-04	1.133118346e-11
-1.500000000e-02	2.678471043e-01	-4.030426195e-04	2.550072631e-11
-1.510000000e-02	2.678471037e-01	-4.003293645e-04	8.800043906e-11
-1.520000000e-02	2.678471030e-01	-3.976161095e-04	1.335155850e-11
-1.530000000e-02	2.678471023e-01	-3.949028547e-04	3.133565471e-11
-1.540000000e-02	2.678471015e-01	-3.921896000e-04	1.536308261e-11
-1.550000000e-02	2.678471006e-01	-3.894763455e-04	1.363177310e-11
-1.560000000e-02	2.678470996e-01	-3.867630911e-04	1.376829493e-11
-1.570000000e-02	2.678470985e-01	-3.840498369e-04	1.718322126e-11
-1.580000000e-02	2.678470974e-01	-3.813365828e-04	1.118096301e-11
-1.590000000e-02	2.678470962e-01	-3.786233289e-04	5.500003991e-11
-1.600000000e-02	2.678470949e-01	-3.759100752e-04	1.174722719e-11
-1.610000000e-02	2.678470935e-01	-3.731968216e-04	8.239559498e-12
-1.620000000e-02	2.678470920e-01	-3.704835682e-04	8.841553273e-12
-1.630000000e-02	2.678470904e-01	-3.677703150e-04	1.352949371e-11
-1.640000000e-02	2.678470888e-01	-3.650570619e-04	1.203492628e-11
-1.650000000e-02	2.678470871e-01	-3.623438091e-04	2.531106444e-11
-1.660000000e-02	2.678470853e-01	-3.596305564e-04	4.964898384e-10
-1.670000000e-02	2.678470834e-01	-3.569173040e-04	1.932471351e-11
-1.680000000e-02	2.678470814e-01	-3.542040517e-04	7.274788232e-12
-1.690000000e-02	2.678470794e-01	-3.514907997e-04	7.175458024e-12
-1.700000000e-02	2.678470772e-01	-3.487775478e-04	1.481203987e-11
-1.710000000e-02	2.678470750e-01	-3.460642962e-04	1.823819706e-11
-1.720000000e-02	2.678470727e-01	-3.433510448e-04	2.738542087e-11
-1.730000000e-02	2.678470703e-01	-3.406377936e-04	1.480345753e-11
-1.740000000e-02	2.678470679e-01	-3.379245426e-04	1.227145586e-11
-1.750000000e-02	2.678470653e-01	-3.352112918e-04	1.065551142e-11
-1.760000000e-02	2.678470627e-01	-3.324980413e-04	1.294798586e-11
-1.770000000e-02	2.678470600e-01	-3.297847911e-04	1.102314688e-11
-1.780000000e-02	2.678470572e-01	-3.270715410e-04	1.581539193e-11
-1.790000000e-02	2.678470543e-01	-3.243582912e-04	1.077015279e-11
-1.800000000e-02	2.678470513e-01	-3.216450417e-04	9.398541969e-12
-1.810000000e-02	2.678470483e-01	-3.189317924e-04	2.263724156e-11
-1.820000000e-02	2.678470452e-01	-3.162185434e-04	6.148903181e-13
-1.830000000e-02	2.678470420e-01	-3.135052946e-04	1.580784668e-11
-1.840000000e-02	2.678470387e-01	-3.107920461e-04	4.957329276e-12
-1.850000000e-02	2.678470353e-01	-3.080787979e-04	2.259886330e-11
-1.860000000e-02	2.678470319e-01	-3.053655500e-04	3.320880047e-11
-1.870000000e-02	2.678470283e-01	-3.026523023e-04	1.370614676e-11
-1.880000000e-02	2.678470247e-01	-2.999390549e-04	7.914806682e-12
-1.890000000e-02	2.678470210e-01	-2.972258078e-04	1.909813238e-11
-1.900000000e-02	2.678470172e-01	-2.945125610e-04	1.905495122e-11
-1.910000000e-02	2.678470134e-01	-2.917993145e-04	4.192020718e-11
-1.920000000e-02	2.678470094e-01	-2.890860682e-04	1.053802489e-11
-1.930000000e-02	2.678470054e-01	-2.863728223e-04	6.220339152e-12
-1.940000000e-02	2.678470013e-01	-2.836595767e-04	1.231037812e-11
-1.950000000e-02	2.678469971e-01	-2.809463314e-04	1.013843224e-11
-1.960000000e-02	2.678469928e-01	-2.782330865e-04	1.124948627e-11
-1.970000000e-02	2.678469884e-01	-2.755198418e-04	1.092953224e-11
-1.980000000e-02	2.678469840e-01	-2.728065975e-04	1.282782304e-11
-1.990000000e-02	2.678469795e-01	-2.700933535e-04	1.453866058e-10
-2.000000000e-02	2.678469749e-01	-2.673801098e-04	1.086432105e-11
-2.010000000e-02	2.678469702e-01	-2.646668665e-04	1.573752424e-11
-2.020000000e-02	2.678469654e-01	-2.619536235e-04	5.236321123e-12
-2.030000000e-02	2.678469605e-01	-2.592403809e-04	1.078060690e-11
-2.040000000e-02	2.678469556e-01	-2.565271386e-04	9.326714703e-12
-2.050000000e-02	2.678469506e-01	-2.538138966e-04	4.350601155e-11
-2.060000000e-02	2.678469455e-01	-2.511006551e-04	1.558594320e-11
-2.070000000e-02	2.678469403e-01	-2.483874138e-04	6.549230245e-11
-2.080000000e-02	2.678469350e-01	-2.456741730e-04	2.036968602e-11
-2.090000000e-02	2.678469297e-01	-2.429609325e-04	4.826327139e-12
-2.100000000e-02	2.678469243e-01	-2.402476924e-04	1.216461152e-11
-2.110000000e-02	2.678469187e-01	-2.375344527e-04	1.126761593e-11
-2.120000000e-02	2.678469131e-01	-2.348212133e-04	1.366907552e-11
-2.130000000e-02	2.678469075e-01	-2.321079744e-04	1.323050742e-11
-2.140000000e-02	2.678469017e-01	-2.293947358e-04	8.958792064e-12
-2.150000000e-02	2.678468959e-01	-2.266814976e-04	8.778956104e-12
-2.160000000e-02	2.678468899e-01	-2.239682599e-04	1.366403726e-11
-2.170000000e-02	2.678468839e-01	-2.212550225e-04	1.290324077e-11
-2.180000000e-02	2.678468778e-01	-2.185417856e-04	1.236922144e-11
-2.190000000e-02	2.678468717e-01	-2.158285490e-04	1.513177983e-11
-2.200000000e-02	2.678468654e-01	-2.131153129e-04	1.396406642e-11
-2.210000000e-02	2.678468591e-01	-2.104020772e-04	2.136168607e-11
-2.220000000e-02	2.678468526e-01	-2.076888419e-04	6.712955620e-12
-2.230000000e-02	2.678468461e-01	-2.049756070e-04	1.924862521e-11
-2.240000000e-02	2.678468396e-01	-2.022623726e-04	8.363734406e-12
-2.250000000e-02	2.678468329e-01	-1.995491386e-04	7.504945236e-12
-2.260000000e-02	2.678468261e-01	-1.968359051e-04	4.431251856e-11
-2.270000000e-02	2.678468193e-01	-1.941226720e-04	7.528216467e-12
-2.280000000e-02	2.678468124e-01	-1.914094394e-04	4.149124939e-11
-2.290000000e-02	2.678468054e-01	-1.886962072e-04	1.215002297e-11
-2.300000000e-02	2.678467983e-01	-1.859829754e-04	1.280132022e-11
-2.310000000e-02	2.678467912e-01	-1.832697442e-04	3.714782307e-11
-2.320000000e-02	2.678467839e-01	-1.805565134e-04	1.757400264e-11
-2.330000000e-02	2.678467766e-01	-1.778432830e-04	1.809269664e-11
-2.340000000e-02	2.678467692e-01	-1.751300532e-04	4.564786678e-11
-2.350000000e-02	2.678467617e-01	-1.724168238e-04	1.381097038e-11
-2.360000000e-02	2.678467541e-01	-1.697035949e-04	1.506745016e-11
-2.370000000e-02	2.678467464e-01	-1.669903665e-04	1.084812246e-11
-2.380000000e-02	2.678467387e-01	-1.642771386e-04	2.753518607e-11
-2.390000000e-02	2.678467309e-01	-1.615639112e-04	1.060771370e-11
-2.400000000e-02	2.678467230e-01	-1.588506843e-04	3.171555832e-11
-2.410000000e-02	2.678467150e-01	-1.561374578e-04	1.493421596e-11
-2.420000000e-02	2.678467069e-01	-1.534242319e-04	1.073932024e-11
-2.430000000e-02	2.678466988e-01	-1.507110065e-04	3.688732359e-12
-2.440000000e-02	2.678466905e-01	-1.479977817e-04	8.888191399e-12
-2.450000000e-02	2.678466822e-01	-1.452845573e-04	1.375112145e-11
-2.460000000e-02	2.678466738e-01	-1.425713335e-04	1.003677560e-11
-2.470000000e-02	2.678466653e-01	-1.398581102e-04	1.338359228e-11
-2.480000000e-02	2.678466568e-01	-1.371448874e-04	1.150753619e-11
-2.490000000e-02	2.678466481e-01	-1.344316652e-04	1.039133994e-11
-2.500000000e-02	2.678466394e-01	-1.317184435e-04	1.054384965e-11
-2.510000000e-02	2.678466306e-01	-1.290052224e-04	1.884271803e-11
-2.520000000e-02	2.678466217e-01	-1.262920018e-04	1.069914753e-11
-2.530000000e-02	2.678466127e-01	-1.235787817e-04	3.198287635e-11
-2.540000000e-02	2.678466037e-01	-1.208655622e-04	7.024897107e-12
-2.550000000e-02	2.678465945e-01	-1.181523433e-04	1.265323788e-11
-2.560000000e-02	2.678465853e-01	-1.154391250e-04	1.247508549e-11
-2.570000000e-02	2.678465760e-01	-1.127259072e-04	9.239221589e-12
-2.580000000e-02	2.678465666e-01	-1.100126900e-04	8.622554376e-12
-2.590000000e-02	2.678465571e-01	-1.072994734e-04	1.517255152e-11
-2.600000000e-02	2.678465476e-01	-1.045862573e-04	9.680892865e-12
-2.610000000e-02	2.678465380e-01	-1.018730419e-04	3.127214479e-11
-2.620000000e-02	2.678465282e-01	-9.915982701e-05	8.044547529e-12
-2.630000000e-02	2.678465184e-01	-9.644661274e-05	1.216131633e-11
-2.640000000e-02	2.678465086e-01	-9.373339907e-05	6.559500189e-11
-2.650000000e-02	2.678464986e-01	-9.102018601e-05	1.809525528e-11
-2.660000000e-02	2.678464885e-01	-8.830697356e-05	1.428276918e-11
-2.670000000e-02	2.678464784e-01	-8.559376172e-05	5.731738149e-12
-2.680000000e-02	2.678464682e-01	-8.288055049e-05	1.054179279e-11
-2.690000000e-02	2.678464579e-01	-8.016733989e-05	2.725927244e-11
-2.700000000e-02	2.678464475e-01	-7.745412991e-05	5.414483192e-11
-2.710000000e-02	2.678464371e-01	-7.474092057e-05	1.725638368e-11
-2.720000000e-02	2.678464265e-01	-7.202771185e-05	8.254185663e-12
-2.730000000e-02	2.678464159e-01	-6.931450377e-05	1.525999527e-11
-2.740000000e-02	2.678464052e-01	-6.660129634e-05	9.042051694e-12
-2.750000000e-02	2.678463944e-01	-6.388808955e-05	1.266639594e-11
-2.760000000e-02	2.678463835e-01	-6.117488341e-05	1.551756353e-11
-2.770000000e-02	2.678463726e-01	-5.846167793e-05	1.114508068e-11
-2.780000000e-02	2.678463616e-01	-5.574847310e-05	2.558503250e-11
-2.790000000e-02	2.678463504e-01	-5.303526894e-05	7.166908301e-12
-2.800000000e-02	2.678463392e-01	-5.032206544e-05	8.579126622e-12
-2.810000000e-02	2.678463280e-01	-4.760886261e-05	5.343887607e-12
-2.820000000e-02	2.678463166e-01	-4.489566046e-05	2.263345890e-11
-2.830000000e-02	2.678463051e-01	-4.218245899e-05	1.121862921e-11
-2.840000000e-02	2.678462936e-01	-3.946925821e-05	7.277566189e-12
-2.850000000e-02	2.678462820e-01	-3.675605811e-05	9.569313407e-12
-2.860000000e-02	2.678462703e-01	-3.404285870e-05	7.508092608e-12
-2.870000000e-02	2.678462585e-01	-3.132965999e-05	1.183853906e-11
-2.880000000e-02	2.678462467e-01	-2.861646198e-05	2.226323023e-11
-2.890000000e-02	2.678462347e-01	-2.590326467e-05	1.351728550e-11
-2.900000000e-02	2.678462227e-01	-2.319006807e-05	1.760088284e-11
-2.910000000e-02	2.678462106e-01	-2.047687219e-05	1.792445226e-11
-2.920000000e-02	2.678461984e-01	-1.776367702e-05	7.225274734e-11
-2.930000000e-02	2.678461861e-01	-1.505048257e-05	1.033739256e-11
-2.940000000e-02	2.678461738e-01	-1.233728885e-05	3.057083849e-11
-2.950000000e-02	2.678461613e-01	-9.624095858e-06	2.863773312e-11
-2.960000000e-02	2.678461488e-01	-6.910903598e-06	1.309021015e-11
-2.970000000e-02	2.678461362e-01	-4.197712077e-06	1.031402452e-11
-2.980000000e-02	2.678461235e-01	-1.484521298e-06	1.645162655e-11
-2.990000000e-02	2.678461108e-01	1.228668735e-06	1.197394796e-11
-3.000000000e-02	2.678460979e-01	3.941858020e-06	4.863348653e-11
