# Im(epsi1)     Re(omega/c)      Im(omega/c)      Eq(det).Opt det CON kz, R=0.5 \mum, mu_c=0.3, Re(epsi1)=3.90solve_det_conkz_vs_kz.py
0.000000000e+00	2.678463933e-01	-8.100305937e-04	1.256491637e-11
-1.000000000e-04	2.678464051e-01	-8.073173649e-04	7.365124024e-12
-2.000000000e-04	2.678464168e-01	-8.046041355e-04	5.513763737e-12
-3.000000000e-04	2.678464284e-01	-8.018909056e-04	4.106820202e-11
-4.000000000e-04	2.678464400e-01	-7.991776753e-04	1.375869195e-11
-5.000000000e-04	2.678464515e-01	-7.964644445e-04	5.732838135e-11
-6.000000000e-04	2.678464628e-01	-7.937512132e-04	7.010535200e-12
-7.000000000e-04	2.678464741e-01	-7.910379814e-04	3.906138423e-11
-8.000000000e-04	2.678464854e-01	-7.883247491e-04	2.623576353e-11
-9.000000000e-04	2.678464965e-01	-7.856115164e-04	1.613524754e-11
-1.000000000e-03	2.678465076e-01	-7.828982833e-04	7.819561559e-12
-1.100000000e-03	2.678465185e-01	-7.801850497e-04	1.126060741e-11
-1.200000000e-03	2.678465294e-01	-7.774718156e-04	1.588452448e-11
-1.300000000e-03	2.678465402e-01	-7.747585811e-04	9.543039664e-12
-1.400000000e-03	2.678465509e-01	-7.720453461e-04	1.269468172e-11
-1.500000000e-03	2.678465616e-01	-7.693321107e-04	1.855075601e-11
-1.600000000e-03	2.678465721e-01	-7.666188749e-04	6.267052232e-12
-1.700000000e-03	2.678465826e-01	-7.639056386e-04	1.613500538e-11
-1.800000000e-03	2.678465930e-01	-7.611924019e-04	4.001084818e-11
-1.900000000e-03	2.678466033e-01	-7.584791648e-04	2.883945277e-11
-2.000000000e-03	2.678466135e-01	-7.557659273e-04	1.834577466e-11
-2.100000000e-03	2.678466237e-01	-7.530526894e-04	9.016696507e-12
-2.200000000e-03	2.678466338e-01	-7.503394510e-04	2.230762638e-11
-2.300000000e-03	2.678466437e-01	-7.476262122e-04	1.289223471e-11
-2.400000000e-03	2.678466536e-01	-7.449129731e-04	4.036364823e-11
-2.500000000e-03	2.678466635e-01	-7.421997335e-04	8.347868770e-11
-2.600000000e-03	2.678466732e-01	-7.394864936e-04	2.116341523e-11
-2.700000000e-03	2.678466828e-01	-7.367732533e-04	1.227306076e-11
-2.800000000e-03	2.678466924e-01	-7.340600125e-04	8.347129754e-12
-2.900000000e-03	2.678467019e-01	-7.313467714e-04	1.045153738e-11
-3.000000000e-03	2.678467113e-01	-7.286335300e-04	3.519702757e-11
-3.100000000e-03	2.678467206e-01	-7.259202881e-04	2.602308890e-11
-3.200000000e-03	2.678467299e-01	-7.232070459e-04	1.789117150e-11
-3.300000000e-03	2.678467390e-01	-7.204938033e-04	1.986203801e-11
-3.400000000e-03	2.678467481e-01	-7.177805604e-04	7.155676244e-12
-3.500000000e-03	2.678467571e-01	-7.150673171e-04	2.489681239e-11
-3.600000000e-03	2.678467660e-01	-7.123540734e-04	1.193959469e-11
-3.700000000e-03	2.678467748e-01	-7.096408295e-04	3.048433506e-11
-3.800000000e-03	2.678467836e-01	-7.069275851e-04	2.391417074e-11
-3.900000000e-03	2.678467922e-01	-7.042143404e-04	1.211184067e-11
-4.000000000e-03	2.678468008e-01	-7.015010954e-04	1.704938006e-11
-4.100000000e-03	2.678468093e-01	-6.987878501e-04	7.323661442e-12
-4.200000000e-03	2.678468177e-01	-6.960746044e-04	2.331012099e-11
-4.300000000e-03	2.678468261e-01	-6.933613585e-04	1.085467316e-11
-4.400000000e-03	2.678468343e-01	-6.906481122e-04	8.883235683e-12
-4.500000000e-03	2.678468425e-01	-6.879348655e-04	2.142751339e-11
-4.600000000e-03	2.678468506e-01	-6.852216186e-04	8.789548630e-12
-4.700000000e-03	2.678468586e-01	-6.825083714e-04	1.237290353e-11
-4.800000000e-03	2.678468665e-01	-6.797951239e-04	9.504964982e-12
-4.900000000e-03	2.678468743e-01	-6.770818760e-04	1.328334995e-11
-5.000000000e-03	2.678468821e-01	-6.743686279e-04	8.522518760e-12
-5.100000000e-03	2.678468898e-01	-6.716553795e-04	1.259014914e-11
-5.200000000e-03	2.678468974e-01	-6.689421308e-04	2.216531507e-11
-5.300000000e-03	2.678469049e-01	-6.662288818e-04	9.153382747e-12
-5.400000000e-03	2.678469123e-01	-6.635156326e-04	1.052573812e-11
-5.500000000e-03	2.678469196e-01	-6.608023831e-04	2.217077833e-11
-5.600000000e-03	2.678469269e-01	-6.580891333e-04	1.080092188e-11
-5.700000000e-03	2.678469341e-01	-6.553758832e-04	1.787714211e-11
-5.800000000e-03	2.678469412e-01	-6.526626329e-04	8.026701444e-12
-5.900000000e-03	2.678469482e-01	-6.499493824e-04	4.002605610e-11
-6.000000000e-03	2.678469551e-01	-6.472361316e-04	1.652824139e-11
-6.100000000e-03	2.678469620e-01	-6.445228805e-04	1.520141877e-10
-6.200000000e-03	2.678469687e-01	-6.418096292e-04	9.943092493e-12
-6.300000000e-03	2.678469754e-01	-6.390963777e-04	4.053519711e-11
-6.400000000e-03	2.678469820e-01	-6.363831259e-04	6.353426479e-12
-6.500000000e-03	2.678469885e-01	-6.336698739e-04	1.125154455e-11
-6.600000000e-03	2.678469950e-01	-6.309566216e-04	2.290812206e-11
-6.700000000e-03	2.678470013e-01	-6.282433692e-04	1.179734343e-11
-6.800000000e-03	2.678470076e-01	-6.255301165e-04	1.877803518e-11
-6.900000000e-03	2.678470138e-01	-6.228168636e-04	1.331583144e-11
-7.000000000e-03	2.678470199e-01	-6.201036105e-04	1.218237055e-11
-7.100000000e-03	2.678470259e-01	-6.173903572e-04	9.644881294e-12
-7.200000000e-03	2.678470319e-01	-6.146771037e-04	2.134615710e-11
-7.300000000e-03	2.678470377e-01	-6.119638500e-04	6.682097722e-12
-7.400000000e-03	2.678470435e-01	-6.092505962e-04	7.696215116e-12
-7.500000000e-03	2.678470492e-01	-6.065373421e-04	9.130055039e-12
-7.600000000e-03	2.678470548e-01	-6.038240878e-04	1.246123435e-11
-7.700000000e-03	2.678470603e-01	-6.011108334e-04	9.052073462e-12
-7.800000000e-03	2.678470658e-01	-5.983975788e-04	3.314511104e-10
-7.900000000e-03	2.678470712e-01	-5.956843240e-04	1.045381286e-11
-8.000000000e-03	2.678470764e-01	-5.929710690e-04	9.369254379e-12
-8.100000000e-03	2.678470816e-01	-5.902578139e-04	3.425494572e-11
-8.200000000e-03	2.678470868e-01	-5.875445586e-04	1.117190025e-11
-8.300000000e-03	2.678470918e-01	-5.848313032e-04	1.880503164e-11
-8.400000000e-03	2.678470968e-01	-5.821180476e-04	6.675306284e-12
-8.500000000e-03	2.678471016e-01	-5.794047919e-04	7.109594390e-12
-8.600000000e-03	2.678471064e-01	-5.766915360e-04	1.944363950e-11
-8.700000000e-03	2.678471111e-01	-5.739782800e-04	9.918545321e-12
-8.800000000e-03	2.678471157e-01	-5.712650238e-04	9.890255658e-12
-8.900000000e-03	2.678471203e-01	-5.685517676e-04	1.236806236e-11
-9.000000000e-03	2.678471247e-01	-5.658385112e-04	1.199310135e-11
-9.100000000e-03	2.678471291e-01	-5.631252547e-04	1.118328517e-11
-9.200000000e-03	2.678471334e-01	-5.604119980e-04	1.666423168e-11
-9.300000000e-03	2.678471376e-01	-5.576987413e-04	6.948299541e-12
-9.400000000e-03	2.678471418e-01	-5.549854844e-04	1.973862289e-11
-9.500000000e-03	2.678471458e-01	-5.522722274e-04	4.203628567e-12
-9.600000000e-03	2.678471498e-01	-5.495589704e-04	3.876929836e-11
-9.700000000e-03	2.678471537e-01	-5.468457132e-04	1.722021133e-11
-9.800000000e-03	2.678471575e-01	-5.441324560e-04	1.364204714e-11
-9.900000000e-03	2.678471612e-01	-5.414191986e-04	9.895031511e-12
-1.000000000e-02	2.678471648e-01	-5.387059412e-04	6.401935955e-12
-1.010000000e-02	2.678471684e-01	-5.359926837e-04	3.372137713e-11
-1.020000000e-02	2.678471718e-01	-5.332794261e-04	9.392946789e-12
-1.030000000e-02	2.678471752e-01	-5.305661684e-04	1.104917895e-11
-1.040000000e-02	2.678471785e-01	-5.278529107e-04	1.181466168e-11
-1.050000000e-02	2.678471817e-01	-5.251396529e-04	2.189490280e-11
-1.060000000e-02	2.678471849e-01	-5.224263951e-04	1.336126065e-10
-1.070000000e-02	2.678471879e-01	-5.197131372e-04	6.732465548e-12
-1.080000000e-02	2.678471909e-01	-5.169998793e-04	7.038467870e-12
-1.090000000e-02	2.678471938e-01	-5.142866213e-04	1.272680774e-11
-1.100000000e-02	2.678471966e-01	-5.115733632e-04	1.271283522e-11
-1.110000000e-02	2.678471993e-01	-5.088601051e-04	1.369383518e-11
-1.120000000e-02	2.678472020e-01	-5.061468470e-04	1.760673748e-11
-1.130000000e-02	2.678472046e-01	-5.034335889e-04	1.082473272e-11
-1.140000000e-02	2.678472070e-01	-5.007203307e-04	1.608190599e-11
-1.150000000e-02	2.678472094e-01	-4.980070725e-04	1.382057333e-11
-1.160000000e-02	2.678472118e-01	-4.952938143e-04	4.222204297e-11
-1.170000000e-02	2.678472140e-01	-4.925805561e-04	2.729023913e-11
-1.180000000e-02	2.678472161e-01	-4.898672979e-04	7.326466971e-12
-1.190000000e-02	2.678472182e-01	-4.871540397e-04	1.051811557e-11
-1.200000000e-02	2.678472202e-01	-4.844407814e-04	1.483051040e-11
-1.210000000e-02	2.678472221e-01	-4.817275232e-04	2.036183463e-11
-1.220000000e-02	2.678472239e-01	-4.790142650e-04	1.043997551e-11
-1.230000000e-02	2.678472257e-01	-4.763010068e-04	2.101870595e-11
-1.240000000e-02	2.678472273e-01	-4.735877486e-04	3.372759383e-11
-1.250000000e-02	2.678472289e-01	-4.708744904e-04	1.003613923e-11
-1.260000000e-02	2.678472304e-01	-4.681612323e-04	1.768021441e-12
-1.270000000e-02	2.678472318e-01	-4.654479742e-04	1.833254832e-11
-1.280000000e-02	2.678472331e-01	-4.627347161e-04	8.699282723e-11
-1.290000000e-02	2.678472344e-01	-4.600214580e-04	6.098578424e-12
-1.300000000e-02	2.678472355e-01	-4.573082000e-04	1.959913199e-10
-1.310000000e-02	2.678472366e-01	-4.545949421e-04	9.196968405e-12
-1.320000000e-02	2.678472376e-01	-4.518816842e-04	2.152602151e-11
-1.330000000e-02	2.678472385e-01	-4.491684263e-04	8.924495785e-11
-1.340000000e-02	2.678472394e-01	-4.464551685e-04	1.507907847e-11
-1.350000000e-02	2.678472401e-01	-4.437419108e-04	1.166734734e-11
-1.360000000e-02	2.678472408e-01	-4.410286531e-04	2.782664740e-11
-1.370000000e-02	2.678472414e-01	-4.383153955e-04	1.831020304e-11
-1.380000000e-02	2.678472419e-01	-4.356021380e-04	9.174802340e-12
-1.390000000e-02	2.678472423e-01	-4.328888805e-04	9.124171362e-12
-1.400000000e-02	2.678472426e-01	-4.301756232e-04	1.301536869e-11
-1.410000000e-02	2.678472429e-01	-4.274623659e-04	1.058238636e-11
-1.420000000e-02	2.678472430e-01	-4.247491087e-04	2.751630076e-11
-1.430000000e-02	2.678472431e-01	-4.220358516e-04	1.129018904e-11
-1.440000000e-02	2.678472431e-01	-4.193225946e-04	1.483765240e-11
-1.450000000e-02	2.678472431e-01	-4.166093377e-04	9.804209666e-12
-1.460000000e-02	2.678472429e-01	-4.138960809e-04	7.275020485e-12
-1.470000000e-02	2.678472427e-01	-4.111828243e-04	1.027970163e-11
-1.480000000e-02	2.678472424e-01	-4.084695677e-04	1.538869396e-11
-1.490000000e-02	2.678472419e-01	-4.057563113e-04	1.048303767e-11
-1.500000000e-02	2.678472415e-01	-4.030430550e-04	8.017193471e-12
-1.510000000e-02	2.678472409e-01	-4.003297988e-04	1.510119011e-11
-1.520000000e-02	2.678472402e-01	-3.976165428e-04	2.514973438e-11
-1.530000000e-02	2.678472395e-01	-3.949032869e-04	2.316223955e-11
-1.540000000e-02	2.678472387e-01	-3.921900311e-04	1.635906607e-11
-1.550000000e-02	2.678472378e-01	-3.894767755e-04	1.006551902e-11
-1.560000000e-02	2.678472368e-01	-3.867635200e-04	1.994354805e-11
-1.570000000e-02	2.678472358e-01	-3.840502647e-04	1.285549405e-11
-1.580000000e-02	2.678472346e-01	-3.813370095e-04	4.469581460e-11
-1.590000000e-02	2.678472334e-01	-3.786237545e-04	3.054549240e-11
-1.600000000e-02	2.678472321e-01	-3.759104997e-04	1.182880678e-11
-1.610000000e-02	2.678472307e-01	-3.731972450e-04	1.771647973e-11
-1.620000000e-02	2.678472292e-01	-3.704839906e-04	1.105808134e-10
-1.630000000e-02	2.678472276e-01	-3.677707362e-04	1.763191548e-11
-1.640000000e-02	2.678472260e-01	-3.650574821e-04	9.127245370e-12
-1.650000000e-02	2.678472243e-01	-3.623442282e-04	7.834339181e-12
-1.660000000e-02	2.678472225e-01	-3.596309744e-04	2.230045547e-11
-1.670000000e-02	2.678472206e-01	-3.569177209e-04	1.265100730e-11
-1.680000000e-02	2.678472186e-01	-3.542044675e-04	6.623017151e-12
-1.690000000e-02	2.678472166e-01	-3.514912144e-04	7.690928555e-12
-1.700000000e-02	2.678472144e-01	-3.487779615e-04	1.900046624e-11
-1.710000000e-02	2.678472122e-01	-3.460647087e-04	5.769531914e-12
-1.720000000e-02	2.678472099e-01	-3.433514562e-04	1.277017536e-11
-1.730000000e-02	2.678472075e-01	-3.406382039e-04	1.575177487e-11
-1.740000000e-02	2.678472051e-01	-3.379249519e-04	9.055774079e-12
-1.750000000e-02	2.678472025e-01	-3.352117000e-04	1.743984550e-11
-1.760000000e-02	2.678471999e-01	-3.324984484e-04	1.766855400e-11
-1.770000000e-02	2.678471972e-01	-3.297851971e-04	3.514660960e-11
-1.780000000e-02	2.678471944e-01	-3.270719460e-04	1.849516757e-11
-1.790000000e-02	2.678471915e-01	-3.243586951e-04	2.140235851e-11
-1.800000000e-02	2.678471886e-01	-3.216454444e-04	2.191063458e-11
-1.810000000e-02	2.678471855e-01	-3.189321941e-04	1.415619827e-11
-1.820000000e-02	2.678471824e-01	-3.162189440e-04	2.211326991e-11
-1.830000000e-02	2.678471792e-01	-3.135056941e-04	4.243420994e-11
-1.840000000e-02	2.678471759e-01	-3.107924445e-04	3.464537983e-11
-1.850000000e-02	2.678471725e-01	-3.080791952e-04	1.477640812e-11
-1.860000000e-02	2.678471691e-01	-3.053659462e-04	5.449305649e-12
-1.870000000e-02	2.678471655e-01	-3.026526974e-04	1.347003679e-11
-1.880000000e-02	2.678471619e-01	-2.999394489e-04	5.690233807e-12
-1.890000000e-02	2.678471582e-01	-2.972262007e-04	8.604031167e-12
-1.900000000e-02	2.678471544e-01	-2.945129528e-04	1.021842556e-11
-1.910000000e-02	2.678471506e-01	-2.917997052e-04	5.993803486e-12
-1.920000000e-02	2.678471466e-01	-2.890864579e-04	1.057001309e-11
-1.930000000e-02	2.678471426e-01	-2.863732109e-04	7.907025240e-12
-1.940000000e-02	2.678471385e-01	-2.836599642e-04	1.191429026e-11
-1.950000000e-02	2.678471343e-01	-2.809467178e-04	4.429472896e-12
-1.960000000e-02	2.678471300e-01	-2.782334718e-04	2.817597137e-11
-1.970000000e-02	2.678471256e-01	-2.755202260e-04	4.759078012e-12
-1.980000000e-02	2.678471212e-01	-2.728069806e-04	1.355887561e-11
-1.990000000e-02	2.678471167e-01	-2.700937355e-04	1.205387503e-11
-2.000000000e-02	2.678471121e-01	-2.673804908e-04	1.106717228e-11
-2.010000000e-02	2.678471074e-01	-2.646672463e-04	1.168095386e-11
-2.020000000e-02	2.678471026e-01	-2.619540023e-04	6.769563497e-12
-2.030000000e-02	2.678470977e-01	-2.592407585e-04	1.651697842e-11
-2.040000000e-02	2.678470928e-01	-2.565275152e-04	9.553425962e-12
-2.050000000e-02	2.678470878e-01	-2.538142721e-04	3.040689862e-11
-2.060000000e-02	2.678470827e-01	-2.511010295e-04	1.079351047e-11
-2.070000000e-02	2.678470775e-01	-2.483877871e-04	1.234196654e-11
-2.080000000e-02	2.678470722e-01	-2.456745452e-04	2.320339804e-11
-2.090000000e-02	2.678470669e-01	-2.429613036e-04	8.710240751e-12
-2.100000000e-02	2.678470615e-01	-2.402480624e-04	3.420541585e-11
-2.110000000e-02	2.678470559e-01	-2.375348216e-04	6.267888118e-12
-2.120000000e-02	2.678470503e-01	-2.348215812e-04	1.639720959e-11
-2.130000000e-02	2.678470447e-01	-2.321083411e-04	1.342984162e-11
-2.140000000e-02	2.678470389e-01	-2.293951015e-04	1.142373789e-11
-2.150000000e-02	2.678470331e-01	-2.266818622e-04	7.491934505e-12
-2.160000000e-02	2.678470271e-01	-2.239686234e-04	8.703632649e-12
-2.170000000e-02	2.678470211e-01	-2.212553849e-04	7.067804193e-12
-2.180000000e-02	2.678470150e-01	-2.185421469e-04	1.994671103e-11
-2.190000000e-02	2.678470089e-01	-2.158289092e-04	1.359841327e-11
-2.200000000e-02	2.678470026e-01	-2.131156720e-04	2.289144359e-11
-2.210000000e-02	2.678469963e-01	-2.104024352e-04	3.566408956e-11
-2.220000000e-02	2.678469899e-01	-2.076891989e-04	2.068493139e-11
-2.230000000e-02	2.678469833e-01	-2.049759629e-04	8.367612059e-12
-2.240000000e-02	2.678469768e-01	-2.022627274e-04	2.123799233e-11
-2.250000000e-02	2.678469701e-01	-1.995494923e-04	1.406812589e-11
-2.260000000e-02	2.678469633e-01	-1.968362577e-04	1.980754558e-11
-2.270000000e-02	2.678469565e-01	-1.941230235e-04	5.622914281e-11
-2.280000000e-02	2.678469496e-01	-1.914097898e-04	7.162416936e-12
-2.290000000e-02	2.678469426e-01	-1.886965565e-04	3.354253803e-11
-2.300000000e-02	2.678469355e-01	-1.859833237e-04	2.033354188e-11
-2.310000000e-02	2.678469284e-01	-1.832700913e-04	2.144840760e-11
-2.320000000e-02	2.678469211e-01	-1.805568594e-04	1.139142012e-11
-2.330000000e-02	2.678469138e-01	-1.778436280e-04	9.061293026e-12
-2.340000000e-02	2.678469064e-01	-1.751303971e-04	1.019351547e-11
-2.350000000e-02	2.678468989e-01	-1.724171666e-04	2.555411593e-11
-2.360000000e-02	2.678468913e-01	-1.697039366e-04	1.100962454e-11
-2.370000000e-02	2.678468837e-01	-1.669907071e-04	8.442379603e-12
-2.380000000e-02	2.678468759e-01	-1.642774781e-04	2.327030800e-11
-2.390000000e-02	2.678468681e-01	-1.615642496e-04	5.651045486e-12
-2.400000000e-02	2.678468602e-01	-1.588510216e-04	8.012324427e-12
-2.410000000e-02	2.678468522e-01	-1.561377941e-04	1.309293170e-11
-2.420000000e-02	2.678468441e-01	-1.534245671e-04	7.591834352e-12
-2.430000000e-02	2.678468360e-01	-1.507113406e-04	1.092636739e-11
-2.440000000e-02	2.678468277e-01	-1.479981147e-04	2.537151161e-11
-2.450000000e-02	2.678468194e-01	-1.452848892e-04	1.063805625e-11
-2.460000000e-02	2.678468110e-01	-1.425716643e-04	1.842537349e-11
-2.470000000e-02	2.678468026e-01	-1.398584399e-04	2.550753467e-11
-2.480000000e-02	2.678467940e-01	-1.371452160e-04	6.224266789e-12
-2.490000000e-02	2.678467853e-01	-1.344319927e-04	4.180952250e-11
-2.500000000e-02	2.678467766e-01	-1.317187699e-04	1.600979735e-11
-2.510000000e-02	2.678467678e-01	-1.290055477e-04	7.601272518e-12
-2.520000000e-02	2.678467589e-01	-1.262923260e-04	3.334868006e-11
-2.530000000e-02	2.678467499e-01	-1.235791049e-04	8.310239930e-12
-2.540000000e-02	2.678467409e-01	-1.208658843e-04	1.566530025e-11
-2.550000000e-02	2.678467317e-01	-1.181526643e-04	1.464561696e-11
-2.560000000e-02	2.678467225e-01	-1.154394449e-04	8.812156178e-12
-2.570000000e-02	2.678467132e-01	-1.127262260e-04	2.549651055e-10
-2.580000000e-02	2.678467038e-01	-1.100130077e-04	4.211607496e-12
-2.590000000e-02	2.678466944e-01	-1.072997900e-04	1.794998655e-10
-2.600000000e-02	2.678466848e-01	-1.045865729e-04	8.099835996e-12
-2.610000000e-02	2.678466752e-01	-1.018733563e-04	6.394241580e-12
-2.620000000e-02	2.678466654e-01	-9.916014037e-05	2.156764131e-11
-2.630000000e-02	2.678466556e-01	-9.644692501e-05	1.178709892e-11
-2.640000000e-02	2.678466458e-01	-9.373371026e-05	1.568327109e-11
-2.650000000e-02	2.678466358e-01	-9.102049610e-05	1.397262806e-11
-2.660000000e-02	2.678466258e-01	-8.830728256e-05	1.774265270e-11
-2.670000000e-02	2.678466156e-01	-8.559406963e-05	1.336954168e-11
-2.680000000e-02	2.678466054e-01	-8.288085732e-05	1.276297275e-11
-2.690000000e-02	2.678465951e-01	-8.016764562e-05	2.481524998e-12
-2.700000000e-02	2.678465847e-01	-7.745443456e-05	2.028237588e-11
-2.710000000e-02	2.678465743e-01	-7.474122412e-05	1.037648029e-11
-2.720000000e-02	2.678465637e-01	-7.202801431e-05	1.626592960e-11
-2.730000000e-02	2.678465531e-01	-6.931480515e-05	2.356849948e-11
-2.740000000e-02	2.678465424e-01	-6.660159662e-05	1.137607811e-11
-2.750000000e-02	2.678465316e-01	-6.388838874e-05	6.186690431e-12
-2.760000000e-02	2.678465207e-01	-6.117518151e-05	1.744390662e-11
-2.770000000e-02	2.678465098e-01	-5.846197494e-05	1.411246323e-11
-2.780000000e-02	2.678464988e-01	-5.574876902e-05	1.456893080e-11
-2.790000000e-02	2.678464876e-01	-5.303556377e-05	1.074598130e-11
-2.800000000e-02	2.678464764e-01	-5.032235918e-05	2.695051304e-11
-2.810000000e-02	2.678464652e-01	-4.760915527e-05	2.196891185e-11
-2.820000000e-02	2.678464538e-01	-4.489595203e-05	1.863187198e-11
-2.830000000e-02	2.678464423e-01	-4.218274947e-05	5.651785890e-12
-2.840000000e-02	2.678464308e-01	-3.946954759e-05	9.608166361e-12
-2.850000000e-02	2.678464192e-01	-3.675634640e-05	1.542934939e-11
-2.860000000e-02	2.678464075e-01	-3.404314590e-05	1.195078799e-11
-2.870000000e-02	2.678463957e-01	-3.132994610e-05	5.786647127e-12
-2.880000000e-02	2.678463839e-01	-2.861674700e-05	1.787782967e-11
-2.890000000e-02	2.678463719e-01	-2.590354860e-05	5.065629476e-12
-2.900000000e-02	2.678463599e-01	-2.319035092e-05	6.618629035e-12
-2.910000000e-02	2.678463478e-01	-2.047715394e-05	8.588001737e-12
-2.920000000e-02	2.678463356e-01	-1.776395768e-05	2.147016549e-10
-2.930000000e-02	2.678463233e-01	-1.505076214e-05	1.304495028e-11
-2.940000000e-02	2.678463110e-01	-1.233756733e-05	1.673207003e-11
-2.950000000e-02	2.678462985e-01	-9.624373250e-06	8.136341848e-12
-2.960000000e-02	2.678462860e-01	-6.911179900e-06	1.296771115e-11
-2.970000000e-02	2.678462734e-01	-4.197987291e-06	4.273365122e-11
-2.980000000e-02	2.678462607e-01	-1.484795421e-06	3.203250216e-11
-2.990000000e-02	2.678462480e-01	1.228395703e-06	1.363567965e-11
-3.000000000e-02	2.678462351e-01	3.941586075e-06	1.463238774e-11
