# Im(epsi1)     Re(omega/c)      Im(omega/c)      Eq(det).Opt det CON kz, R=0.5 \mum, mu_c=0.3, Re(epsi1)=3.90solve_det_conkz_vs_kz.py
0.000000000e+00	2.678472766e-01	-8.100344497e-04	1.424209480e-11
-1.000000000e-04	2.678472884e-01	-8.073212138e-04	1.341470516e-11
-2.000000000e-04	2.678473001e-01	-8.046079774e-04	5.315982844e-12
-3.000000000e-04	2.678473118e-01	-8.018947405e-04	7.340582975e-12
-4.000000000e-04	2.678473233e-01	-7.991815032e-04	1.575510748e-11
-5.000000000e-04	2.678473348e-01	-7.964682653e-04	1.621994215e-11
-6.000000000e-04	2.678473461e-01	-7.937550270e-04	1.352969387e-11
-7.000000000e-04	2.678473575e-01	-7.910417882e-04	1.435075882e-11
-8.000000000e-04	2.678473687e-01	-7.883285489e-04	2.289879803e-11
-9.000000000e-04	2.678473798e-01	-7.856153092e-04	1.219563216e-11
-1.000000000e-03	2.678473909e-01	-7.829020690e-04	8.739559842e-12
-1.100000000e-03	2.678474018e-01	-7.801888284e-04	8.044699044e-12
-1.200000000e-03	2.678474127e-01	-7.774755873e-04	9.106081686e-12
-1.300000000e-03	2.678474235e-01	-7.747623458e-04	4.717577269e-12
-1.400000000e-03	2.678474342e-01	-7.720491038e-04	3.099880045e-11
-1.500000000e-03	2.678474449e-01	-7.693358614e-04	2.642186126e-11
-1.600000000e-03	2.678474554e-01	-7.666226185e-04	1.490333499e-11
-1.700000000e-03	2.678474659e-01	-7.639093753e-04	1.741428073e-11
-1.800000000e-03	2.678474763e-01	-7.611961316e-04	1.833104199e-11
-1.900000000e-03	2.678474866e-01	-7.584828874e-04	2.106655213e-11
-2.000000000e-03	2.678474969e-01	-7.557696429e-04	9.871058631e-12
-2.100000000e-03	2.678475070e-01	-7.530563979e-04	1.552888586e-11
-2.200000000e-03	2.678475171e-01	-7.503431526e-04	5.979035966e-12
-2.300000000e-03	2.678475270e-01	-7.476299068e-04	4.385943865e-12
-2.400000000e-03	2.678475369e-01	-7.449166606e-04	1.793599913e-11
-2.500000000e-03	2.678475468e-01	-7.422034140e-04	8.817627733e-12
-2.600000000e-03	2.678475565e-01	-7.394901671e-04	2.025348862e-11
-2.700000000e-03	2.678475661e-01	-7.367769197e-04	9.705398801e-12
-2.800000000e-03	2.678475757e-01	-7.340636720e-04	8.034289208e-12
-2.900000000e-03	2.678475852e-01	-7.313504239e-04	3.353163841e-11
-3.000000000e-03	2.678475946e-01	-7.286371754e-04	1.020108446e-11
-3.100000000e-03	2.678476039e-01	-7.259239265e-04	1.259734645e-11
-3.200000000e-03	2.678476132e-01	-7.232106773e-04	9.118807421e-11
-3.300000000e-03	2.678476223e-01	-7.204974277e-04	2.827128077e-11
-3.400000000e-03	2.678476314e-01	-7.177841777e-04	7.895888345e-12
-3.500000000e-03	2.678476404e-01	-7.150709274e-04	2.843667066e-11
-3.600000000e-03	2.678476493e-01	-7.123576768e-04	9.139947373e-12
-3.700000000e-03	2.678476581e-01	-7.096444258e-04	6.275985463e-12
-3.800000000e-03	2.678476669e-01	-7.069311744e-04	1.918117965e-11
-3.900000000e-03	2.678476755e-01	-7.042179227e-04	3.584010704e-12
-4.000000000e-03	2.678476841e-01	-7.015046707e-04	1.980001039e-11
-4.100000000e-03	2.678476926e-01	-6.987914183e-04	1.259680051e-11
-4.200000000e-03	2.678477010e-01	-6.960781657e-04	9.334751141e-11
-4.300000000e-03	2.678477094e-01	-6.933649127e-04	7.749324980e-12
-4.400000000e-03	2.678477176e-01	-6.906516593e-04	7.746452656e-12
-4.500000000e-03	2.678477258e-01	-6.879384057e-04	2.113315022e-11
-4.600000000e-03	2.678477339e-01	-6.852251518e-04	9.743739792e-12
-4.700000000e-03	2.678477419e-01	-6.825118975e-04	2.445817461e-11
-4.800000000e-03	2.678477498e-01	-6.797986430e-04	1.091828788e-11
-4.900000000e-03	2.678477576e-01	-6.770853881e-04	8.870112507e-12
-5.000000000e-03	2.678477654e-01	-6.743721330e-04	4.482275895e-12
-5.100000000e-03	2.678477731e-01	-6.716588776e-04	2.555443455e-11
-5.200000000e-03	2.678477807e-01	-6.689456219e-04	1.816090823e-11
-5.300000000e-03	2.678477882e-01	-6.662323659e-04	1.169207701e-11
-5.400000000e-03	2.678477956e-01	-6.635191096e-04	1.227283229e-11
-5.500000000e-03	2.678478029e-01	-6.608058531e-04	1.107514935e-11
-5.600000000e-03	2.678478102e-01	-6.580925963e-04	1.049529734e-11
-5.700000000e-03	2.678478174e-01	-6.553793392e-04	9.052769593e-12
-5.800000000e-03	2.678478245e-01	-6.526660819e-04	8.838728983e-12
-5.900000000e-03	2.678478315e-01	-6.499528243e-04	8.053890801e-12
-6.000000000e-03	2.678478384e-01	-6.472395665e-04	3.950754255e-12
-6.100000000e-03	2.678478453e-01	-6.445263084e-04	1.277146849e-11
-6.200000000e-03	2.678478520e-01	-6.418130501e-04	1.181767620e-11
-6.300000000e-03	2.678478587e-01	-6.390997915e-04	2.017972125e-11
-6.400000000e-03	2.678478653e-01	-6.363865327e-04	1.686900813e-11
-6.500000000e-03	2.678478718e-01	-6.336732737e-04	1.957973065e-11
-6.600000000e-03	2.678478783e-01	-6.309600144e-04	3.456759482e-11
-6.700000000e-03	2.678478846e-01	-6.282467550e-04	1.850008446e-11
-6.800000000e-03	2.678478909e-01	-6.255334953e-04	2.173582956e-11
-6.900000000e-03	2.678478971e-01	-6.228202354e-04	1.736429024e-11
-7.000000000e-03	2.678479032e-01	-6.201069753e-04	1.784563466e-11
-7.100000000e-03	2.678479092e-01	-6.173937150e-04	1.052469793e-11
-7.200000000e-03	2.678479152e-01	-6.146804544e-04	4.807210914e-11
-7.300000000e-03	2.678479210e-01	-6.119671937e-04	7.744869897e-12
-7.400000000e-03	2.678479268e-01	-6.092539328e-04	1.728244724e-11
-7.500000000e-03	2.678479325e-01	-6.065406717e-04	1.537129794e-11
-7.600000000e-03	2.678479381e-01	-6.038274105e-04	3.622207124e-11
-7.700000000e-03	2.678479437e-01	-6.011141490e-04	2.346727924e-11
-7.800000000e-03	2.678479491e-01	-5.984008874e-04	1.709076074e-11
-7.900000000e-03	2.678479545e-01	-5.956876256e-04	4.873886894e-11
-8.000000000e-03	2.678479598e-01	-5.929743636e-04	2.067502752e-11
-8.100000000e-03	2.678479650e-01	-5.902611015e-04	6.980046759e-12
-8.200000000e-03	2.678479701e-01	-5.875478392e-04	2.267900930e-11
-8.300000000e-03	2.678479751e-01	-5.848345767e-04	1.845485755e-11
-8.400000000e-03	2.678479801e-01	-5.821213141e-04	5.898689965e-12
-8.500000000e-03	2.678479849e-01	-5.794080514e-04	3.647146817e-11
-8.600000000e-03	2.678479897e-01	-5.766947885e-04	1.037381886e-11
-8.700000000e-03	2.678479944e-01	-5.739815254e-04	5.877705648e-11
-8.800000000e-03	2.678479991e-01	-5.712682623e-04	6.433784007e-12
-8.900000000e-03	2.678480036e-01	-5.685549990e-04	1.902958833e-11
-9.000000000e-03	2.678480081e-01	-5.658417356e-04	1.708181608e-11
-9.100000000e-03	2.678480124e-01	-5.631284720e-04	9.866348809e-12
-9.200000000e-03	2.678480167e-01	-5.604152084e-04	1.015875919e-10
-9.300000000e-03	2.678480209e-01	-5.577019446e-04	1.136785192e-11
-9.400000000e-03	2.678480251e-01	-5.549886807e-04	7.435334019e-12
-9.500000000e-03	2.678480291e-01	-5.522754168e-04	2.589712319e-11
-9.600000000e-03	2.678480331e-01	-5.495621527e-04	1.290750207e-11
-9.700000000e-03	2.678480370e-01	-5.468488885e-04	2.587605551e-11
-9.800000000e-03	2.678480408e-01	-5.441356242e-04	1.761469633e-11
-9.900000000e-03	2.678480445e-01	-5.414223599e-04	1.198457408e-11
-1.000000000e-02	2.678480481e-01	-5.387090954e-04	7.872369893e-12
-1.010000000e-02	2.678480517e-01	-5.359958309e-04	1.392558832e-11
-1.020000000e-02	2.678480551e-01	-5.332825663e-04	1.001557967e-11
-1.030000000e-02	2.678480585e-01	-5.305693016e-04	8.365118302e-12
-1.040000000e-02	2.678480618e-01	-5.278560369e-04	6.181958979e-12
-1.050000000e-02	2.678480651e-01	-5.251427721e-04	2.328072330e-11
-1.060000000e-02	2.678480682e-01	-5.224295072e-04	1.306278339e-11
-1.070000000e-02	2.678480713e-01	-5.197162423e-04	1.687701279e-11
-1.080000000e-02	2.678480742e-01	-5.170029773e-04	4.745825078e-11
-1.090000000e-02	2.678480771e-01	-5.142897123e-04	2.426863912e-11
-1.100000000e-02	2.678480799e-01	-5.115764473e-04	1.562033791e-11
-1.110000000e-02	2.678480827e-01	-5.088631822e-04	1.630781031e-11
-1.120000000e-02	2.678480853e-01	-5.061499171e-04	3.965682534e-11
-1.130000000e-02	2.678480879e-01	-5.034366519e-04	7.652943579e-12
-1.140000000e-02	2.678480904e-01	-5.007233867e-04	1.010741182e-11
-1.150000000e-02	2.678480927e-01	-4.980101215e-04	4.789041534e-11
-1.160000000e-02	2.678480951e-01	-4.952968563e-04	8.030275154e-12
-1.170000000e-02	2.678480973e-01	-4.925835911e-04	3.486898426e-11
-1.180000000e-02	2.678480995e-01	-4.898703258e-04	1.991877401e-11
-1.190000000e-02	2.678481015e-01	-4.871570606e-04	1.280163872e-11
-1.200000000e-02	2.678481035e-01	-4.844437953e-04	7.905222512e-12
-1.210000000e-02	2.678481054e-01	-4.817305301e-04	1.141148751e-11
-1.220000000e-02	2.678481072e-01	-4.790172649e-04	6.203700477e-12
-1.230000000e-02	2.678481090e-01	-4.763039996e-04	7.404762605e-11
-1.240000000e-02	2.678481106e-01	-4.735907344e-04	8.574775350e-12
-1.250000000e-02	2.678481122e-01	-4.708774692e-04	1.552030517e-11
-1.260000000e-02	2.678481137e-01	-4.681642041e-04	3.462224263e-12
-1.270000000e-02	2.678481151e-01	-4.654509389e-04	8.911192052e-12
-1.280000000e-02	2.678481164e-01	-4.627376738e-04	2.923150320e-11
-1.290000000e-02	2.678481177e-01	-4.600244088e-04	1.115700799e-11
-1.300000000e-02	2.678481188e-01	-4.573111437e-04	1.702767614e-11
-1.310000000e-02	2.678481199e-01	-4.545978788e-04	1.645859204e-11
-1.320000000e-02	2.678481209e-01	-4.518846138e-04	8.087113136e-12
-1.330000000e-02	2.678481218e-01	-4.491713490e-04	1.285656839e-11
-1.340000000e-02	2.678481227e-01	-4.464580842e-04	1.617149300e-11
-1.350000000e-02	2.678481234e-01	-4.437448194e-04	2.394061395e-11
-1.360000000e-02	2.678481241e-01	-4.410315547e-04	1.491860318e-11
-1.370000000e-02	2.678481247e-01	-4.383182901e-04	1.904762501e-11
-1.380000000e-02	2.678481252e-01	-4.356050255e-04	1.296231289e-11
-1.390000000e-02	2.678481256e-01	-4.328917611e-04	5.444613142e-12
-1.400000000e-02	2.678481259e-01	-4.301784967e-04	9.126680570e-12
-1.410000000e-02	2.678481262e-01	-4.274652324e-04	9.824106125e-12
-1.420000000e-02	2.678481264e-01	-4.247519682e-04	8.365554767e-12
-1.430000000e-02	2.678481264e-01	-4.220387041e-04	1.192190811e-11
-1.440000000e-02	2.678481265e-01	-4.193254401e-04	2.412102193e-11
-1.450000000e-02	2.678481264e-01	-4.166121762e-04	6.997049184e-12
-1.460000000e-02	2.678481262e-01	-4.138989124e-04	9.598450286e-12
-1.470000000e-02	2.678481260e-01	-4.111856487e-04	2.889907011e-11
-1.480000000e-02	2.678481257e-01	-4.084723851e-04	1.263496054e-11
-1.490000000e-02	2.678481253e-01	-4.057591217e-04	1.262248280e-11
-1.500000000e-02	2.678481248e-01	-4.030458584e-04	1.208161768e-11
-1.510000000e-02	2.678481242e-01	-4.003325952e-04	1.122109388e-11
-1.520000000e-02	2.678481236e-01	-3.976193321e-04	7.650310598e-12
-1.530000000e-02	2.678481228e-01	-3.949060692e-04	7.463077265e-12
-1.540000000e-02	2.678481220e-01	-3.921928064e-04	7.860888180e-12
-1.550000000e-02	2.678481211e-01	-3.894795438e-04	2.007850175e-11
-1.560000000e-02	2.678481201e-01	-3.867662813e-04	1.104288192e-11
-1.570000000e-02	2.678481191e-01	-3.840530189e-04	5.183170381e-12
-1.580000000e-02	2.678481179e-01	-3.813397568e-04	1.181639695e-11
-1.590000000e-02	2.678481167e-01	-3.786264947e-04	8.040826438e-12
-1.600000000e-02	2.678481154e-01	-3.759132329e-04	7.976142861e-12
-1.610000000e-02	2.678481140e-01	-3.731999712e-04	1.016468684e-11
-1.620000000e-02	2.678481125e-01	-3.704867097e-04	5.860514380e-11
-1.630000000e-02	2.678481110e-01	-3.677734484e-04	1.562052658e-11
-1.640000000e-02	2.678481093e-01	-3.650601873e-04	1.567939481e-11
-1.650000000e-02	2.678481076e-01	-3.623469263e-04	8.289662953e-12
-1.660000000e-02	2.678481058e-01	-3.596336655e-04	1.105230289e-11
-1.670000000e-02	2.678481039e-01	-3.569204050e-04	2.126431962e-11
-1.680000000e-02	2.678481019e-01	-3.542071446e-04	1.506619283e-11
-1.690000000e-02	2.678480999e-01	-3.514938844e-04	1.239898048e-11
-1.700000000e-02	2.678480977e-01	-3.487806245e-04	1.618557977e-11
-1.710000000e-02	2.678480955e-01	-3.460673647e-04	1.165995118e-11
-1.720000000e-02	2.678480932e-01	-3.433541052e-04	9.164841365e-12
-1.730000000e-02	2.678480908e-01	-3.406408459e-04	1.112989967e-11
-1.740000000e-02	2.678480884e-01	-3.379275868e-04	1.398455862e-11
-1.750000000e-02	2.678480858e-01	-3.352143280e-04	1.984401826e-11
-1.760000000e-02	2.678480832e-01	-3.325010694e-04	1.223978326e-11
-1.770000000e-02	2.678480805e-01	-3.297878110e-04	8.078409460e-12
-1.780000000e-02	2.678480777e-01	-3.270745528e-04	7.356171406e-12
-1.790000000e-02	2.678480748e-01	-3.243612949e-04	6.676407119e-12
-1.800000000e-02	2.678480719e-01	-3.216480373e-04	1.114894116e-11
-1.810000000e-02	2.678480688e-01	-3.189347799e-04	7.172351767e-12
-1.820000000e-02	2.678480657e-01	-3.162215228e-04	3.651683646e-11
-1.830000000e-02	2.678480625e-01	-3.135082659e-04	1.743914252e-11
-1.840000000e-02	2.678480592e-01	-3.107950093e-04	8.119654515e-12
-1.850000000e-02	2.678480558e-01	-3.080817530e-04	7.171048879e-11
-1.860000000e-02	2.678480524e-01	-3.053684969e-04	7.376029959e-12
-1.870000000e-02	2.678480488e-01	-3.026552411e-04	2.232641941e-11
-1.880000000e-02	2.678480452e-01	-2.999419856e-04	6.507105403e-12
-1.890000000e-02	2.678480415e-01	-2.972287304e-04	1.177004477e-10
-1.900000000e-02	2.678480377e-01	-2.945154755e-04	6.420264914e-12
-1.910000000e-02	2.678480339e-01	-2.918022209e-04	3.414490750e-11
-1.920000000e-02	2.678480299e-01	-2.890889666e-04	7.316336817e-12
-1.930000000e-02	2.678480259e-01	-2.863757125e-04	2.119124490e-10
-1.940000000e-02	2.678480218e-01	-2.836624588e-04	1.651030757e-11
-1.950000000e-02	2.678480176e-01	-2.809492054e-04	1.072188520e-11
-1.960000000e-02	2.678480133e-01	-2.782359523e-04	9.924539558e-12
-1.970000000e-02	2.678480090e-01	-2.755226996e-04	3.502003898e-11
-1.980000000e-02	2.678480045e-01	-2.728094472e-04	7.569935150e-12
-1.990000000e-02	2.678480000e-01	-2.700961950e-04	9.307292754e-11
-2.000000000e-02	2.678479954e-01	-2.673829433e-04	9.886082454e-12
-2.010000000e-02	2.678479907e-01	-2.646696918e-04	2.066501376e-11
-2.020000000e-02	2.678479859e-01	-2.619564407e-04	9.693088543e-12
-2.030000000e-02	2.678479811e-01	-2.592431900e-04	1.606206889e-11
-2.040000000e-02	2.678479761e-01	-2.565299396e-04	1.206300063e-11
-2.050000000e-02	2.678479711e-01	-2.538166895e-04	2.290890607e-11
-2.060000000e-02	2.678479660e-01	-2.511034399e-04	5.707737847e-12
-2.070000000e-02	2.678479608e-01	-2.483901905e-04	1.048219950e-11
-2.080000000e-02	2.678479556e-01	-2.456769416e-04	5.266982777e-12
-2.090000000e-02	2.678479502e-01	-2.429636930e-04	1.140343204e-11
-2.100000000e-02	2.678479448e-01	-2.402504448e-04	1.716015559e-11
-2.110000000e-02	2.678479393e-01	-2.375371969e-04	1.022947799e-11
-2.120000000e-02	2.678479337e-01	-2.348239495e-04	8.600118986e-12
-2.130000000e-02	2.678479280e-01	-2.321107024e-04	7.059466660e-12
-2.140000000e-02	2.678479222e-01	-2.293974558e-04	2.021981664e-10
-2.150000000e-02	2.678479164e-01	-2.266842095e-04	7.571795522e-11
-2.160000000e-02	2.678479105e-01	-2.239709636e-04	1.076311439e-11
-2.170000000e-02	2.678479044e-01	-2.212577181e-04	4.168814023e-11
-2.180000000e-02	2.678478984e-01	-2.185444731e-04	8.505929659e-12
-2.190000000e-02	2.678478922e-01	-2.158312284e-04	2.033303739e-11
-2.200000000e-02	2.678478859e-01	-2.131179842e-04	9.331999659e-12
-2.210000000e-02	2.678478796e-01	-2.104047404e-04	3.320378710e-11
-2.220000000e-02	2.678478732e-01	-2.076914970e-04	1.643030420e-11
-2.230000000e-02	2.678478667e-01	-2.049782540e-04	5.878429502e-12
-2.240000000e-02	2.678478601e-01	-2.022650115e-04	7.923095439e-12
-2.250000000e-02	2.678478534e-01	-1.995517694e-04	5.344001966e-12
-2.260000000e-02	2.678478467e-01	-1.968385278e-04	3.207842642e-12
-2.270000000e-02	2.678478398e-01	-1.941252866e-04	8.490511015e-12
-2.280000000e-02	2.678478329e-01	-1.914120458e-04	4.370960250e-12
-2.290000000e-02	2.678478259e-01	-1.886988055e-04	1.188161882e-11
-2.300000000e-02	2.678478188e-01	-1.859855657e-04	1.052942532e-11
-2.310000000e-02	2.678478117e-01	-1.832723263e-04	8.586664790e-11
-2.320000000e-02	2.678478044e-01	-1.805590874e-04	9.208762908e-12
-2.330000000e-02	2.678477971e-01	-1.778458490e-04	3.932362421e-11
-2.340000000e-02	2.678477897e-01	-1.751326110e-04	1.534989158e-11
-2.350000000e-02	2.678477822e-01	-1.724193735e-04	4.857738557e-12
-2.360000000e-02	2.678477746e-01	-1.697061365e-04	1.006368147e-11
-2.370000000e-02	2.678477670e-01	-1.669929000e-04	1.097436991e-11
-2.380000000e-02	2.678477592e-01	-1.642796640e-04	8.830368763e-12
-2.390000000e-02	2.678477514e-01	-1.615664284e-04	1.176313421e-11
-2.400000000e-02	2.678477435e-01	-1.588531934e-04	1.933003136e-11
-2.410000000e-02	2.678477355e-01	-1.561399589e-04	1.165374972e-11
-2.420000000e-02	2.678477275e-01	-1.534267249e-04	2.388817958e-11
-2.430000000e-02	2.678477193e-01	-1.507134914e-04	4.616019691e-12
-2.440000000e-02	2.678477111e-01	-1.480002584e-04	2.027108702e-11
-2.450000000e-02	2.678477028e-01	-1.452870259e-04	2.613038756e-11
-2.460000000e-02	2.678476944e-01	-1.425737940e-04	1.755888292e-11
-2.470000000e-02	2.678476859e-01	-1.398605626e-04	1.010042078e-11
-2.480000000e-02	2.678476773e-01	-1.371473317e-04	3.073859909e-11
-2.490000000e-02	2.678476687e-01	-1.344341014e-04	3.840095822e-11
-2.500000000e-02	2.678476599e-01	-1.317208716e-04	1.815719192e-11
-2.510000000e-02	2.678476511e-01	-1.290076423e-04	7.046941217e-11
-2.520000000e-02	2.678476422e-01	-1.262944136e-04	1.611281372e-11
-2.530000000e-02	2.678476333e-01	-1.235811855e-04	1.172031164e-11
-2.540000000e-02	2.678476242e-01	-1.208679579e-04	6.737340596e-12
-2.550000000e-02	2.678476151e-01	-1.181547309e-04	9.626008225e-12
-2.560000000e-02	2.678476058e-01	-1.154415044e-04	4.912309689e-11
-2.570000000e-02	2.678475965e-01	-1.127282785e-04	9.077129941e-12
-2.580000000e-02	2.678475871e-01	-1.100150532e-04	3.308748472e-11
-2.590000000e-02	2.678475777e-01	-1.073018285e-04	9.067665434e-12
-2.600000000e-02	2.678475681e-01	-1.045886043e-04	1.005581681e-11
-2.610000000e-02	2.678475585e-01	-1.018753808e-04	1.569717170e-11
-2.620000000e-02	2.678475488e-01	-9.916215780e-05	1.104593323e-11
-2.630000000e-02	2.678475390e-01	-9.644893542e-05	4.221553644e-12
-2.640000000e-02	2.678475291e-01	-9.373571365e-05	2.084309799e-11
-2.650000000e-02	2.678475191e-01	-9.102249248e-05	4.149100196e-11
-2.660000000e-02	2.678475091e-01	-8.830927192e-05	1.590867081e-11
-2.670000000e-02	2.678474989e-01	-8.559605197e-05	2.009179509e-11
-2.680000000e-02	2.678474887e-01	-8.288283264e-05	1.299321061e-11
-2.690000000e-02	2.678474784e-01	-8.016961393e-05	1.053346503e-11
-2.700000000e-02	2.678474681e-01	-7.745639584e-05	5.186613683e-12
-2.710000000e-02	2.678474576e-01	-7.474317839e-05	1.507899645e-11
-2.720000000e-02	2.678474471e-01	-7.202996157e-05	1.910415469e-11
-2.730000000e-02	2.678474364e-01	-6.931674538e-05	1.322316984e-11
-2.740000000e-02	2.678474257e-01	-6.660352984e-05	2.151408321e-11
-2.750000000e-02	2.678474149e-01	-6.389031494e-05	3.171152258e-11
-2.760000000e-02	2.678474041e-01	-6.117710070e-05	1.208390891e-11
-2.770000000e-02	2.678473931e-01	-5.846388710e-05	1.213315912e-11
-2.780000000e-02	2.678473821e-01	-5.575067417e-05	6.369428876e-11
-2.790000000e-02	2.678473710e-01	-5.303746190e-05	1.180369989e-11
-2.800000000e-02	2.678473598e-01	-5.032425030e-05	1.595773229e-11
-2.810000000e-02	2.678473485e-01	-4.761103937e-05	6.494662111e-11
-2.820000000e-02	2.678473371e-01	-4.489782910e-05	1.970932784e-11
-2.830000000e-02	2.678473257e-01	-4.218461953e-05	9.121601838e-12
-2.840000000e-02	2.678473141e-01	-3.947141063e-05	8.747241090e-12
-2.850000000e-02	2.678473025e-01	-3.675820243e-05	1.364040618e-11
-2.860000000e-02	2.678472908e-01	-3.404499491e-05	8.921539292e-12
-2.870000000e-02	2.678472790e-01	-3.133178809e-05	3.989277610e-12
-2.880000000e-02	2.678472672e-01	-2.861858197e-05	1.173759764e-11
-2.890000000e-02	2.678472552e-01	-2.590537656e-05	6.456499901e-12
-2.900000000e-02	2.678472432e-01	-2.319217185e-05	1.068254193e-11
-2.910000000e-02	2.678472311e-01	-2.047896786e-05	4.170669362e-11
-2.920000000e-02	2.678472189e-01	-1.776576458e-05	9.542096091e-12
-2.930000000e-02	2.678472066e-01	-1.505256203e-05	1.040263784e-11
-2.940000000e-02	2.678471943e-01	-1.233936020e-05	9.366586236e-12
-2.950000000e-02	2.678471819e-01	-9.626159100e-06	1.896723062e-11
-2.960000000e-02	2.678471693e-01	-6.912958732e-06	3.818736173e-11
-2.970000000e-02	2.678471567e-01	-4.199759104e-06	1.646056911e-11
-2.980000000e-02	2.678471440e-01	-1.486560217e-06	1.840988311e-11
-2.990000000e-02	2.678471313e-01	1.226637923e-06	2.146582721e-11
-3.000000000e-02	2.678471184e-01	3.939835313e-06	1.729910198e-11
