# Im(epsi1)     Re(omega/c)      Im(omega/c)      Eq(det).Opt det CON kz, R=0.5 \mum, mu_c=0.3, Re(epsi1)=3.90solve_det_conkz_vs_kz.py
0.000000000e+00	2.678531545e-01	-8.100601092e-04	7.889406005e-12
-1.000000000e-04	2.678531663e-01	-8.073468266e-04	1.016787879e-11
-2.000000000e-04	2.678531780e-01	-8.046335435e-04	1.313054497e-11
-3.000000000e-04	2.678531897e-01	-8.019202600e-04	1.069896162e-11
-4.000000000e-04	2.678532012e-01	-7.992069759e-04	1.309383036e-11
-5.000000000e-04	2.678532127e-01	-7.964936914e-04	1.294034098e-11
-6.000000000e-04	2.678532241e-01	-7.937804064e-04	6.997124829e-12
-7.000000000e-04	2.678532354e-01	-7.910671209e-04	7.672926983e-12
-8.000000000e-04	2.678532466e-01	-7.883538349e-04	1.374540592e-11
-9.000000000e-04	2.678532577e-01	-7.856405485e-04	1.149323763e-11
-1.000000000e-03	2.678532688e-01	-7.829272616e-04	1.311697300e-11
-1.100000000e-03	2.678532798e-01	-7.802139743e-04	1.206085668e-11
-1.200000000e-03	2.678532906e-01	-7.775006865e-04	4.678471226e-12
-1.300000000e-03	2.678533015e-01	-7.747873983e-04	1.492415055e-11
-1.400000000e-03	2.678533122e-01	-7.720741096e-04	1.555217369e-11
-1.500000000e-03	2.678533228e-01	-7.693608205e-04	9.093812222e-12
-1.600000000e-03	2.678533334e-01	-7.666475310e-04	1.541705484e-11
-1.700000000e-03	2.678533439e-01	-7.639342410e-04	1.452124236e-11
-1.800000000e-03	2.678533542e-01	-7.612209506e-04	7.954156214e-12
-1.900000000e-03	2.678533646e-01	-7.585076598e-04	1.648800499e-11
-2.000000000e-03	2.678533748e-01	-7.557943685e-04	1.821450351e-11
-2.100000000e-03	2.678533849e-01	-7.530810769e-04	1.712005988e-11
-2.200000000e-03	2.678533950e-01	-7.503677848e-04	4.376438020e-11
-2.300000000e-03	2.678534050e-01	-7.476544923e-04	5.585276798e-12
-2.400000000e-03	2.678534149e-01	-7.449411995e-04	1.566016232e-11
-2.500000000e-03	2.678534247e-01	-7.422279062e-04	6.337470125e-12
-2.600000000e-03	2.678534344e-01	-7.395146125e-04	1.403926446e-11
-2.700000000e-03	2.678534441e-01	-7.368013185e-04	1.047506187e-11
-2.800000000e-03	2.678534537e-01	-7.340880241e-04	1.798321362e-11
-2.900000000e-03	2.678534631e-01	-7.313747293e-04	3.220916253e-12
-3.000000000e-03	2.678534725e-01	-7.286614341e-04	1.371064210e-11
-3.100000000e-03	2.678534819e-01	-7.259481385e-04	9.386269153e-12
-3.200000000e-03	2.678534911e-01	-7.232348426e-04	1.170117921e-11
-3.300000000e-03	2.678535003e-01	-7.205215463e-04	5.591673906e-11
-3.400000000e-03	2.678535093e-01	-7.178082496e-04	7.879601352e-12
-3.500000000e-03	2.678535183e-01	-7.150949526e-04	1.091989080e-11
-3.600000000e-03	2.678535272e-01	-7.123816553e-04	8.009079336e-12
-3.700000000e-03	2.678535361e-01	-7.096683576e-04	1.846727781e-11
-3.800000000e-03	2.678535448e-01	-7.069550595e-04	1.099291045e-11
-3.900000000e-03	2.678535535e-01	-7.042417611e-04	1.401007360e-11
-4.000000000e-03	2.678535621e-01	-7.015284624e-04	1.402565929e-11
-4.100000000e-03	2.678535706e-01	-6.988151634e-04	1.991992552e-11
-4.200000000e-03	2.678535790e-01	-6.961018640e-04	2.428383575e-11
-4.300000000e-03	2.678535873e-01	-6.933885643e-04	9.375198725e-12
-4.400000000e-03	2.678535956e-01	-6.906752643e-04	9.052604665e-12
-4.500000000e-03	2.678536037e-01	-6.879619640e-04	2.680379965e-11
-4.600000000e-03	2.678536118e-01	-6.852486633e-04	5.453129208e-12
-4.700000000e-03	2.678536198e-01	-6.825353624e-04	1.177001725e-11
-4.800000000e-03	2.678536277e-01	-6.798220611e-04	9.466716470e-12
-4.900000000e-03	2.678536356e-01	-6.771087596e-04	9.925290232e-12
-5.000000000e-03	2.678536433e-01	-6.743954578e-04	3.223751177e-12
-5.100000000e-03	2.678536510e-01	-6.716821557e-04	1.262036920e-11
-5.200000000e-03	2.678536586e-01	-6.689688533e-04	3.903116136e-11
-5.300000000e-03	2.678536661e-01	-6.662555506e-04	4.372090311e-12
-5.400000000e-03	2.678536735e-01	-6.635422476e-04	1.286677834e-11
-5.500000000e-03	2.678536809e-01	-6.608289444e-04	1.064753838e-11
-5.600000000e-03	2.678536882e-01	-6.581156409e-04	8.284407092e-12
-5.700000000e-03	2.678536953e-01	-6.554023371e-04	4.642762745e-12
-5.800000000e-03	2.678537024e-01	-6.526890331e-04	1.798546305e-11
-5.900000000e-03	2.678537094e-01	-6.499757288e-04	1.665420755e-11
-6.000000000e-03	2.678537164e-01	-6.472624243e-04	1.199504962e-12
-6.100000000e-03	2.678537232e-01	-6.445491195e-04	7.637402202e-12
-6.200000000e-03	2.678537300e-01	-6.418358145e-04	1.086562865e-11
-6.300000000e-03	2.678537367e-01	-6.391225092e-04	1.570424867e-11
-6.400000000e-03	2.678537433e-01	-6.364092038e-04	5.950346496e-11
-6.500000000e-03	2.678537498e-01	-6.336958980e-04	7.970271011e-12
-6.600000000e-03	2.678537562e-01	-6.309825921e-04	1.732049344e-11
-6.700000000e-03	2.678537626e-01	-6.282692859e-04	3.219601878e-11
-6.800000000e-03	2.678537689e-01	-6.255559795e-04	9.860902019e-12
-6.900000000e-03	2.678537751e-01	-6.228426729e-04	4.539821204e-12
-7.000000000e-03	2.678537812e-01	-6.201293661e-04	9.650829182e-12
-7.100000000e-03	2.678537872e-01	-6.174160591e-04	1.514747575e-11
-7.200000000e-03	2.678537931e-01	-6.147027519e-04	3.703235670e-11
-7.300000000e-03	2.678537990e-01	-6.119894445e-04	3.366419903e-11
-7.400000000e-03	2.678538048e-01	-6.092761369e-04	1.330498874e-11
-7.500000000e-03	2.678538105e-01	-6.065628291e-04	3.191365112e-11
-7.600000000e-03	2.678538161e-01	-6.038495211e-04	9.467865430e-12
-7.700000000e-03	2.678538216e-01	-6.011362130e-04	1.365367344e-11
-7.800000000e-03	2.678538271e-01	-5.984229047e-04	2.294607132e-11
-7.900000000e-03	2.678538324e-01	-5.957095962e-04	9.963093551e-12
-8.000000000e-03	2.678538377e-01	-5.929962875e-04	1.213821776e-11
-8.100000000e-03	2.678538429e-01	-5.902829786e-04	2.224711256e-11
-8.200000000e-03	2.678538480e-01	-5.875696697e-04	5.100943673e-11
-8.300000000e-03	2.678538531e-01	-5.848563605e-04	4.920215907e-12
-8.400000000e-03	2.678538580e-01	-5.821430512e-04	1.918277018e-11
-8.500000000e-03	2.678538629e-01	-5.794297418e-04	7.889866563e-12
-8.600000000e-03	2.678538677e-01	-5.767164322e-04	8.973123737e-11
-8.700000000e-03	2.678538724e-01	-5.740031225e-04	2.256504077e-11
-8.800000000e-03	2.678538770e-01	-5.712898126e-04	1.077703912e-11
-8.900000000e-03	2.678538816e-01	-5.685765026e-04	1.274710086e-11
-9.000000000e-03	2.678538860e-01	-5.658631925e-04	8.928879525e-12
-9.100000000e-03	2.678538904e-01	-5.631498823e-04	3.395410017e-11
-9.200000000e-03	2.678538947e-01	-5.604365719e-04	1.273963601e-11
-9.300000000e-03	2.678538989e-01	-5.577232615e-04	1.536936718e-11
-9.400000000e-03	2.678539030e-01	-5.550099509e-04	1.137088040e-11
-9.500000000e-03	2.678539071e-01	-5.522966402e-04	1.612682723e-11
-9.600000000e-03	2.678539110e-01	-5.495833294e-04	1.644530073e-11
-9.700000000e-03	2.678539149e-01	-5.468700185e-04	1.902721563e-11
-9.800000000e-03	2.678539187e-01	-5.441567076e-04	5.789076513e-12
-9.900000000e-03	2.678539224e-01	-5.414433965e-04	3.473969735e-12
-1.000000000e-02	2.678539261e-01	-5.387300854e-04	6.929380760e-12
-1.010000000e-02	2.678539296e-01	-5.360167742e-04	7.990900385e-12
-1.020000000e-02	2.678539331e-01	-5.333034629e-04	1.589458718e-11
-1.030000000e-02	2.678539365e-01	-5.305901515e-04	1.065768034e-11
-1.040000000e-02	2.678539398e-01	-5.278768401e-04	1.131052098e-11
-1.050000000e-02	2.678539430e-01	-5.251635286e-04	1.978555040e-11
-1.060000000e-02	2.678539462e-01	-5.224502170e-04	6.505400963e-11
-1.070000000e-02	2.678539492e-01	-5.197369054e-04	1.023941078e-11
-1.080000000e-02	2.678539522e-01	-5.170235937e-04	9.373650219e-12
-1.090000000e-02	2.678539551e-01	-5.143102820e-04	6.755972532e-12
-1.100000000e-02	2.678539579e-01	-5.115969703e-04	2.281950416e-11
-1.110000000e-02	2.678539606e-01	-5.088836585e-04	1.173392838e-11
-1.120000000e-02	2.678539633e-01	-5.061703467e-04	7.450388189e-12
-1.130000000e-02	2.678539658e-01	-5.034570348e-04	3.324733241e-11
-1.140000000e-02	2.678539683e-01	-5.007437229e-04	1.564390927e-11
-1.150000000e-02	2.678539707e-01	-4.980304110e-04	2.149791274e-11
-1.160000000e-02	2.678539730e-01	-4.953170991e-04	1.472870237e-11
-1.170000000e-02	2.678539753e-01	-4.926037872e-04	1.624467622e-11
-1.180000000e-02	2.678539774e-01	-4.898904752e-04	1.179687863e-11
-1.190000000e-02	2.678539795e-01	-4.871771633e-04	1.941700228e-11
-1.200000000e-02	2.678539815e-01	-4.844638514e-04	2.378267943e-11
-1.210000000e-02	2.678539834e-01	-4.817505394e-04	1.659922018e-11
-1.220000000e-02	2.678539852e-01	-4.790372275e-04	1.178921227e-11
-1.230000000e-02	2.678539870e-01	-4.763239156e-04	4.705445492e-12
-1.240000000e-02	2.678539886e-01	-4.736106037e-04	2.336422347e-11
-1.250000000e-02	2.678539902e-01	-4.708972918e-04	9.058689054e-12
-1.260000000e-02	2.678539917e-01	-4.681839799e-04	6.278320901e-12
-1.270000000e-02	2.678539931e-01	-4.654706681e-04	5.880877862e-12
-1.280000000e-02	2.678539944e-01	-4.627573563e-04	1.597699517e-11
-1.290000000e-02	2.678539957e-01	-4.600440445e-04	1.040525342e-11
-1.300000000e-02	2.678539968e-01	-4.573307328e-04	1.125293453e-11
-1.310000000e-02	2.678539979e-01	-4.546174211e-04	6.477497366e-12
-1.320000000e-02	2.678539989e-01	-4.519041095e-04	1.128754284e-11
-1.330000000e-02	2.678539998e-01	-4.491907979e-04	2.057433236e-11
-1.340000000e-02	2.678540006e-01	-4.464774864e-04	1.288066657e-11
-1.350000000e-02	2.678540014e-01	-4.437641750e-04	1.344806559e-11
-1.360000000e-02	2.678540021e-01	-4.410508636e-04	7.263638225e-12
-1.370000000e-02	2.678540027e-01	-4.383375523e-04	1.073036482e-11
-1.380000000e-02	2.678540032e-01	-4.356242410e-04	1.066049817e-11
-1.390000000e-02	2.678540036e-01	-4.329109299e-04	5.292830023e-12
-1.400000000e-02	2.678540039e-01	-4.301976188e-04	1.503303983e-11
-1.410000000e-02	2.678540042e-01	-4.274843078e-04	4.930201753e-12
-1.420000000e-02	2.678540043e-01	-4.247709969e-04	7.589574709e-12
-1.430000000e-02	2.678540044e-01	-4.220576861e-04	1.441844578e-11
-1.440000000e-02	2.678540044e-01	-4.193443754e-04	2.578068058e-11
-1.450000000e-02	2.678540044e-01	-4.166310648e-04	2.120505642e-11
-1.460000000e-02	2.678540042e-01	-4.139177543e-04	2.561336810e-11
-1.470000000e-02	2.678540040e-01	-4.112044439e-04	9.757735959e-12
-1.480000000e-02	2.678540037e-01	-4.084911336e-04	1.272225816e-11
-1.490000000e-02	2.678540033e-01	-4.057778235e-04	3.510934188e-11
-1.500000000e-02	2.678540028e-01	-4.030645135e-04	1.073210150e-11
-1.510000000e-02	2.678540022e-01	-4.003512036e-04	1.221713583e-11
-1.520000000e-02	2.678540015e-01	-3.976378938e-04	2.115942294e-11
-1.530000000e-02	2.678540008e-01	-3.949245842e-04	9.784199375e-12
-1.540000000e-02	2.678540000e-01	-3.922112747e-04	1.423201132e-11
-1.550000000e-02	2.678539991e-01	-3.894979654e-04	6.316541835e-12
-1.560000000e-02	2.678539981e-01	-3.867846562e-04	3.079181913e-12
-1.570000000e-02	2.678539971e-01	-3.840713472e-04	1.042995276e-11
-1.580000000e-02	2.678539959e-01	-3.813580383e-04	1.395909869e-11
-1.590000000e-02	2.678539947e-01	-3.786447296e-04	1.769800493e-11
-1.600000000e-02	2.678539934e-01	-3.759314210e-04	2.354364735e-11
-1.610000000e-02	2.678539920e-01	-3.732181127e-04	1.292005713e-11
-1.620000000e-02	2.678539905e-01	-3.705048045e-04	3.155211086e-11
-1.630000000e-02	2.678539890e-01	-3.677914964e-04	1.424151886e-11
-1.640000000e-02	2.678539873e-01	-3.650781886e-04	1.381114272e-11
-1.650000000e-02	2.678539856e-01	-3.623648809e-04	1.991994763e-11
-1.660000000e-02	2.678539838e-01	-3.596515735e-04	3.994161078e-11
-1.670000000e-02	2.678539819e-01	-3.569382662e-04	1.328042308e-11
-1.680000000e-02	2.678539799e-01	-3.542249592e-04	1.917203870e-11
-1.690000000e-02	2.678539779e-01	-3.515116523e-04	1.759084712e-11
-1.700000000e-02	2.678539757e-01	-3.487983456e-04	1.918784363e-11
-1.710000000e-02	2.678539735e-01	-3.460850392e-04	6.211560306e-12
-1.720000000e-02	2.678539712e-01	-3.433717330e-04	1.030527419e-11
-1.730000000e-02	2.678539688e-01	-3.406584270e-04	9.618105207e-12
-1.740000000e-02	2.678539664e-01	-3.379451212e-04	1.758384240e-11
-1.750000000e-02	2.678539638e-01	-3.352318156e-04	6.920564153e-12
-1.760000000e-02	2.678539612e-01	-3.325185103e-04	5.780135584e-12
-1.770000000e-02	2.678539585e-01	-3.298052052e-04	6.418953696e-11
-1.780000000e-02	2.678539557e-01	-3.270919004e-04	1.364699755e-11
-1.790000000e-02	2.678539528e-01	-3.243785958e-04	1.106964927e-11
-1.800000000e-02	2.678539499e-01	-3.216652915e-04	5.895776480e-12
-1.810000000e-02	2.678539468e-01	-3.189519874e-04	3.618058142e-11
-1.820000000e-02	2.678539437e-01	-3.162386836e-04	1.593859179e-11
-1.830000000e-02	2.678539405e-01	-3.135253800e-04	6.581085962e-11
-1.840000000e-02	2.678539372e-01	-3.108120767e-04	1.262391097e-11
-1.850000000e-02	2.678539338e-01	-3.080987737e-04	1.550883387e-11
-1.860000000e-02	2.678539304e-01	-3.053854709e-04	9.755562444e-12
-1.870000000e-02	2.678539268e-01	-3.026721684e-04	3.484048995e-11
-1.880000000e-02	2.678539232e-01	-2.999588662e-04	8.153651627e-11
-1.890000000e-02	2.678539195e-01	-2.972455643e-04	6.026269794e-12
-1.900000000e-02	2.678539157e-01	-2.945322627e-04	1.438389051e-11
-1.910000000e-02	2.678539119e-01	-2.918189614e-04	4.743273748e-12
-1.920000000e-02	2.678539079e-01	-2.891056604e-04	1.075286465e-11
-1.930000000e-02	2.678539039e-01	-2.863923596e-04	6.721173274e-12
-1.940000000e-02	2.678538998e-01	-2.836790592e-04	2.350426512e-11
-1.950000000e-02	2.678538956e-01	-2.809657591e-04	1.307072139e-11
-1.960000000e-02	2.678538913e-01	-2.782524594e-04	1.034479528e-11
-1.970000000e-02	2.678538870e-01	-2.755391599e-04	9.074788581e-12
-1.980000000e-02	2.678538825e-01	-2.728258608e-04	3.593010995e-11
-1.990000000e-02	2.678538780e-01	-2.701125620e-04	2.281207883e-11
-2.000000000e-02	2.678538734e-01	-2.673992635e-04	3.730725488e-11
-2.010000000e-02	2.678538687e-01	-2.646859653e-04	1.528588298e-11
-2.020000000e-02	2.678538639e-01	-2.619726676e-04	1.752955987e-11
-2.030000000e-02	2.678538591e-01	-2.592593701e-04	1.319256507e-11
-2.040000000e-02	2.678538541e-01	-2.565460730e-04	1.309659477e-11
-2.050000000e-02	2.678538491e-01	-2.538327763e-04	6.769716342e-12
-2.060000000e-02	2.678538440e-01	-2.511194799e-04	2.228427936e-11
-2.070000000e-02	2.678538388e-01	-2.484061839e-04	1.350441761e-11
-2.080000000e-02	2.678538336e-01	-2.456928882e-04	1.101621485e-11
-2.090000000e-02	2.678538282e-01	-2.429795929e-04	1.212699149e-11
-2.100000000e-02	2.678538228e-01	-2.402662980e-04	6.874511869e-12
-2.110000000e-02	2.678538173e-01	-2.375530035e-04	2.551587818e-11
-2.120000000e-02	2.678538117e-01	-2.348397093e-04	9.871898948e-12
-2.130000000e-02	2.678538060e-01	-2.321264156e-04	6.245130849e-12
-2.140000000e-02	2.678538002e-01	-2.294131222e-04	1.039995119e-11
-2.150000000e-02	2.678537944e-01	-2.266998292e-04	6.172608712e-11
-2.160000000e-02	2.678537885e-01	-2.239865366e-04	2.068818603e-11
-2.170000000e-02	2.678537825e-01	-2.212732445e-04	2.406061531e-11
-2.180000000e-02	2.678537764e-01	-2.185599527e-04	3.029420426e-11
-2.190000000e-02	2.678537702e-01	-2.158466614e-04	1.582366974e-11
-2.200000000e-02	2.678537639e-01	-2.131333704e-04	1.124803329e-11
-2.210000000e-02	2.678537576e-01	-2.104200799e-04	1.843127531e-11
-2.220000000e-02	2.678537512e-01	-2.077067898e-04	1.153373190e-11
-2.230000000e-02	2.678537447e-01	-2.049935002e-04	2.058075574e-11
-2.240000000e-02	2.678537381e-01	-2.022802110e-04	2.667305835e-11
-2.250000000e-02	2.678537314e-01	-1.995669222e-04	1.917122637e-11
-2.260000000e-02	2.678537247e-01	-1.968536338e-04	2.661520945e-11
-2.270000000e-02	2.678537178e-01	-1.941403459e-04	6.031417061e-11
-2.280000000e-02	2.678537109e-01	-1.914270585e-04	2.835492675e-11
-2.290000000e-02	2.678537039e-01	-1.887137715e-04	2.694852873e-11
-2.300000000e-02	2.678536969e-01	-1.860004849e-04	7.959814604e-12
-2.310000000e-02	2.678536897e-01	-1.832871989e-04	8.149388109e-12
-2.320000000e-02	2.678536824e-01	-1.805739133e-04	2.793555379e-11
-2.330000000e-02	2.678536751e-01	-1.778606281e-04	1.854898793e-11
-2.340000000e-02	2.678536677e-01	-1.751473435e-04	1.092433806e-11
-2.350000000e-02	2.678536602e-01	-1.724340593e-04	2.123147689e-11
-2.360000000e-02	2.678536526e-01	-1.697207756e-04	5.320867274e-12
-2.370000000e-02	2.678536450e-01	-1.670074924e-04	8.857960506e-12
-2.380000000e-02	2.678536372e-01	-1.642942096e-04	5.691110639e-13
-2.390000000e-02	2.678536294e-01	-1.615809274e-04	2.527828563e-11
-2.400000000e-02	2.678536215e-01	-1.588676457e-04	3.045799753e-11
-2.410000000e-02	2.678536135e-01	-1.561543645e-04	8.137775566e-12
-2.420000000e-02	2.678536055e-01	-1.534410838e-04	1.035382127e-11
-2.430000000e-02	2.678535973e-01	-1.507278036e-04	1.762147396e-11
-2.440000000e-02	2.678535891e-01	-1.480145239e-04	4.801964456e-12
-2.450000000e-02	2.678535808e-01	-1.453012447e-04	1.763442120e-11
-2.460000000e-02	2.678535724e-01	-1.425879661e-04	1.181804221e-11
-2.470000000e-02	2.678535639e-01	-1.398746880e-04	9.228085459e-12
-2.480000000e-02	2.678535553e-01	-1.371614104e-04	2.218466661e-11
-2.490000000e-02	2.678535467e-01	-1.344481334e-04	7.823827185e-12
-2.500000000e-02	2.678535380e-01	-1.317348569e-04	1.130039980e-11
-2.510000000e-02	2.678535291e-01	-1.290215809e-04	5.588583864e-12
-2.520000000e-02	2.678535202e-01	-1.263083055e-04	1.476005081e-11
-2.530000000e-02	2.678535113e-01	-1.235950307e-04	1.286192869e-11
-2.540000000e-02	2.678535022e-01	-1.208817564e-04	5.845508545e-12
-2.550000000e-02	2.678534931e-01	-1.181684827e-04	2.121566225e-12
-2.560000000e-02	2.678534839e-01	-1.154552095e-04	2.272442034e-11
-2.570000000e-02	2.678534745e-01	-1.127419369e-04	1.366748470e-11
-2.580000000e-02	2.678534652e-01	-1.100286649e-04	7.141172058e-12
-2.590000000e-02	2.678534557e-01	-1.073153935e-04	1.554223750e-11
-2.600000000e-02	2.678534461e-01	-1.046021226e-04	3.370737451e-11
-2.610000000e-02	2.678534365e-01	-1.018888524e-04	9.981077489e-12
-2.620000000e-02	2.678534268e-01	-9.917558270e-05	7.806650753e-12
-2.630000000e-02	2.678534170e-01	-9.646231363e-05	2.178725401e-11
-2.640000000e-02	2.678534071e-01	-9.374904516e-05	1.593507845e-11
-2.650000000e-02	2.678533971e-01	-9.103577729e-05	2.643186011e-11
-2.660000000e-02	2.678533871e-01	-8.832251003e-05	1.048414235e-11
-2.670000000e-02	2.678533770e-01	-8.560924338e-05	2.235432591e-11
-2.680000000e-02	2.678533668e-01	-8.289597735e-05	3.679181324e-11
-2.690000000e-02	2.678533565e-01	-8.018271194e-05	4.289116213e-12
-2.700000000e-02	2.678533461e-01	-7.746944716e-05	8.264340649e-12
-2.710000000e-02	2.678533356e-01	-7.475618300e-05	1.481861012e-11
-2.720000000e-02	2.678533251e-01	-7.204291948e-05	1.517338436e-10
-2.730000000e-02	2.678533145e-01	-6.932965660e-05	2.243830613e-11
-2.740000000e-02	2.678533038e-01	-6.661639436e-05	3.335574348e-12
-2.750000000e-02	2.678532930e-01	-6.390313276e-05	1.435100854e-11
-2.760000000e-02	2.678532821e-01	-6.118987182e-05	1.599298143e-11
-2.770000000e-02	2.678532711e-01	-5.847661153e-05	8.500736892e-12
-2.780000000e-02	2.678532601e-01	-5.576335189e-05	5.043429059e-11
-2.790000000e-02	2.678532490e-01	-5.305009292e-05	1.292585377e-11
-2.800000000e-02	2.678532378e-01	-5.033683462e-05	1.551911495e-11
-2.810000000e-02	2.678532265e-01	-4.762357699e-05	1.793830547e-11
-2.820000000e-02	2.678532151e-01	-4.491032003e-05	1.663084633e-11
-2.830000000e-02	2.678532037e-01	-4.219706376e-05	4.856991414e-11
-2.840000000e-02	2.678531922e-01	-3.948380816e-05	1.955002212e-11
-2.850000000e-02	2.678531805e-01	-3.677055326e-05	1.030675354e-11
-2.860000000e-02	2.678531688e-01	-3.405729904e-05	3.666263839e-11
-2.870000000e-02	2.678531571e-01	-3.134404552e-05	1.043636550e-11
-2.880000000e-02	2.678531452e-01	-2.863079271e-05	1.976246371e-11
-2.890000000e-02	2.678531333e-01	-2.591754059e-05	7.431471451e-12
-2.900000000e-02	2.678531212e-01	-2.320428919e-05	8.816221994e-12
-2.910000000e-02	2.678531091e-01	-2.049103849e-05	5.157313300e-11
-2.920000000e-02	2.678530969e-01	-1.777778852e-05	2.393377515e-11
-2.930000000e-02	2.678530847e-01	-1.506453927e-05	1.273808948e-11
-2.940000000e-02	2.678530723e-01	-1.235129074e-05	6.798958490e-11
-2.950000000e-02	2.678530599e-01	-9.638042937e-06	2.689499331e-11
-2.960000000e-02	2.678530474e-01	-6.924795872e-06	6.266336449e-12
-2.970000000e-02	2.678530348e-01	-4.211549545e-06	1.033573139e-11
-2.980000000e-02	2.678530221e-01	-1.498303958e-06	8.573323179e-12
-2.990000000e-02	2.678530093e-01	1.214940880e-06	8.068521550e-11
-3.000000000e-02	2.678529965e-01	3.928184971e-06	4.652176277e-12
