# Im(epsi1)     Re(omega/c)      Im(omega/c)      Eq(det).Opt det CON kz, R=0.5 \mum, mu_c=0.3, Re(epsi1)=3.90solve_det_conkz_vs_kz.py
0.000000000e+00	2.678533326e-01	-8.100608863e-04	1.732297495e-11
-1.000000000e-04	2.678533443e-01	-8.073476023e-04	1.079476598e-11
-2.000000000e-04	2.678533561e-01	-8.046343178e-04	1.084110731e-11
-3.000000000e-04	2.678533677e-01	-8.019210328e-04	9.076687536e-12
-4.000000000e-04	2.678533792e-01	-7.992077474e-04	1.243812915e-11
-5.000000000e-04	2.678533907e-01	-7.964944614e-04	5.830645976e-11
-6.000000000e-04	2.678534021e-01	-7.937811750e-04	1.962613033e-11
-7.000000000e-04	2.678534134e-01	-7.910678881e-04	1.242688467e-11
-8.000000000e-04	2.678534246e-01	-7.883546007e-04	1.259984837e-11
-9.000000000e-04	2.678534357e-01	-7.856413129e-04	1.960240870e-11
-1.000000000e-03	2.678534468e-01	-7.829280246e-04	2.938596326e-11
-1.100000000e-03	2.678534578e-01	-7.802147359e-04	1.576366854e-11
-1.200000000e-03	2.678534687e-01	-7.775014467e-04	1.502475410e-11
-1.300000000e-03	2.678534795e-01	-7.747881570e-04	2.201840540e-11
-1.400000000e-03	2.678534902e-01	-7.720748669e-04	1.071215314e-11
-1.500000000e-03	2.678535008e-01	-7.693615764e-04	9.548996173e-12
-1.600000000e-03	2.678535114e-01	-7.666482854e-04	3.072019065e-11
-1.700000000e-03	2.678535219e-01	-7.639349941e-04	5.793222311e-11
-1.800000000e-03	2.678535323e-01	-7.612217022e-04	5.256427445e-11
-1.900000000e-03	2.678535426e-01	-7.585084100e-04	2.242259836e-11
-2.000000000e-03	2.678535528e-01	-7.557951173e-04	1.213578215e-11
-2.100000000e-03	2.678535629e-01	-7.530818243e-04	5.817916211e-11
-2.200000000e-03	2.678535730e-01	-7.503685308e-04	2.858352874e-11
-2.300000000e-03	2.678535830e-01	-7.476552369e-04	1.364333066e-11
-2.400000000e-03	2.678535929e-01	-7.449419426e-04	1.296919174e-11
-2.500000000e-03	2.678536027e-01	-7.422286480e-04	7.532432408e-12
-2.600000000e-03	2.678536124e-01	-7.395153529e-04	2.400368057e-11
-2.700000000e-03	2.678536221e-01	-7.368020574e-04	8.027625901e-12
-2.800000000e-03	2.678536317e-01	-7.340887616e-04	1.921705213e-11
-2.900000000e-03	2.678536412e-01	-7.313754653e-04	3.553163755e-11
-3.000000000e-03	2.678536506e-01	-7.286621687e-04	9.264493797e-12
-3.100000000e-03	2.678536599e-01	-7.259488718e-04	1.120499091e-11
-3.200000000e-03	2.678536691e-01	-7.232355744e-04	2.667523138e-11
-3.300000000e-03	2.678536783e-01	-7.205222767e-04	1.237630813e-11
-3.400000000e-03	2.678536874e-01	-7.178089787e-04	1.647149084e-11
-3.500000000e-03	2.678536963e-01	-7.150956802e-04	8.936578468e-12
-3.600000000e-03	2.678537053e-01	-7.123823815e-04	2.589037120e-11
-3.700000000e-03	2.678537141e-01	-7.096690824e-04	4.458779087e-11
-3.800000000e-03	2.678537228e-01	-7.069557829e-04	1.302600012e-11
-3.900000000e-03	2.678537315e-01	-7.042424831e-04	1.572889999e-11
-4.000000000e-03	2.678537401e-01	-7.015291830e-04	7.800904623e-11
-4.100000000e-03	2.678537486e-01	-6.988158825e-04	7.485788893e-12
-4.200000000e-03	2.678537570e-01	-6.961025817e-04	1.971600494e-11
-4.300000000e-03	2.678537653e-01	-6.933892806e-04	9.714492963e-12
-4.400000000e-03	2.678537736e-01	-6.906759792e-04	1.204874750e-11
-4.500000000e-03	2.678537817e-01	-6.879626774e-04	2.902136234e-11
-4.600000000e-03	2.678537898e-01	-6.852493754e-04	5.201632272e-12
-4.700000000e-03	2.678537978e-01	-6.825360730e-04	7.539501401e-11
-4.800000000e-03	2.678538058e-01	-6.798227704e-04	3.801368230e-12
-4.900000000e-03	2.678538136e-01	-6.771094674e-04	8.566155562e-12
-5.000000000e-03	2.678538214e-01	-6.743961642e-04	6.036916344e-12
-5.100000000e-03	2.678538290e-01	-6.716828606e-04	9.375753532e-12
-5.200000000e-03	2.678538366e-01	-6.689695568e-04	1.184040594e-11
-5.300000000e-03	2.678538441e-01	-6.662562527e-04	2.361566611e-10
-5.400000000e-03	2.678538516e-01	-6.635429483e-04	1.320545652e-11
-5.500000000e-03	2.678538589e-01	-6.608296437e-04	3.334193794e-11
-5.600000000e-03	2.678538662e-01	-6.581163388e-04	1.151500982e-11
-5.700000000e-03	2.678538733e-01	-6.554030336e-04	1.594008567e-11
-5.800000000e-03	2.678538804e-01	-6.526897282e-04	1.813918950e-11
-5.900000000e-03	2.678538875e-01	-6.499764225e-04	1.493903019e-11
-6.000000000e-03	2.678538944e-01	-6.472631165e-04	1.177907016e-11
-6.100000000e-03	2.678539012e-01	-6.445498103e-04	1.824044711e-11
-6.200000000e-03	2.678539080e-01	-6.418365039e-04	3.833895635e-11
-6.300000000e-03	2.678539147e-01	-6.391231972e-04	1.086260965e-11
-6.400000000e-03	2.678539213e-01	-6.364098903e-04	1.400684558e-11
-6.500000000e-03	2.678539278e-01	-6.336965832e-04	9.713710647e-12
-6.600000000e-03	2.678539343e-01	-6.309832759e-04	1.916193435e-11
-6.700000000e-03	2.678539406e-01	-6.282699683e-04	9.160655414e-12
-6.800000000e-03	2.678539469e-01	-6.255566605e-04	5.449327675e-12
-6.900000000e-03	2.678539531e-01	-6.228433525e-04	3.582054438e-11
-7.000000000e-03	2.678539592e-01	-6.201300442e-04	9.658085452e-12
-7.100000000e-03	2.678539652e-01	-6.174167358e-04	1.526789750e-11
-7.200000000e-03	2.678539711e-01	-6.147034272e-04	6.963054002e-12
-7.300000000e-03	2.678539770e-01	-6.119901184e-04	5.991541063e-12
-7.400000000e-03	2.678539828e-01	-6.092768093e-04	1.119029643e-11
-7.500000000e-03	2.678539885e-01	-6.065635001e-04	6.941236766e-12
-7.600000000e-03	2.678539941e-01	-6.038501908e-04	2.733384043e-11
-7.700000000e-03	2.678539996e-01	-6.011368812e-04	5.494977215e-12
-7.800000000e-03	2.678540051e-01	-5.984235714e-04	9.306172240e-12
-7.900000000e-03	2.678540104e-01	-5.957102615e-04	7.082701888e-11
-8.000000000e-03	2.678540157e-01	-5.929969514e-04	8.508553555e-12
-8.100000000e-03	2.678540209e-01	-5.902836412e-04	3.912719095e-11
-8.200000000e-03	2.678540260e-01	-5.875703308e-04	7.208221969e-12
-8.300000000e-03	2.678540311e-01	-5.848570202e-04	5.496962822e-11
-8.400000000e-03	2.678540360e-01	-5.821437095e-04	3.859021154e-12
-8.500000000e-03	2.678540409e-01	-5.794303987e-04	2.052082256e-11
-8.600000000e-03	2.678540457e-01	-5.767170877e-04	1.747140246e-11
-8.700000000e-03	2.678540504e-01	-5.740037765e-04	2.150632458e-11
-8.800000000e-03	2.678540550e-01	-5.712904653e-04	2.241719706e-11
-8.900000000e-03	2.678540596e-01	-5.685771539e-04	9.075966636e-12
-9.000000000e-03	2.678540640e-01	-5.658638423e-04	1.920269671e-11
-9.100000000e-03	2.678540684e-01	-5.631505307e-04	9.364624310e-12
-9.200000000e-03	2.678540727e-01	-5.604372189e-04	1.339682295e-11
-9.300000000e-03	2.678540769e-01	-5.577239070e-04	4.296728364e-11
-9.400000000e-03	2.678540810e-01	-5.550105950e-04	1.522972112e-11
-9.500000000e-03	2.678540851e-01	-5.522972830e-04	1.604185565e-11
-9.600000000e-03	2.678540891e-01	-5.495839708e-04	2.476395564e-11
-9.700000000e-03	2.678540929e-01	-5.468706585e-04	7.613451643e-12
-9.800000000e-03	2.678540967e-01	-5.441573461e-04	1.163866679e-11
-9.900000000e-03	2.678541005e-01	-5.414440336e-04	3.067293305e-12
-1.000000000e-02	2.678541041e-01	-5.387307211e-04	3.272036508e-11
-1.010000000e-02	2.678541076e-01	-5.360174084e-04	1.435578283e-11
-1.020000000e-02	2.678541111e-01	-5.333040957e-04	1.123978172e-11
-1.030000000e-02	2.678541145e-01	-5.305907829e-04	2.084642416e-11
-1.040000000e-02	2.678541178e-01	-5.278774701e-04	1.144935497e-11
-1.050000000e-02	2.678541210e-01	-5.251641572e-04	1.203320215e-11
-1.060000000e-02	2.678541242e-01	-5.224508442e-04	1.524517267e-11
-1.070000000e-02	2.678541272e-01	-5.197375312e-04	3.227707652e-11
-1.080000000e-02	2.678541302e-01	-5.170242181e-04	4.455538011e-12
-1.090000000e-02	2.678541331e-01	-5.143109050e-04	1.234919170e-11
-1.100000000e-02	2.678541359e-01	-5.115975918e-04	1.929301557e-11
-1.110000000e-02	2.678541386e-01	-5.088842786e-04	2.450613547e-11
-1.120000000e-02	2.678541413e-01	-5.061709654e-04	1.992658778e-11
-1.130000000e-02	2.678541439e-01	-5.034576521e-04	1.778750676e-11
-1.140000000e-02	2.678541463e-01	-5.007443388e-04	1.382059583e-11
-1.150000000e-02	2.678541487e-01	-4.980310255e-04	7.477499964e-12
-1.160000000e-02	2.678541511e-01	-4.953177122e-04	1.596113151e-11
-1.170000000e-02	2.678541533e-01	-4.926043988e-04	1.607095723e-11
-1.180000000e-02	2.678541554e-01	-4.898910855e-04	1.853117740e-11
-1.190000000e-02	2.678541575e-01	-4.871777721e-04	1.667627742e-11
-1.200000000e-02	2.678541595e-01	-4.844644587e-04	5.540173469e-12
-1.210000000e-02	2.678541614e-01	-4.817511454e-04	1.770957522e-11
-1.220000000e-02	2.678541632e-01	-4.790378320e-04	7.320823657e-12
-1.230000000e-02	2.678541650e-01	-4.763245187e-04	1.594210742e-11
-1.240000000e-02	2.678541666e-01	-4.736112054e-04	1.131065529e-11
-1.250000000e-02	2.678541682e-01	-4.708978921e-04	1.527226910e-11
-1.260000000e-02	2.678541697e-01	-4.681845788e-04	2.627380046e-11
-1.270000000e-02	2.678541711e-01	-4.654712656e-04	1.759997651e-11
-1.280000000e-02	2.678541724e-01	-4.627579524e-04	1.028054751e-11
-1.290000000e-02	2.678541737e-01	-4.600446392e-04	1.429749907e-11
-1.300000000e-02	2.678541748e-01	-4.573313261e-04	1.230206460e-11
-1.310000000e-02	2.678541759e-01	-4.546180130e-04	9.388479633e-12
-1.320000000e-02	2.678541769e-01	-4.519046999e-04	5.788719084e-12
-1.330000000e-02	2.678541778e-01	-4.491913869e-04	1.155899576e-11
-1.340000000e-02	2.678541787e-01	-4.464780740e-04	2.109150043e-11
-1.350000000e-02	2.678541794e-01	-4.437647611e-04	1.966597937e-11
-1.360000000e-02	2.678541801e-01	-4.410514483e-04	9.595493820e-12
-1.370000000e-02	2.678541807e-01	-4.383381356e-04	1.348891912e-11
-1.380000000e-02	2.678541812e-01	-4.356248230e-04	1.998746234e-11
-1.390000000e-02	2.678541816e-01	-4.329115104e-04	1.099644334e-11
-1.400000000e-02	2.678541819e-01	-4.301981979e-04	1.033023066e-11
-1.410000000e-02	2.678541822e-01	-4.274848855e-04	8.255800007e-12
-1.420000000e-02	2.678541824e-01	-4.247715732e-04	1.522634075e-11
-1.430000000e-02	2.678541824e-01	-4.220582609e-04	1.429553463e-11
-1.440000000e-02	2.678541825e-01	-4.193449488e-04	2.408495412e-11
-1.450000000e-02	2.678541824e-01	-4.166316368e-04	8.132824164e-12
-1.460000000e-02	2.678541822e-01	-4.139183249e-04	5.105945381e-12
-1.470000000e-02	2.678541820e-01	-4.112050131e-04	2.637178364e-11
-1.480000000e-02	2.678541817e-01	-4.084917014e-04	1.039870249e-11
-1.490000000e-02	2.678541813e-01	-4.057783899e-04	1.410638875e-11
-1.500000000e-02	2.678541808e-01	-4.030650784e-04	4.104386178e-11
-1.510000000e-02	2.678541802e-01	-4.003517671e-04	2.844756180e-11
-1.520000000e-02	2.678541796e-01	-3.976384560e-04	9.061562288e-12
-1.530000000e-02	2.678541788e-01	-3.949251449e-04	1.416143506e-11
-1.540000000e-02	2.678541780e-01	-3.922118340e-04	1.137936226e-11
-1.550000000e-02	2.678541771e-01	-3.894985233e-04	9.672689045e-12
-1.560000000e-02	2.678541761e-01	-3.867852127e-04	5.782577838e-12
-1.570000000e-02	2.678541751e-01	-3.840719022e-04	1.279343235e-11
-1.580000000e-02	2.678541739e-01	-3.813585919e-04	1.237778904e-11
-1.590000000e-02	2.678541727e-01	-3.786452818e-04	5.114092069e-11
-1.600000000e-02	2.678541714e-01	-3.759319719e-04	2.047047440e-11
-1.610000000e-02	2.678541700e-01	-3.732186621e-04	8.276512675e-12
-1.620000000e-02	2.678541685e-01	-3.705053524e-04	3.455272074e-11
-1.630000000e-02	2.678541670e-01	-3.677920430e-04	3.670989668e-12
-1.640000000e-02	2.678541653e-01	-3.650787338e-04	1.200397480e-11
-1.650000000e-02	2.678541636e-01	-3.623654247e-04	5.788371006e-12
-1.660000000e-02	2.678541618e-01	-3.596521158e-04	1.395185217e-11
-1.670000000e-02	2.678541599e-01	-3.569388071e-04	7.717232594e-12
-1.680000000e-02	2.678541579e-01	-3.542254987e-04	1.982692267e-11
-1.690000000e-02	2.678541559e-01	-3.515121904e-04	1.182237549e-11
-1.700000000e-02	2.678541538e-01	-3.487988823e-04	2.180001174e-11
-1.710000000e-02	2.678541515e-01	-3.460855745e-04	1.690313953e-11
-1.720000000e-02	2.678541492e-01	-3.433722668e-04	6.231620029e-12
-1.730000000e-02	2.678541469e-01	-3.406589594e-04	1.945072163e-11
-1.740000000e-02	2.678541444e-01	-3.379456522e-04	1.600870068e-11
-1.750000000e-02	2.678541418e-01	-3.352323453e-04	1.002492377e-11
-1.760000000e-02	2.678541392e-01	-3.325190385e-04	1.127718638e-11
-1.770000000e-02	2.678541365e-01	-3.298057320e-04	1.356024425e-11
-1.780000000e-02	2.678541337e-01	-3.270924258e-04	9.611604969e-12
-1.790000000e-02	2.678541308e-01	-3.243791198e-04	3.153527161e-11
-1.800000000e-02	2.678541279e-01	-3.216658140e-04	6.854163336e-12
-1.810000000e-02	2.678541248e-01	-3.189525085e-04	2.511314382e-11
-1.820000000e-02	2.678541217e-01	-3.162392033e-04	1.449699486e-11
-1.830000000e-02	2.678541185e-01	-3.135258983e-04	1.773763647e-11
-1.840000000e-02	2.678541152e-01	-3.108125936e-04	1.063727163e-11
-1.850000000e-02	2.678541118e-01	-3.080992891e-04	1.376688479e-11
-1.860000000e-02	2.678541084e-01	-3.053859849e-04	1.022759375e-11
-1.870000000e-02	2.678541049e-01	-3.026726811e-04	1.194002939e-11
-1.880000000e-02	2.678541012e-01	-2.999593774e-04	8.248434092e-12
-1.890000000e-02	2.678540975e-01	-2.972460741e-04	8.403713100e-12
-1.900000000e-02	2.678540938e-01	-2.945327711e-04	6.965031001e-12
-1.910000000e-02	2.678540899e-01	-2.918194684e-04	1.332911407e-11
-1.920000000e-02	2.678540859e-01	-2.891061659e-04	1.412995254e-11
-1.930000000e-02	2.678540819e-01	-2.863928638e-04	1.062975455e-11
-1.940000000e-02	2.678540778e-01	-2.836795620e-04	5.349285023e-11
-1.950000000e-02	2.678540736e-01	-2.809662605e-04	6.814749692e-12
-1.960000000e-02	2.678540693e-01	-2.782529593e-04	1.233572744e-11
-1.970000000e-02	2.678540650e-01	-2.755396584e-04	1.596815633e-11
-1.980000000e-02	2.678540605e-01	-2.728263578e-04	1.145923279e-11
-1.990000000e-02	2.678540560e-01	-2.701130576e-04	7.128891122e-11
-2.000000000e-02	2.678540514e-01	-2.673997577e-04	5.278028977e-12
-2.010000000e-02	2.678540467e-01	-2.646864582e-04	9.080392730e-12
-2.020000000e-02	2.678540419e-01	-2.619731590e-04	1.007380941e-11
-2.030000000e-02	2.678540371e-01	-2.592598601e-04	1.540766789e-11
-2.040000000e-02	2.678540321e-01	-2.565465616e-04	1.192715763e-11
-2.050000000e-02	2.678540271e-01	-2.538332635e-04	6.249647844e-12
-2.060000000e-02	2.678540220e-01	-2.511199657e-04	1.636730583e-11
-2.070000000e-02	2.678540168e-01	-2.484066682e-04	2.229306303e-11
-2.080000000e-02	2.678540116e-01	-2.456933711e-04	1.383417675e-11
-2.090000000e-02	2.678540062e-01	-2.429800744e-04	1.037583504e-11
-2.100000000e-02	2.678540008e-01	-2.402667781e-04	8.022591717e-12
-2.110000000e-02	2.678539953e-01	-2.375534822e-04	1.184641516e-11
-2.120000000e-02	2.678539897e-01	-2.348401866e-04	1.381227980e-11
-2.130000000e-02	2.678539840e-01	-2.321268914e-04	1.024739694e-11
-2.140000000e-02	2.678539782e-01	-2.294135966e-04	9.126364913e-12
-2.150000000e-02	2.678539724e-01	-2.267003023e-04	5.218750004e-11
-2.160000000e-02	2.678539665e-01	-2.239870083e-04	5.957226815e-12
-2.170000000e-02	2.678539605e-01	-2.212737147e-04	7.287109348e-12
-2.180000000e-02	2.678539544e-01	-2.185604215e-04	9.855949155e-12
-2.190000000e-02	2.678539482e-01	-2.158471287e-04	1.800492787e-11
-2.200000000e-02	2.678539420e-01	-2.131338364e-04	6.757814324e-11
-2.210000000e-02	2.678539356e-01	-2.104205445e-04	8.546308075e-12
-2.220000000e-02	2.678539292e-01	-2.077072530e-04	1.510505359e-11
-2.230000000e-02	2.678539227e-01	-2.049939619e-04	1.815507839e-11
-2.240000000e-02	2.678539161e-01	-2.022806713e-04	3.069208544e-12
-2.250000000e-02	2.678539094e-01	-1.995673811e-04	1.324902227e-11
-2.260000000e-02	2.678539027e-01	-1.968540913e-04	1.053338494e-11
-2.270000000e-02	2.678538959e-01	-1.941408020e-04	1.452711779e-11
-2.280000000e-02	2.678538889e-01	-1.914275131e-04	1.338554788e-11
-2.290000000e-02	2.678538819e-01	-1.887142247e-04	7.297804145e-12
-2.300000000e-02	2.678538749e-01	-1.860009368e-04	3.388296744e-11
-2.310000000e-02	2.678538677e-01	-1.832876493e-04	5.537290892e-12
-2.320000000e-02	2.678538605e-01	-1.805743623e-04	3.167747545e-11
-2.330000000e-02	2.678538531e-01	-1.778610757e-04	4.109984140e-12
-2.340000000e-02	2.678538457e-01	-1.751477896e-04	9.196073052e-12
-2.350000000e-02	2.678538382e-01	-1.724345040e-04	1.661050997e-11
-2.360000000e-02	2.678538307e-01	-1.697212189e-04	6.621117888e-12
-2.370000000e-02	2.678538230e-01	-1.670079343e-04	2.101648032e-11
-2.380000000e-02	2.678538153e-01	-1.642946502e-04	2.083542063e-11
-2.390000000e-02	2.678538074e-01	-1.615813665e-04	2.088601525e-11
-2.400000000e-02	2.678537995e-01	-1.588680834e-04	9.169565366e-12
-2.410000000e-02	2.678537915e-01	-1.561548007e-04	3.252080927e-11
-2.420000000e-02	2.678537835e-01	-1.534415186e-04	8.907547846e-12
-2.430000000e-02	2.678537753e-01	-1.507282370e-04	1.528100187e-11
-2.440000000e-02	2.678537671e-01	-1.480149559e-04	7.453855116e-12
-2.450000000e-02	2.678537588e-01	-1.453016753e-04	2.631729690e-11
-2.460000000e-02	2.678537504e-01	-1.425883953e-04	1.238205656e-11
-2.470000000e-02	2.678537419e-01	-1.398751158e-04	8.396992621e-12
-2.480000000e-02	2.678537333e-01	-1.371618368e-04	1.275006053e-11
-2.490000000e-02	2.678537247e-01	-1.344485583e-04	7.974403977e-12
-2.500000000e-02	2.678537160e-01	-1.317352804e-04	1.621401564e-11
-2.510000000e-02	2.678537072e-01	-1.290220030e-04	1.318507685e-11
-2.520000000e-02	2.678536983e-01	-1.263087262e-04	1.148267573e-11
-2.530000000e-02	2.678536893e-01	-1.235954500e-04	5.749241206e-11
-2.540000000e-02	2.678536802e-01	-1.208821743e-04	1.170920773e-11
-2.550000000e-02	2.678536711e-01	-1.181688991e-04	1.210892896e-11
-2.560000000e-02	2.678536619e-01	-1.154556246e-04	1.238245936e-11
-2.570000000e-02	2.678536526e-01	-1.127423506e-04	2.013636956e-11
-2.580000000e-02	2.678536432e-01	-1.100290771e-04	1.102137437e-11
-2.590000000e-02	2.678536337e-01	-1.073158043e-04	1.343530107e-11
-2.600000000e-02	2.678536242e-01	-1.046025320e-04	1.105504164e-11
-2.610000000e-02	2.678536145e-01	-1.018892604e-04	3.370930932e-11
-2.620000000e-02	2.678536048e-01	-9.917598927e-05	2.248619867e-11
-2.630000000e-02	2.678535950e-01	-9.646271878e-05	2.643523903e-11
-2.640000000e-02	2.678535851e-01	-9.374944890e-05	4.085575913e-11
-2.650000000e-02	2.678535752e-01	-9.103617961e-05	1.034425275e-11
-2.660000000e-02	2.678535651e-01	-8.832291094e-05	2.711325034e-11
-2.670000000e-02	2.678535550e-01	-8.560964288e-05	9.943317692e-12
-2.680000000e-02	2.678535448e-01	-8.289637543e-05	9.358666409e-12
-2.690000000e-02	2.678535345e-01	-8.018310861e-05	6.392717436e-12
-2.700000000e-02	2.678535241e-01	-7.746984241e-05	1.058656508e-11
-2.710000000e-02	2.678535136e-01	-7.475657684e-05	1.040851099e-11
-2.720000000e-02	2.678535031e-01	-7.204331191e-05	8.154772283e-12
-2.730000000e-02	2.678534925e-01	-6.933004761e-05	1.727776066e-11
-2.740000000e-02	2.678534818e-01	-6.661678395e-05	2.018422542e-11
-2.750000000e-02	2.678534710e-01	-6.390352094e-05	1.558340111e-11
-2.760000000e-02	2.678534601e-01	-6.119025859e-05	6.674591044e-12
-2.770000000e-02	2.678534492e-01	-5.847699688e-05	7.236642009e-12
-2.780000000e-02	2.678534381e-01	-5.576373583e-05	3.089373272e-11
-2.790000000e-02	2.678534270e-01	-5.305047545e-05	1.387191369e-11
-2.800000000e-02	2.678534158e-01	-5.033721573e-05	6.694431026e-12
-2.810000000e-02	2.678534045e-01	-4.762395668e-05	1.190655104e-11
-2.820000000e-02	2.678533931e-01	-4.491069831e-05	1.737321569e-11
-2.830000000e-02	2.678533817e-01	-4.219744062e-05	2.013863009e-11
-2.840000000e-02	2.678533702e-01	-3.948418361e-05	8.893384523e-12
-2.850000000e-02	2.678533586e-01	-3.677092729e-05	1.294249259e-11
-2.860000000e-02	2.678533469e-01	-3.405767167e-05	5.484882332e-12
-2.870000000e-02	2.678533351e-01	-3.134441673e-05	4.252396183e-12
-2.880000000e-02	2.678533232e-01	-2.863116250e-05	1.553935692e-11
-2.890000000e-02	2.678533113e-01	-2.591790897e-05	7.514749891e-12
-2.900000000e-02	2.678532993e-01	-2.320465615e-05	6.384907894e-12
-2.910000000e-02	2.678532872e-01	-2.049140405e-05	1.143204995e-11
-2.920000000e-02	2.678532750e-01	-1.777815266e-05	2.007191543e-11
-2.930000000e-02	2.678532627e-01	-1.506490199e-05	1.544374802e-11
-2.940000000e-02	2.678532503e-01	-1.235165205e-05	5.404878196e-12
-2.950000000e-02	2.678532379e-01	-9.638402834e-06	3.022662644e-11
-2.960000000e-02	2.678532254e-01	-6.925154354e-06	6.611726230e-12
-2.970000000e-02	2.678532128e-01	-4.211906612e-06	1.736846323e-11
-2.980000000e-02	2.678532001e-01	-1.498659611e-06	3.536514586e-11
-2.990000000e-02	2.678531873e-01	1.214586642e-06	1.352373313e-11
-3.000000000e-02	2.678531745e-01	3.927832147e-06	2.205025482e-11
