# Ep [eV]     Omega/c [1/micrones]    Im(epsi1)     Eq(det).Opt det SIN kz nano,R = 0.5 $\mu$m, $\mu_c$ = 0.3 eV, modo = 2, $\epsilon_\infty$ = 1.0, $\gamma_{DL}$ = 0.01 eV, solve_det_sinkz_vs_Ep.py
0.000000000e+00	2.958765020e-01	-1.293792952e-02	3.885780586e-16
1.000000000e-04	2.958767097e-01	-1.293840384e-02	3.608224830e-16
2.000000000e-04	2.958773330e-01	-1.293982678e-02	9.436895709e-16
3.000000000e-04	2.958783718e-01	-1.294219832e-02	1.118604794e-15
4.000000000e-04	2.958798261e-01	-1.294551838e-02	9.391889664e-16
5.000000000e-04	2.958816959e-01	-1.294978690e-02	3.330669074e-16
6.000000000e-04	2.958839813e-01	-1.295500375e-02	8.891536662e-16
7.000000000e-04	2.958866821e-01	-1.296116882e-02	1.788512523e-15
8.000000000e-04	2.958897984e-01	-1.296828194e-02	1.285850247e-15
9.000000000e-04	2.958933301e-01	-1.297634294e-02	1.927963898e-15
1.000000000e-03	2.958972774e-01	-1.298535162e-02	1.118604794e-15
1.100000000e-03	2.959016400e-01	-1.299530775e-02	9.063162369e-16
1.200000000e-03	2.959064181e-01	-1.300621109e-02	1.827710450e-15
1.300000000e-03	2.959116116e-01	-1.301806135e-02	9.189778456e-16
1.400000000e-03	2.959172205e-01	-1.303085826e-02	9.036560720e-16
1.500000000e-03	2.959232448e-01	-1.304460147e-02	1.295920874e-15
1.600000000e-03	2.959296844e-01	-1.305929066e-02	1.635990478e-15
1.700000000e-03	2.959365393e-01	-1.307492546e-02	1.967760695e-15
1.800000000e-03	2.959438095e-01	-1.309150547e-02	1.047382307e-15
1.900000000e-03	2.959514950e-01	-1.310903028e-02	9.485749681e-16
2.000000000e-03	2.959595957e-01	-1.312749946e-02	1.295920874e-15
2.100000000e-03	2.959681117e-01	-1.314691254e-02	1.198642456e-15
2.200000000e-03	2.959770427e-01	-1.316726903e-02	8.891536662e-16
2.300000000e-03	2.959863890e-01	-1.318856844e-02	3.747002708e-16
2.400000000e-03	2.959961503e-01	-1.321081023e-02	1.786950432e-15
2.500000000e-03	2.960063267e-01	-1.323399384e-02	8.187894807e-16
2.600000000e-03	2.960169182e-01	-1.325811870e-02	1.790180837e-15
2.700000000e-03	2.960279246e-01	-1.328318421e-02	1.326545208e-15
2.800000000e-03	2.960393460e-01	-1.330918973e-02	9.122468575e-16
2.900000000e-03	2.960511822e-01	-1.333613463e-02	1.812632474e-15
3.000000000e-03	2.960634334e-01	-1.336401823e-02	9.868853899e-16
3.100000000e-03	2.960760993e-01	-1.339283984e-02	9.694605783e-16
3.200000000e-03	2.960891800e-01	-1.342259874e-02	1.807312144e-15
3.300000000e-03	2.961026754e-01	-1.345329419e-02	8.989550627e-16
3.400000000e-03	2.961165855e-01	-1.348492542e-02	9.868853899e-16
3.500000000e-03	2.961309102e-01	-1.351749165e-02	7.771561172e-16
3.600000000e-03	2.961456495e-01	-1.355099207e-02	1.208005430e-15
3.700000000e-03	2.961608032e-01	-1.358542584e-02	1.387778781e-16
3.800000000e-03	2.961763714e-01	-1.362079212e-02	8.950904183e-16
3.900000000e-03	2.961923540e-01	-1.365709001e-02	8.920730088e-16
4.000000000e-03	2.962087509e-01	-1.369431863e-02	1.902067139e-15
4.100000000e-03	2.962255621e-01	-1.373247704e-02	1.236603565e-15
4.200000000e-03	2.962427874e-01	-1.377156430e-02	1.005732771e-15
4.300000000e-03	2.962604269e-01	-1.381157943e-02	4.024558464e-16
4.400000000e-03	2.962784805e-01	-1.385252146e-02	4.857225733e-16
4.500000000e-03	2.962969480e-01	-1.389438935e-02	2.664679815e-15
4.600000000e-03	2.963158295e-01	-1.393718207e-02	8.465450563e-16
4.700000000e-03	2.963351248e-01	-1.398089857e-02	1.986027323e-15
4.800000000e-03	2.963548340e-01	-1.402553776e-02	1.047382307e-15
4.900000000e-03	2.963749568e-01	-1.407109853e-02	9.868853899e-16
5.000000000e-03	2.963954932e-01	-1.411757976e-02	8.881784197e-16
5.100000000e-03	2.964164433e-01	-1.416498030e-02	1.778307332e-15
5.200000000e-03	2.964378068e-01	-1.421329898e-02	8.891536662e-16
5.300000000e-03	2.964595836e-01	-1.426253459e-02	3.191891196e-16
5.400000000e-03	2.964817738e-01	-1.431268594e-02	8.989550627e-16
5.500000000e-03	2.965043773e-01	-1.436375177e-02	1.897149936e-15
5.600000000e-03	2.965273938e-01	-1.441573082e-02	8.326672685e-17
5.700000000e-03	2.965508235e-01	-1.446862182e-02	9.751059499e-16
5.800000000e-03	2.965746661e-01	-1.452242347e-02	1.070030538e-15
5.900000000e-03	2.965989215e-01	-1.457713442e-02	2.081668171e-16
6.000000000e-03	2.966235898e-01	-1.463275335e-02	2.636779683e-16
6.100000000e-03	2.966486708e-01	-1.468927887e-02	4.579669977e-16
6.200000000e-03	2.966741643e-01	-1.474670960e-02	1.249000903e-16
6.300000000e-03	2.967000704e-01	-1.480504412e-02	1.595945598e-15
6.400000000e-03	2.967263888e-01	-1.486428101e-02	8.908848018e-16
6.500000000e-03	2.967531196e-01	-1.492441880e-02	2.914335440e-16
6.600000000e-03	2.967802626e-01	-1.498545602e-02	9.639819491e-16
6.700000000e-03	2.968078177e-01	-1.504739117e-02	2.035829374e-15
6.800000000e-03	2.968357847e-01	-1.511022274e-02	4.718447855e-16
6.900000000e-03	2.968641637e-01	-1.517394918e-02	9.868853899e-16
7.000000000e-03	2.968929545e-01	-1.523856892e-02	1.730276885e-15
7.100000000e-03	2.969221569e-01	-1.530408040e-02	1.865259350e-15
7.200000000e-03	2.969517709e-01	-1.537048200e-02	8.969174643e-16
7.300000000e-03	2.969817964e-01	-1.543777211e-02	4.857225733e-16
7.400000000e-03	2.970122332e-01	-1.550594907e-02	8.950904183e-16
7.500000000e-03	2.970430812e-01	-1.557501123e-02	5.967448757e-16
7.600000000e-03	2.970743404e-01	-1.564495690e-02	9.036560720e-16
7.700000000e-03	2.971060105e-01	-1.571578436e-02	1.827710450e-15
7.800000000e-03	2.971380916e-01	-1.578749190e-02	8.886119947e-16
7.900000000e-03	2.971705833e-01	-1.586007778e-02	5.134781489e-16
8.000000000e-03	2.972034858e-01	-1.593354021e-02	8.187894807e-16
8.100000000e-03	2.972367987e-01	-1.600787741e-02	8.989550627e-16
8.200000000e-03	2.972705220e-01	-1.608308759e-02	6.106226635e-16
8.300000000e-03	2.973046556e-01	-1.615916890e-02	4.302114220e-16
8.400000000e-03	2.973391993e-01	-1.623611951e-02	9.264917572e-16
8.500000000e-03	2.973741531e-01	-1.631393755e-02	9.930136613e-16
8.600000000e-03	2.974095167e-01	-1.639262113e-02	1.357755553e-15
8.700000000e-03	2.974452900e-01	-1.647216834e-02	1.807312144e-15
8.800000000e-03	2.974814730e-01	-1.655257726e-02	5.273559367e-16
8.900000000e-03	2.975180654e-01	-1.663384595e-02	6.938893904e-17
9.000000000e-03	2.975550671e-01	-1.671597244e-02	9.264917572e-16
9.100000000e-03	2.975924781e-01	-1.679895475e-02	1.852983514e-15
9.200000000e-03	2.976302981e-01	-1.688279087e-02	8.881784197e-16
9.300000000e-03	2.976685270e-01	-1.696747879e-02	1.346145417e-15
9.400000000e-03	2.977071647e-01	-1.705301646e-02	4.163336342e-16
9.500000000e-03	2.977462110e-01	-1.713940182e-02	9.012017851e-16
9.600000000e-03	2.977856659e-01	-1.722663280e-02	3.885780586e-16
9.700000000e-03	2.978255290e-01	-1.731470731e-02	4.163336342e-16
9.800000000e-03	2.978658003e-01	-1.740362321e-02	2.220446049e-16
9.900000000e-03	2.979064797e-01	-1.749337840e-02	8.950904183e-16
1.000000000e-02	2.979475670e-01	-1.758397070e-02	7.771561172e-16
1.010000000e-02	2.979890619e-01	-1.767539795e-02	1.526556659e-16
1.020000000e-02	2.980309645e-01	-1.776765797e-02	1.005732771e-15
1.030000000e-02	2.980732745e-01	-1.786074854e-02	6.383782392e-16
1.040000000e-02	2.981159918e-01	-1.795466744e-02	6.938893904e-17
1.050000000e-02	2.981591161e-01	-1.804941244e-02	6.106226635e-16
1.060000000e-02	2.982026474e-01	-1.814498127e-02	9.063162369e-16
1.070000000e-02	2.982465855e-01	-1.824137165e-02	9.930136613e-16
1.080000000e-02	2.982909302e-01	-1.833858130e-02	9.012017851e-16
1.090000000e-02	2.983356814e-01	-1.843660789e-02	1.110223025e-16
1.100000000e-02	2.983808389e-01	-1.853544911e-02	6.938893904e-17
1.110000000e-02	2.984264025e-01	-1.863510260e-02	8.920730088e-16
1.120000000e-02	2.984723720e-01	-1.873556599e-02	2.775557562e-17
1.130000000e-02	2.985187473e-01	-1.883683692e-02	9.535363269e-16
1.140000000e-02	2.985655283e-01	-1.893891299e-02	2.498001805e-16
1.150000000e-02	2.986127146e-01	-1.904179177e-02	9.347697127e-16
1.160000000e-02	2.986603063e-01	-1.914547085e-02	1.135691544e-15
1.170000000e-02	2.987083030e-01	-1.924994776e-02	9.036560720e-16
1.180000000e-02	2.987567047e-01	-1.935522006e-02	1.127095112e-15
1.190000000e-02	2.988055110e-01	-1.946128526e-02	0.000000000e+00
1.200000000e-02	2.988547220e-01	-1.956814087e-02	1.054803171e-15
1.210000000e-02	2.989043373e-01	-1.967578437e-02	1.734723476e-15
1.220000000e-02	2.989543568e-01	-1.978421324e-02	4.695944832e-16
1.230000000e-02	2.990047802e-01	-1.989342493e-02	1.332917992e-15
1.240000000e-02	2.990556076e-01	-2.000341689e-02	2.195718659e-15
1.250000000e-02	2.991068385e-01	-2.011418654e-02	7.355227538e-16
1.260000000e-02	2.991584729e-01	-2.022573129e-02	4.460365044e-16
1.270000000e-02	2.992105105e-01	-2.033804854e-02	1.332267630e-15
1.280000000e-02	2.992629512e-01	-2.045113567e-02	1.400006752e-15
1.290000000e-02	2.993157948e-01	-2.056499004e-02	8.891536662e-16
1.300000000e-02	2.993690410e-01	-2.067960901e-02	7.001065425e-16
1.310000000e-02	2.994226897e-01	-2.079498990e-02	4.652682299e-16
1.320000000e-02	2.994767407e-01	-2.091113004e-02	7.438546048e-16
1.330000000e-02	2.995311938e-01	-2.102802674e-02	4.577566799e-16
1.340000000e-02	2.995860488e-01	-2.114567728e-02	4.440892099e-16
1.350000000e-02	2.996413054e-01	-2.126407894e-02	1.487709210e-15
1.360000000e-02	2.996969636e-01	-2.138322899e-02	1.387778781e-15
1.370000000e-02	2.997530230e-01	-2.150312467e-02	1.326545208e-15
1.380000000e-02	2.998094834e-01	-2.162376323e-02	1.777223989e-15
1.390000000e-02	2.998663448e-01	-2.174514187e-02	6.581349744e-16
1.400000000e-02	2.999236068e-01	-2.186725782e-02	1.364900009e-15
1.410000000e-02	2.999812692e-01	-2.199010825e-02	1.528573913e-15
1.420000000e-02	3.000393319e-01	-2.211369036e-02	1.017914687e-15
1.430000000e-02	3.000977946e-01	-2.223800131e-02	7.550332864e-16
1.440000000e-02	3.001566571e-01	-2.236303826e-02	8.473409487e-16
1.450000000e-02	3.002159193e-01	-2.248879833e-02	9.305364598e-16
1.460000000e-02	3.002755808e-01	-2.261527868e-02	5.828670879e-16
1.470000000e-02	3.003356414e-01	-2.274247640e-02	1.429412144e-15
1.480000000e-02	3.003961011e-01	-2.287038860e-02	4.443059974e-16
1.490000000e-02	3.004569594e-01	-2.299901237e-02	4.652682299e-16
1.500000000e-02	3.005182163e-01	-2.312834479e-02	4.024558464e-16
1.510000000e-02	3.005798714e-01	-2.325838293e-02	7.632783294e-16
1.520000000e-02	3.006419246e-01	-2.338912383e-02	1.366803587e-15
1.530000000e-02	3.007043756e-01	-2.352056454e-02	5.967448757e-16
1.540000000e-02	3.007672243e-01	-2.365270209e-02	1.286449222e-15
1.550000000e-02	3.008304703e-01	-2.378553349e-02	1.012317798e-15
1.560000000e-02	3.008941135e-01	-2.391905575e-02	1.443289932e-15
1.570000000e-02	3.009581536e-01	-2.405326587e-02	5.236911533e-16
1.580000000e-02	3.010225904e-01	-2.418816083e-02	4.449557262e-16
1.590000000e-02	3.010874236e-01	-2.432373759e-02	4.518280360e-16
1.600000000e-02	3.011526531e-01	-2.445999313e-02	3.053113318e-16
1.610000000e-02	3.012182786e-01	-2.459692438e-02	4.518280360e-16
1.620000000e-02	3.012842998e-01	-2.473452830e-02	2.220619515e-15
1.630000000e-02	3.013507165e-01	-2.487280180e-02	8.899114524e-16
1.640000000e-02	3.014175285e-01	-2.501174180e-02	8.950904183e-16
1.650000000e-02	3.014847356e-01	-2.515134522e-02	4.460365044e-16
1.660000000e-02	3.015523374e-01	-2.529160894e-02	1.376701732e-15
1.670000000e-02	3.016203338e-01	-2.543252986e-02	1.387778781e-16
1.680000000e-02	3.016887245e-01	-2.557410485e-02	1.332267630e-15
1.690000000e-02	3.017575092e-01	-2.571633078e-02	4.163336342e-16
1.700000000e-02	3.018266878e-01	-2.585920450e-02	9.347697127e-16
1.710000000e-02	3.018962599e-01	-2.600272287e-02	4.847302891e-16
1.720000000e-02	3.019662254e-01	-2.614688271e-02	1.054803171e-15
1.730000000e-02	3.020365839e-01	-2.629168086e-02	1.135691544e-15
1.740000000e-02	3.021073352e-01	-2.643711414e-02	4.613190424e-16
1.750000000e-02	3.021784791e-01	-2.658317936e-02	1.334073409e-15
1.760000000e-02	3.022500153e-01	-2.672987331e-02	1.333423610e-15
1.770000000e-02	3.023219436e-01	-2.687719279e-02	9.809151850e-16
1.780000000e-02	3.023942636e-01	-2.702513459e-02	6.383782392e-16
1.790000000e-02	3.024669752e-01	-2.717369548e-02	4.695944832e-16
1.800000000e-02	3.025400781e-01	-2.732287222e-02	1.262878691e-15
1.810000000e-02	3.026135720e-01	-2.747266157e-02	5.993212282e-16
1.820000000e-02	3.026874566e-01	-2.762306029e-02	1.779822905e-15
1.830000000e-02	3.027617318e-01	-2.777406511e-02	2.275957200e-15
1.840000000e-02	3.028363972e-01	-2.792567277e-02	1.521818241e-15
1.850000000e-02	3.029114525e-01	-2.807787999e-02	8.711006819e-16
1.860000000e-02	3.029868975e-01	-2.823068350e-02	1.162093833e-15
1.870000000e-02	3.030627320e-01	-2.838408001e-02	1.418049172e-15
1.880000000e-02	3.031389557e-01	-2.853806621e-02	8.920730088e-16
1.890000000e-02	3.032155682e-01	-2.869263881e-02	8.908848018e-16
1.900000000e-02	3.032925694e-01	-2.884779449e-02	8.969174643e-16
1.910000000e-02	3.033699589e-01	-2.900352995e-02	3.608224830e-16
1.920000000e-02	3.034477365e-01	-2.915984184e-02	1.342635627e-15
1.930000000e-02	3.035259019e-01	-2.931672685e-02	1.443556788e-15
1.940000000e-02	3.036044549e-01	-2.947418163e-02	7.217783939e-16
1.950000000e-02	3.036833951e-01	-2.963220284e-02	5.993212282e-16
1.960000000e-02	3.037627222e-01	-2.979078713e-02	5.993212282e-16
1.970000000e-02	3.038424361e-01	-2.994993115e-02	9.314673585e-16
1.980000000e-02	3.039225364e-01	-3.010963153e-02	9.391889664e-16
1.990000000e-02	3.040030228e-01	-3.026988490e-02	4.024558464e-16
2.000000000e-02	3.040838951e-01	-3.043068789e-02	5.551115123e-17
2.010000000e-02	3.041651529e-01	-3.059203712e-02	5.993212282e-16
2.020000000e-02	3.042467961e-01	-3.075392920e-02	1.070030538e-15
2.030000000e-02	3.043288242e-01	-3.091636075e-02	4.440892099e-16
2.040000000e-02	3.044112370e-01	-3.107932837e-02	4.579669977e-16
2.050000000e-02	3.044940343e-01	-3.124282865e-02	6.280369835e-16
2.060000000e-02	3.045772157e-01	-3.140685820e-02	5.721958498e-16
2.070000000e-02	3.046607810e-01	-3.157141359e-02	4.793364605e-16
2.080000000e-02	3.047447298e-01	-3.173649142e-02	1.869539425e-15
2.090000000e-02	3.048290619e-01	-3.190208827e-02	8.950904183e-16
2.100000000e-02	3.049137769e-01	-3.206820070e-02	7.663002284e-16
2.110000000e-02	3.049988747e-01	-3.223482530e-02	8.886119947e-16
2.120000000e-02	3.050843548e-01	-3.240195863e-02	5.635475560e-16
2.130000000e-02	3.051702170e-01	-3.256959725e-02	9.155133597e-16
2.140000000e-02	3.052564610e-01	-3.273773773e-02	6.661338148e-16
2.150000000e-02	3.053430864e-01	-3.290637661e-02	9.751059499e-16
2.160000000e-02	3.054300931e-01	-3.307551045e-02	4.545902364e-16
2.170000000e-02	3.055174806e-01	-3.324513580e-02	6.183017823e-16
2.180000000e-02	3.056052488e-01	-3.341524921e-02	8.989550627e-16
2.190000000e-02	3.056933972e-01	-3.358584720e-02	1.047382307e-15
2.200000000e-02	3.057819256e-01	-3.375692633e-02	9.485749681e-16
2.210000000e-02	3.058708336e-01	-3.392848313e-02	5.412337245e-16
2.220000000e-02	3.059601211e-01	-3.410051413e-02	0.000000000e+00
2.230000000e-02	3.060497876e-01	-3.427301586e-02	9.485749681e-16
2.240000000e-02	3.061398328e-01	-3.444598485e-02	5.164700352e-16
2.250000000e-02	3.062302565e-01	-3.461941763e-02	4.443059974e-16
2.260000000e-02	3.063210583e-01	-3.479331071e-02	1.055533265e-15
2.270000000e-02	3.064122380e-01	-3.496766061e-02	2.775557562e-16
2.280000000e-02	3.065037951e-01	-3.514246386e-02	9.012017851e-16
2.290000000e-02	3.065957295e-01	-3.531771697e-02	9.091804728e-16
2.300000000e-02	3.066880407e-01	-3.549341646e-02	4.449557262e-16
2.310000000e-02	3.067807285e-01	-3.566955883e-02	8.238311189e-16
2.320000000e-02	3.068737926e-01	-3.584614060e-02	5.164700352e-16
2.330000000e-02	3.069672326e-01	-3.602315828e-02	4.904575925e-16
2.340000000e-02	3.070610482e-01	-3.620060838e-02	5.389157964e-16
2.350000000e-02	3.071552391e-01	-3.637848739e-02	9.694605783e-16
2.360000000e-02	3.072498050e-01	-3.655679184e-02	1.400213085e-15
2.370000000e-02	3.073447456e-01	-3.673551822e-02	6.684427777e-16
2.380000000e-02	3.074400604e-01	-3.691466304e-02	3.330669074e-16
2.390000000e-02	3.075357493e-01	-3.709422280e-02	1.837955691e-15
2.400000000e-02	3.076318119e-01	-3.727419400e-02	1.922612114e-15
2.410000000e-02	3.077282479e-01	-3.745457315e-02	4.847302891e-16
2.420000000e-02	3.078250568e-01	-3.763535674e-02	9.992970910e-16
2.430000000e-02	3.079222385e-01	-3.781654128e-02	3.885780586e-16
2.440000000e-02	3.080197926e-01	-3.799812328e-02	2.636779683e-16
2.450000000e-02	3.081177188e-01	-3.818009922e-02	1.417505806e-15
2.460000000e-02	3.082160166e-01	-3.836246562e-02	1.443289932e-15
2.470000000e-02	3.083146859e-01	-3.854521897e-02	1.716587549e-15
2.480000000e-02	3.084137262e-01	-3.872835578e-02	6.788777767e-16
2.490000000e-02	3.085131372e-01	-3.891187254e-02	4.494775313e-16
2.500000000e-02	3.086129187e-01	-3.909576577e-02	9.305364598e-16
2.510000000e-02	3.087130702e-01	-3.928003197e-02	4.302114220e-16
2.520000000e-02	3.088135914e-01	-3.946466763e-02	4.024558464e-16
2.530000000e-02	3.089144820e-01	-3.964966927e-02	4.518280360e-16
2.540000000e-02	3.090157417e-01	-3.983503339e-02	7.438546048e-16
2.550000000e-02	3.091173701e-01	-4.002075650e-02	6.788777767e-16
2.560000000e-02	3.092193669e-01	-4.020683511e-02	6.106226635e-16
2.570000000e-02	3.093217317e-01	-4.039326572e-02	7.663002284e-16
2.580000000e-02	3.094244643e-01	-4.058004486e-02	3.469446952e-16
2.590000000e-02	3.095275642e-01	-4.076716903e-02	1.019049276e-15
2.600000000e-02	3.096310311e-01	-4.095463475e-02	7.771561172e-16
2.610000000e-02	3.097348646e-01	-4.114243854e-02	8.989550627e-16
2.620000000e-02	3.098390645e-01	-4.133057691e-02	1.332556719e-15
2.630000000e-02	3.099436304e-01	-4.151904639e-02	1.776844663e-15
2.640000000e-02	3.100485620e-01	-4.170784350e-02	1.665334537e-16
2.650000000e-02	3.101538588e-01	-4.189696476e-02	1.526556659e-16
2.660000000e-02	3.102595206e-01	-4.208640670e-02	8.886119947e-16
2.670000000e-02	3.103655470e-01	-4.227616585e-02	5.236911533e-16
2.680000000e-02	3.104719376e-01	-4.246623875e-02	1.924214208e-15
2.690000000e-02	3.105786921e-01	-4.265662193e-02	2.318213734e-15
2.700000000e-02	3.106858102e-01	-4.284731193e-02	8.465450563e-16
2.710000000e-02	3.107932915e-01	-4.303830529e-02	3.191891196e-16
2.720000000e-02	3.109011356e-01	-4.322959856e-02	4.449557262e-16
2.730000000e-02	3.110093422e-01	-4.342118828e-02	4.613190424e-16
2.740000000e-02	3.111179110e-01	-4.361307100e-02	4.518280360e-16
2.750000000e-02	3.112268415e-01	-4.380524328e-02	5.164700352e-16
2.760000000e-02	3.113361335e-01	-4.399770167e-02	1.189367708e-15
2.770000000e-02	3.114457865e-01	-4.419044274e-02	1.942890293e-16
2.780000000e-02	3.115558003e-01	-4.438346304e-02	4.494775313e-16
2.790000000e-02	3.116661744e-01	-4.457675916e-02	6.087272963e-16
2.800000000e-02	3.117769086e-01	-4.477032766e-02	1.526556659e-16
2.810000000e-02	3.118880023e-01	-4.496416512e-02	9.189778456e-16
2.820000000e-02	3.119994554e-01	-4.515826811e-02	1.332917992e-15
2.830000000e-02	3.121112674e-01	-4.535263322e-02	1.019049276e-15
2.840000000e-02	3.122234379e-01	-4.554725705e-02	1.332267630e-15
2.850000000e-02	3.123359667e-01	-4.574213618e-02	9.559569858e-16
2.860000000e-02	3.124488533e-01	-4.593726721e-02	9.063162369e-16
2.870000000e-02	3.125620973e-01	-4.613264675e-02	1.348432594e-15
2.880000000e-02	3.126756985e-01	-4.632827139e-02	9.485749681e-16
2.890000000e-02	3.127896564e-01	-4.652413776e-02	1.387778781e-17
2.900000000e-02	3.129039707e-01	-4.672024246e-02	5.635475560e-16
2.910000000e-02	3.130186410e-01	-4.691658212e-02	2.775557562e-17
2.920000000e-02	3.131336669e-01	-4.711315337e-02	7.719655906e-16
2.930000000e-02	3.132490481e-01	-4.730995284e-02	9.189778456e-16
2.940000000e-02	3.133647842e-01	-4.750697715e-02	4.484587322e-16
2.950000000e-02	3.134808749e-01	-4.770422296e-02	4.793364605e-16
2.960000000e-02	3.135973197e-01	-4.790168692e-02	9.155133597e-16
2.970000000e-02	3.137141184e-01	-4.809936567e-02	9.682678849e-16
2.980000000e-02	3.138312704e-01	-4.829725587e-02	6.329625397e-16
2.990000000e-02	3.139487755e-01	-4.849535418e-02	1.127095112e-15
3.000000000e-02	3.140666333e-01	-4.869365728e-02	8.121767086e-16
3.010000000e-02	3.141848434e-01	-4.889216185e-02	1.073915732e-15
3.020000000e-02	3.143034055e-01	-4.909086455e-02	1.058562322e-15
3.030000000e-02	3.144223190e-01	-4.928976209e-02	1.776573667e-15
