# mu [eV]     Omega/c [1/micrones]    Im(epsi1)     Eq(det).Opt det con kz, R=0.5 \mum, Re(epsi1)=3.90, kz = 1.0000 1/\mum, solve_det_conkz_vs_mu.py
3.000000000e-01	6.104680786e+00	-2.812485040e-01	1.362617603e-15
3.010000000e-01	6.104675263e+00	-2.812471749e-01	2.933684477e-15
3.020000000e-01	6.104669692e+00	-2.812458385e-01	2.053905596e-15
3.030000000e-01	6.104664072e+00	-2.812444945e-01	4.712259345e-15
3.040000000e-01	6.104658403e+00	-2.812431431e-01	2.236346506e-15
3.050000000e-01	6.104652684e+00	-2.812417839e-01	7.682330788e-16
3.060000000e-01	6.104646915e+00	-2.812404171e-01	3.308351407e-15
3.070000000e-01	6.104641096e+00	-2.812390424e-01	2.152666052e-15
3.080000000e-01	6.104635226e+00	-2.812376597e-01	2.693364674e-15
3.090000000e-01	6.104629305e+00	-2.812362691e-01	3.168476435e-15
3.100000000e-01	6.104623332e+00	-2.812348703e-01	2.582256883e-15
3.110000000e-01	6.104617307e+00	-2.812334634e-01	3.275158545e-15
3.120000000e-01	6.104611230e+00	-2.812320481e-01	1.917898428e-15
3.130000000e-01	6.104605100e+00	-2.812306244e-01	2.185881836e-15
3.140000000e-01	6.104598917e+00	-2.812291921e-01	3.261450505e-15
3.150000000e-01	6.104592680e+00	-2.812277513e-01	2.014562287e-15
3.160000000e-01	6.104586389e+00	-2.812263017e-01	2.545125071e-15
3.170000000e-01	6.104580044e+00	-2.812248433e-01	1.386614951e-15
3.180000000e-01	6.104573643e+00	-2.812233760e-01	2.700271822e-15
3.190000000e-01	6.104567188e+00	-2.812218996e-01	2.573605158e-15
3.200000000e-01	6.104560676e+00	-2.812204140e-01	1.407344492e-15
3.210000000e-01	6.104554108e+00	-2.812189192e-01	2.065085894e-15
3.220000000e-01	6.104547484e+00	-2.812174150e-01	2.250792587e-15
3.230000000e-01	6.104540802e+00	-2.812159012e-01	2.586000020e-15
3.240000000e-01	6.104534063e+00	-2.812143778e-01	1.630186230e-15
3.250000000e-01	6.104527265e+00	-2.812128447e-01	2.524564862e-15
3.260000000e-01	6.104520410e+00	-2.812113017e-01	2.816591514e-15
3.270000000e-01	6.104513495e+00	-2.812097487e-01	3.883299322e-15
3.280000000e-01	6.104506520e+00	-2.812081855e-01	2.959855818e-15
3.290000000e-01	6.104499486e+00	-2.812066121e-01	2.541483475e-15
3.300000000e-01	6.104492391e+00	-2.812050283e-01	2.287902825e-15
3.310000000e-01	6.104485235e+00	-2.812034340e-01	3.429424871e-15
3.320000000e-01	6.104478017e+00	-2.812018290e-01	2.462186804e-15
3.330000000e-01	6.104470738e+00	-2.812002132e-01	3.180706859e-15
3.340000000e-01	6.104463396e+00	-2.811985864e-01	2.731773848e-15
3.350000000e-01	6.104455991e+00	-2.811969486e-01	3.206613162e-15
3.360000000e-01	6.104448522e+00	-2.811952995e-01	3.619646592e-15
3.370000000e-01	6.104440990e+00	-2.811936391e-01	3.403376600e-15
3.380000000e-01	6.104433392e+00	-2.811919671e-01	4.283188087e-15
3.390000000e-01	6.104425730e+00	-2.811902834e-01	1.539857152e-15
3.400000000e-01	6.104418002e+00	-2.811885879e-01	3.229258112e-15
3.410000000e-01	6.104410208e+00	-2.811868804e-01	2.452763334e-15
3.420000000e-01	6.104402347e+00	-2.811851608e-01	3.385096007e-15
3.430000000e-01	6.104394418e+00	-2.811834288e-01	2.520854621e-15
3.440000000e-01	6.104386422e+00	-2.811816843e-01	2.357174524e-15
3.450000000e-01	6.104378357e+00	-2.811799272e-01	3.430550553e-15
3.460000000e-01	6.104370223e+00	-2.811781572e-01	2.763693253e-15
3.470000000e-01	6.104362020e+00	-2.811763743e-01	1.493210802e-15
3.480000000e-01	6.104353746e+00	-2.811745781e-01	3.846908960e-15
3.490000000e-01	6.104345401e+00	-2.811727686e-01	3.927326099e-15
3.500000000e-01	6.104336985e+00	-2.811709456e-01	2.409065838e-15
3.510000000e-01	6.104328497e+00	-2.811691088e-01	1.957485104e-15
3.520000000e-01	6.104319936e+00	-2.811672580e-01	3.055947102e-15
3.530000000e-01	6.104311301e+00	-2.811653932e-01	4.185167707e-15
3.540000000e-01	6.104302593e+00	-2.811635140e-01	1.768250729e-15
3.550000000e-01	6.104293810e+00	-2.811616204e-01	1.715354704e-15
3.560000000e-01	6.104284952e+00	-2.811597120e-01	1.746699202e-15
3.570000000e-01	6.104276018e+00	-2.811577886e-01	3.155781546e-15
3.580000000e-01	6.104267007e+00	-2.811558501e-01	1.989334260e-15
3.590000000e-01	6.104257919e+00	-2.811538963e-01	3.146487734e-15
3.600000000e-01	6.104248753e+00	-2.811519269e-01	3.602023209e-15
3.610000000e-01	6.104239508e+00	-2.811499416e-01	2.452865531e-15
3.620000000e-01	6.104230184e+00	-2.811479404e-01	1.224672814e-15
3.630000000e-01	6.104220780e+00	-2.811459229e-01	2.220272598e-15
3.640000000e-01	6.104211295e+00	-2.811438889e-01	3.523471090e-15
3.650000000e-01	6.104201729e+00	-2.811418381e-01	2.109567743e-15
3.660000000e-01	6.104192080e+00	-2.811397704e-01	4.347069581e-15
3.670000000e-01	6.104182349e+00	-2.811376854e-01	3.735643649e-15
3.680000000e-01	6.104172534e+00	-2.811355830e-01	3.190251998e-15
3.690000000e-01	6.104162634e+00	-2.811334628e-01	1.170486667e-15
3.700000000e-01	6.104152649e+00	-2.811313246e-01	1.484307576e-15
3.710000000e-01	6.104142578e+00	-2.811291681e-01	1.247103021e-15
3.720000000e-01	6.104132420e+00	-2.811269931e-01	1.677673158e-15
3.730000000e-01	6.104122175e+00	-2.811247992e-01	1.273066296e-15
3.740000000e-01	6.104111841e+00	-2.811225862e-01	2.126852058e-15
3.750000000e-01	6.104101417e+00	-2.811203539e-01	2.659534258e-15
3.760000000e-01	6.104090904e+00	-2.811181018e-01	2.917472578e-15
3.770000000e-01	6.104080300e+00	-2.811158298e-01	3.171488873e-15
3.780000000e-01	6.104069604e+00	-2.811135375e-01	2.294462189e-15
3.790000000e-01	6.104058815e+00	-2.811112245e-01	1.386575246e-15
3.800000000e-01	6.104047933e+00	-2.811088906e-01	3.017370030e-15
3.810000000e-01	6.104036957e+00	-2.811065355e-01	3.318227593e-15
3.820000000e-01	6.104025885e+00	-2.811041588e-01	3.969281114e-15
3.830000000e-01	6.104014717e+00	-2.811017602e-01	2.564313603e-15
3.840000000e-01	6.104003452e+00	-2.810993393e-01	3.945447246e-15
3.850000000e-01	6.103992089e+00	-2.810968958e-01	3.261322559e-15
3.860000000e-01	6.103980627e+00	-2.810944294e-01	3.373431219e-15
3.870000000e-01	6.103969065e+00	-2.810919396e-01	2.151861048e-15
3.880000000e-01	6.103957402e+00	-2.810894261e-01	1.550247805e-15
3.890000000e-01	6.103945637e+00	-2.810868886e-01	3.808256142e-15
3.900000000e-01	6.103933769e+00	-2.810843265e-01	3.996305540e-15
3.910000000e-01	6.103921797e+00	-2.810817397e-01	1.642377565e-15
3.920000000e-01	6.103909721e+00	-2.810791275e-01	2.453281182e-15
3.930000000e-01	6.103897538e+00	-2.810764898e-01	2.541357407e-15
3.940000000e-01	6.103885248e+00	-2.810738259e-01	2.266442370e-15
3.950000000e-01	6.103872851e+00	-2.810711355e-01	4.131653736e-15
3.960000000e-01	6.103860344e+00	-2.810684182e-01	2.155283784e-15
3.970000000e-01	6.103847727e+00	-2.810656734e-01	1.647259404e-15
3.980000000e-01	6.103834998e+00	-2.810629009e-01	2.499787236e-15
3.990000000e-01	6.103822157e+00	-2.810601000e-01	3.515399868e-15
4.000000000e-01	6.103809203e+00	-2.810572704e-01	2.944035605e-15
4.010000000e-01	6.103796133e+00	-2.810544115e-01	3.245346538e-15
4.020000000e-01	6.103782948e+00	-2.810515228e-01	1.037823864e-15
4.030000000e-01	6.103769645e+00	-2.810486039e-01	2.541458711e-15
4.040000000e-01	6.103756225e+00	-2.810456543e-01	1.599776382e-15
4.050000000e-01	6.103742684e+00	-2.810426733e-01	1.732731300e-15
4.060000000e-01	6.103729023e+00	-2.810396605e-01	3.477426276e-15
4.070000000e-01	6.103715240e+00	-2.810366154e-01	3.125311049e-15
4.080000000e-01	6.103701333e+00	-2.810335373e-01	1.730413994e-15
4.090000000e-01	6.103687301e+00	-2.810304257e-01	1.369413548e-15
4.100000000e-01	6.103673144e+00	-2.810272800e-01	1.941892547e-15
4.110000000e-01	6.103658859e+00	-2.810240997e-01	1.969392951e-15
4.120000000e-01	6.103644446e+00	-2.810208840e-01	4.417218558e-15
4.130000000e-01	6.103629902e+00	-2.810176325e-01	5.172509573e-15
4.140000000e-01	6.103615228e+00	-2.810143444e-01	2.460825808e-15
4.150000000e-01	6.103600420e+00	-2.810110191e-01	3.467034801e-15
4.160000000e-01	6.103585478e+00	-2.810076559e-01	2.406206329e-15
4.170000000e-01	6.103570400e+00	-2.810042542e-01	2.389313673e-15
4.180000000e-01	6.103555185e+00	-2.810008132e-01	2.970918541e-15
4.190000000e-01	6.103539831e+00	-2.809973323e-01	1.875642349e-15
4.200000000e-01	6.103524336e+00	-2.809938108e-01	2.250716450e-15
4.210000000e-01	6.103508700e+00	-2.809902478e-01	3.398007322e-15
4.220000000e-01	6.103492921e+00	-2.809866426e-01	3.184565179e-15
4.230000000e-01	6.103476996e+00	-2.809829944e-01	1.917013326e-15
4.240000000e-01	6.103460925e+00	-2.809793025e-01	2.083355263e-15
4.250000000e-01	6.103444706e+00	-2.809755660e-01	2.353167708e-15
4.260000000e-01	6.103428336e+00	-2.809717842e-01	2.827108772e-15
4.270000000e-01	6.103411815e+00	-2.809679560e-01	2.082374228e-15
4.280000000e-01	6.103395140e+00	-2.809640807e-01	2.343260478e-15
4.290000000e-01	6.103378310e+00	-2.809601574e-01	2.719182925e-15
4.300000000e-01	6.103361323e+00	-2.809561852e-01	3.095337882e-15
4.310000000e-01	6.103344177e+00	-2.809521630e-01	4.476297891e-15
4.320000000e-01	6.103326871e+00	-2.809480900e-01	2.910747567e-15
4.330000000e-01	6.103309401e+00	-2.809439652e-01	1.535237562e-15
4.340000000e-01	6.103291768e+00	-2.809397875e-01	3.136622106e-15
4.350000000e-01	6.103273968e+00	-2.809355560e-01	3.038765325e-15
4.360000000e-01	6.103255999e+00	-2.809312695e-01	1.861846211e-15
4.370000000e-01	6.103237861e+00	-2.809269270e-01	4.036540232e-15
4.380000000e-01	6.103219549e+00	-2.809225273e-01	3.165028847e-15
4.390000000e-01	6.103201063e+00	-2.809180694e-01	2.563746343e-15
4.400000000e-01	6.103182401e+00	-2.809135521e-01	2.235227267e-15
4.410000000e-01	6.103163559e+00	-2.809089741e-01	2.740152520e-15
4.420000000e-01	6.103144537e+00	-2.809043342e-01	3.001682366e-15
4.430000000e-01	6.103125331e+00	-2.808996312e-01	2.697967437e-15
4.440000000e-01	6.103105940e+00	-2.808948638e-01	3.496725098e-15
4.450000000e-01	6.103086361e+00	-2.808900307e-01	3.141193621e-15
4.460000000e-01	6.103066592e+00	-2.808851304e-01	2.599628284e-15
4.470000000e-01	6.103046630e+00	-2.808801616e-01	1.511500043e-15
4.480000000e-01	6.103026474e+00	-2.808751229e-01	2.399690698e-15
4.490000000e-01	6.103006119e+00	-2.808700128e-01	2.557314913e-15
4.500000000e-01	6.102985565e+00	-2.808648297e-01	1.967505380e-15
4.510000000e-01	6.102964808e+00	-2.808595722e-01	4.122479691e-15
4.520000000e-01	6.102943847e+00	-2.808542386e-01	2.497604593e-15
4.530000000e-01	6.102922677e+00	-2.808488273e-01	1.767498866e-15
4.540000000e-01	6.102901297e+00	-2.808433366e-01	4.278299531e-15
4.550000000e-01	6.102879703e+00	-2.808377648e-01	2.281318656e-15
4.560000000e-01	6.102857893e+00	-2.808321101e-01	1.689018048e-15
4.570000000e-01	6.102835865e+00	-2.808263707e-01	4.125481120e-15
4.580000000e-01	6.102813614e+00	-2.808205447e-01	4.207373124e-15
4.590000000e-01	6.102791139e+00	-2.808146303e-01	2.918821734e-15
4.600000000e-01	6.102768435e+00	-2.808086253e-01	3.380123833e-15
4.610000000e-01	6.102745501e+00	-2.808025278e-01	1.585351911e-15
4.620000000e-01	6.102722332e+00	-2.807963357e-01	3.976459460e-15
4.630000000e-01	6.102698926e+00	-2.807900468e-01	2.238228875e-15
4.640000000e-01	6.102675280e+00	-2.807836589e-01	2.054195026e-15
4.650000000e-01	6.102651389e+00	-2.807771698e-01	1.863998739e-15
4.660000000e-01	6.102627252e+00	-2.807705770e-01	4.447098864e-15
4.670000000e-01	6.102602863e+00	-2.807638782e-01	2.431758588e-15
4.680000000e-01	6.102578220e+00	-2.807570708e-01	2.048951517e-15
4.690000000e-01	6.102553319e+00	-2.807501524e-01	2.524285934e-15
4.700000000e-01	6.102528156e+00	-2.807431202e-01	1.755331612e-15
4.710000000e-01	6.102502728e+00	-2.807359715e-01	1.643640367e-15
4.720000000e-01	6.102477031e+00	-2.807287036e-01	2.684532989e-15
4.730000000e-01	6.102451060e+00	-2.807213135e-01	1.036148873e-15
4.740000000e-01	6.102424813e+00	-2.807137984e-01	2.873720971e-15
4.750000000e-01	6.102398284e+00	-2.807061550e-01	1.522227226e-15
4.760000000e-01	6.102371470e+00	-2.806983802e-01	2.629329159e-15
4.770000000e-01	6.102344366e+00	-2.806904708e-01	1.762641945e-15
4.780000000e-01	6.102316968e+00	-2.806824235e-01	2.775351467e-15
4.790000000e-01	6.102289272e+00	-2.806742346e-01	2.113392535e-15
4.800000000e-01	6.102261273e+00	-2.806659007e-01	2.175246494e-15
4.810000000e-01	6.102232966e+00	-2.806574180e-01	1.066212017e-15
4.820000000e-01	6.102204347e+00	-2.806487827e-01	1.976809176e-15
4.830000000e-01	6.102175411e+00	-2.806399909e-01	1.773362558e-15
4.840000000e-01	6.102146154e+00	-2.806310385e-01	1.365391274e-15
4.850000000e-01	6.102116569e+00	-2.806219213e-01	2.597441237e-15
4.860000000e-01	6.102086652e+00	-2.806126349e-01	3.026299513e-15
4.870000000e-01	6.102056398e+00	-2.806031748e-01	3.384129448e-15
4.880000000e-01	6.102025801e+00	-2.805935364e-01	3.985653869e-15
4.890000000e-01	6.101994855e+00	-2.805837148e-01	3.920141369e-15
4.900000000e-01	6.101963556e+00	-2.805737051e-01	1.132262723e-15
4.910000000e-01	6.101931898e+00	-2.805635022e-01	2.414993890e-15
4.920000000e-01	6.101899874e+00	-2.805531006e-01	3.758324318e-15
4.930000000e-01	6.101867478e+00	-2.805424950e-01	3.266119262e-15
4.940000000e-01	6.101834705e+00	-2.805316795e-01	1.280960703e-15
4.950000000e-01	6.101801549e+00	-2.805206483e-01	1.624421255e-15
4.960000000e-01	6.101768002e+00	-2.805093952e-01	2.470398537e-15
4.970000000e-01	6.101734058e+00	-2.804979139e-01	2.004674825e-15
4.980000000e-01	6.101699711e+00	-2.804861979e-01	2.085631204e-15
4.990000000e-01	6.101664953e+00	-2.804742402e-01	3.939630209e-15
5.000000000e-01	6.101629778e+00	-2.804620339e-01	1.404140889e-15
5.010000000e-01	6.101594178e+00	-2.804495716e-01	4.001372335e-15
5.020000000e-01	6.101558146e+00	-2.804368456e-01	2.013135416e-15
5.030000000e-01	6.101521675e+00	-2.804238481e-01	2.472672907e-15
5.040000000e-01	6.101484757e+00	-2.804105709e-01	1.910560607e-15
5.050000000e-01	6.101447383e+00	-2.803970055e-01	2.093083225e-15
5.060000000e-01	6.101409546e+00	-2.803831430e-01	3.305121956e-15
5.070000000e-01	6.101371238e+00	-2.803689742e-01	4.208456225e-15
5.080000000e-01	6.101332449e+00	-2.803544897e-01	3.084501199e-15
5.090000000e-01	6.101293172e+00	-2.803396793e-01	1.432645234e-15
5.100000000e-01	6.101253397e+00	-2.803245329e-01	3.188262396e-15
5.110000000e-01	6.101213116e+00	-2.803090397e-01	3.893253272e-15
5.120000000e-01	6.101172318e+00	-2.802931885e-01	1.574167045e-15
5.130000000e-01	6.101130995e+00	-2.802769676e-01	2.298803494e-15
5.140000000e-01	6.101089136e+00	-2.802603650e-01	3.491823084e-15
5.150000000e-01	6.101046732e+00	-2.802433680e-01	3.793808594e-15
5.160000000e-01	6.101003772e+00	-2.802259634e-01	3.519974442e-15
5.170000000e-01	6.100960245e+00	-2.802081377e-01	2.634249889e-15
5.180000000e-01	6.100916142e+00	-2.801898763e-01	1.925658420e-15
5.190000000e-01	6.100871450e+00	-2.801711646e-01	2.498947647e-15
5.200000000e-01	6.100826159e+00	-2.801519868e-01	2.399837173e-15
5.210000000e-01	6.100780257e+00	-2.801323268e-01	1.521879792e-15
5.220000000e-01	6.100733731e+00	-2.801121676e-01	3.215782095e-15
5.230000000e-01	6.100686571e+00	-2.800914915e-01	1.948899740e-15
5.240000000e-01	6.100638763e+00	-2.800702799e-01	1.385647186e-15
5.250000000e-01	6.100590294e+00	-2.800485137e-01	3.823907297e-15
5.260000000e-01	6.100541152e+00	-2.800261725e-01	2.877732895e-15
5.270000000e-01	6.100491323e+00	-2.800032351e-01	1.209881174e-15
5.280000000e-01	6.100440794e+00	-2.799796796e-01	1.894955824e-15
5.290000000e-01	6.100389550e+00	-2.799554826e-01	2.143088636e-15
5.300000000e-01	6.100337577e+00	-2.799306199e-01	2.346619138e-15
5.310000000e-01	6.100284861e+00	-2.799050662e-01	2.749561939e-15
5.320000000e-01	6.100231386e+00	-2.798787948e-01	1.885189951e-15
5.330000000e-01	6.100177138e+00	-2.798517778e-01	4.063346165e-15
5.340000000e-01	6.100122101e+00	-2.798239859e-01	3.660860865e-15
5.350000000e-01	6.100066258e+00	-2.797953884e-01	2.629939198e-15
5.360000000e-01	6.100009593e+00	-2.797659532e-01	3.034536210e-15
5.370000000e-01	6.099952091e+00	-2.797356462e-01	2.648479846e-15
5.380000000e-01	6.099893733e+00	-2.797044321e-01	2.260917988e-15
5.390000000e-01	6.099834504e+00	-2.796722735e-01	2.675558651e-15
5.400000000e-01	6.099774385e+00	-2.796391311e-01	2.993111625e-15
5.410000000e-01	6.099713359e+00	-2.796049637e-01	1.003291900e-15
5.420000000e-01	6.099651407e+00	-2.795697279e-01	2.257282470e-15
5.430000000e-01	6.099588512e+00	-2.795333781e-01	2.324785566e-15
5.440000000e-01	6.099524655e+00	-2.794958661e-01	2.787673667e-15
5.450000000e-01	6.099459818e+00	-2.794571415e-01	3.143847809e-15
5.460000000e-01	6.099393982e+00	-2.794171509e-01	2.322064217e-15
5.470000000e-01	6.099327128e+00	-2.793758383e-01	3.184504780e-15
5.480000000e-01	6.099259237e+00	-2.793331445e-01	3.164620030e-15
5.490000000e-01	6.099190291e+00	-2.792890071e-01	2.748741814e-15
5.500000000e-01	6.099120270e+00	-2.792433605e-01	2.779255675e-15
5.510000000e-01	6.099049157e+00	-2.791961354e-01	2.109882246e-15
5.520000000e-01	6.098976933e+00	-2.791472587e-01	2.259112271e-15
5.530000000e-01	6.098903580e+00	-2.790966532e-01	4.032471770e-15
5.540000000e-01	6.098829082e+00	-2.790442378e-01	2.652396198e-15
5.550000000e-01	6.098753420e+00	-2.789899265e-01	2.407641369e-15
5.560000000e-01	6.098676580e+00	-2.789336288e-01	2.221975418e-15
5.570000000e-01	6.098598546e+00	-2.788752494e-01	1.977143594e-15
5.580000000e-01	6.098519306e+00	-2.788146872e-01	2.210409409e-15
5.590000000e-01	6.098438846e+00	-2.787518362e-01	2.311451250e-15
5.600000000e-01	6.098357157e+00	-2.786865843e-01	2.943442473e-15
5.610000000e-01	6.098274229e+00	-2.786188133e-01	1.824047472e-15
5.620000000e-01	6.098190058e+00	-2.785483987e-01	2.723414473e-15
5.630000000e-01	6.098104639e+00	-2.784752095e-01	2.067997903e-15
5.640000000e-01	6.098017973e+00	-2.783991076e-01	3.107715743e-15
5.650000000e-01	6.097930063e+00	-2.783199482e-01	3.085022774e-15
5.660000000e-01	6.097840919e+00	-2.782375787e-01	2.596096214e-15
5.670000000e-01	6.097750551e+00	-2.781518393e-01	2.703264771e-15
5.680000000e-01	6.097658980e+00	-2.780625625e-01	2.879143461e-15
5.690000000e-01	6.097566231e+00	-2.779695732e-01	2.398663429e-15
5.700000000e-01	6.097472334e+00	-2.778726886e-01	4.068514214e-15
5.710000000e-01	6.097377332e+00	-2.777717182e-01	4.347245647e-15
5.720000000e-01	6.097281274e+00	-2.776664644e-01	4.287227575e-15
5.730000000e-01	6.097184219e+00	-2.775567224e-01	2.083892901e-15
5.740000000e-01	6.097086240e+00	-2.774422814e-01	2.420811205e-15
5.750000000e-01	6.096987421e+00	-2.773229246e-01	2.772997601e-15
5.760000000e-01	6.096887862e+00	-2.771984309e-01	4.294676112e-15
5.770000000e-01	6.096787677e+00	-2.770685760e-01	2.299249671e-15
5.780000000e-01	6.096686999e+00	-2.769331337e-01	2.416799998e-15
5.790000000e-01	6.096585978e+00	-2.767918785e-01	2.765093572e-15
5.800000000e-01	6.096484788e+00	-2.766445880e-01	2.367207820e-15
5.810000000e-01	6.096383621e+00	-2.764910452e-01	4.627495114e-15
5.820000000e-01	6.096282696e+00	-2.763310430e-01	2.967592593e-15
5.830000000e-01	6.096182254e+00	-2.761643874e-01	1.109863031e-15
5.840000000e-01	6.096082565e+00	-2.759909024e-01	2.798671570e-15
5.850000000e-01	6.095983924e+00	-2.758104352e-01	2.829603022e-15
5.860000000e-01	6.095886653e+00	-2.756228616e-01	3.174074097e-15
5.870000000e-01	6.095791100e+00	-2.754280924e-01	3.932500318e-15
5.880000000e-01	6.095697640e+00	-2.752260798e-01	2.289994956e-15
5.890000000e-01	6.095606671e+00	-2.750168239e-01	3.791631802e-15
5.900000000e-01	6.095518613e+00	-2.748003795e-01	3.816927831e-15
5.910000000e-01	6.095433904e+00	-2.745768624e-01	3.255994778e-15
5.920000000e-01	6.095352992e+00	-2.743464551e-01	3.088254979e-15
5.930000000e-01	6.095276334e+00	-2.741094118e-01	1.998412492e-15
5.940000000e-01	6.095204386e+00	-2.738660616e-01	2.586412624e-15
5.950000000e-01	6.095137598e+00	-2.736168106e-01	3.144135461e-15
5.960000000e-01	6.095076401e+00	-2.733621415e-01	1.734622144e-15
5.970000000e-01	6.095021202e+00	-2.731026115e-01	3.087423568e-15
5.980000000e-01	6.094972375e+00	-2.728388468e-01	3.791726124e-15
5.990000000e-01	6.094930248e+00	-2.725715360e-01	2.631571745e-15
6.000000000e-01	6.094895103e+00	-2.723014196e-01	2.644296839e-15
6.010000000e-01	6.094867160e+00	-2.720292791e-01	2.666881653e-15
6.020000000e-01	6.094846579e+00	-2.717559231e-01	4.257341913e-15
6.030000000e-01	6.094833453e+00	-2.714821732e-01	2.795511583e-15
6.040000000e-01	6.094827809e+00	-2.712088493e-01	3.452982487e-15
