# mu [eV]     Omega/c [1/micrones]    Im(epsi1)     Eq(det).Opt det con kz, R=0.5 \mum, Re(epsi1)=3.90, kz = 1.0000 1/\mum, solve_det_conkz_vs_mu.py
3.000000000e-01	1.019460254e+01	-4.233972613e-01	2.867408748e-16
3.010000000e-01	1.019460154e+01	-4.233971736e-01	5.216062358e-16
3.020000000e-01	1.019460054e+01	-4.233970862e-01	3.578223263e-16
3.030000000e-01	1.019459952e+01	-4.233969990e-01	5.782797199e-16
3.040000000e-01	1.019459851e+01	-4.233969120e-01	5.503979351e-16
3.050000000e-01	1.019459748e+01	-4.233968253e-01	5.691941996e-16
3.060000000e-01	1.019459645e+01	-4.233967388e-01	3.667805024e-16
3.070000000e-01	1.019459541e+01	-4.233966526e-01	5.522701475e-16
3.080000000e-01	1.019459436e+01	-4.233965666e-01	3.957595947e-16
3.090000000e-01	1.019459330e+01	-4.233964809e-01	5.191325318e-16
3.100000000e-01	1.019459224e+01	-4.233963954e-01	6.669650592e-16
3.110000000e-01	1.019459117e+01	-4.233963102e-01	6.543359617e-16
3.120000000e-01	1.019459009e+01	-4.233962253e-01	1.768537992e-16
3.130000000e-01	1.019458900e+01	-4.233961406e-01	5.422998839e-16
3.140000000e-01	1.019458791e+01	-4.233960562e-01	2.149330678e-16
3.150000000e-01	1.019458681e+01	-4.233959720e-01	6.505357711e-16
3.160000000e-01	1.019458570e+01	-4.233958881e-01	6.959230499e-16
3.170000000e-01	1.019458458e+01	-4.233958045e-01	4.318585185e-16
3.180000000e-01	1.019458346e+01	-4.233957211e-01	5.135173855e-16
3.190000000e-01	1.019458233e+01	-4.233956380e-01	3.045876143e-16
3.200000000e-01	1.019458119e+01	-4.233955552e-01	3.725817128e-16
3.210000000e-01	1.019458004e+01	-4.233954726e-01	4.366262587e-16
3.220000000e-01	1.019457888e+01	-4.233953903e-01	3.667274196e-16
3.230000000e-01	1.019457772e+01	-4.233953083e-01	3.476197780e-16
3.240000000e-01	1.019457655e+01	-4.233952265e-01	6.781267822e-16
3.250000000e-01	1.019457537e+01	-4.233951450e-01	3.552105991e-16
3.260000000e-01	1.019457418e+01	-4.233950638e-01	4.162224826e-16
3.270000000e-01	1.019457299e+01	-4.233949829e-01	4.955179001e-16
3.280000000e-01	1.019457178e+01	-4.233949023e-01	2.499116422e-16
3.290000000e-01	1.019457057e+01	-4.233948219e-01	3.824575462e-16
3.300000000e-01	1.019456935e+01	-4.233947418e-01	6.266062358e-16
3.310000000e-01	1.019456812e+01	-4.233946620e-01	5.119306279e-16
3.320000000e-01	1.019456689e+01	-4.233945825e-01	5.331514633e-16
3.330000000e-01	1.019456564e+01	-4.233945033e-01	4.403153982e-16
3.340000000e-01	1.019456439e+01	-4.233944243e-01	3.493182080e-16
3.350000000e-01	1.019456313e+01	-4.233943457e-01	7.208788658e-16
3.360000000e-01	1.019456186e+01	-4.233942673e-01	3.748967394e-16
3.370000000e-01	1.019456058e+01	-4.233941892e-01	4.951183815e-16
3.380000000e-01	1.019455929e+01	-4.233941114e-01	2.465266186e-16
3.390000000e-01	1.019455800e+01	-4.233940340e-01	4.546860357e-16
3.400000000e-01	1.019455670e+01	-4.233939568e-01	5.609619611e-16
3.410000000e-01	1.019455538e+01	-4.233938799e-01	4.977094667e-16
3.420000000e-01	1.019455406e+01	-4.233938032e-01	5.884678546e-16
3.430000000e-01	1.019455273e+01	-4.233937269e-01	5.772833802e-16
3.440000000e-01	1.019455140e+01	-4.233936509e-01	2.041011843e-16
3.450000000e-01	1.019455005e+01	-4.233935752e-01	4.746330995e-16
3.460000000e-01	1.019454869e+01	-4.233934998e-01	6.178281025e-16
3.470000000e-01	1.019454733e+01	-4.233934247e-01	3.038632247e-16
3.480000000e-01	1.019454595e+01	-4.233933499e-01	2.733571364e-16
3.490000000e-01	1.019454457e+01	-4.233932754e-01	3.386181780e-16
3.500000000e-01	1.019454318e+01	-4.233932012e-01	7.042038811e-16
3.510000000e-01	1.019454178e+01	-4.233931273e-01	3.444518845e-16
3.520000000e-01	1.019454037e+01	-4.233930538e-01	5.112702303e-16
3.530000000e-01	1.019453895e+01	-4.233929805e-01	6.429298401e-16
3.540000000e-01	1.019453753e+01	-4.233929075e-01	4.494581967e-16
3.550000000e-01	1.019453609e+01	-4.233928349e-01	4.045001073e-16
3.560000000e-01	1.019453464e+01	-4.233927626e-01	5.939470061e-16
3.570000000e-01	1.019453319e+01	-4.233926906e-01	4.166210987e-16
3.580000000e-01	1.019453172e+01	-4.233926189e-01	3.544718980e-16
3.590000000e-01	1.019453025e+01	-4.233925475e-01	2.698879469e-16
3.600000000e-01	1.019452877e+01	-4.233924765e-01	5.397040864e-16
3.610000000e-01	1.019452728e+01	-4.233924057e-01	3.419515727e-16
3.620000000e-01	1.019452577e+01	-4.233923353e-01	3.519077492e-16
3.630000000e-01	1.019452426e+01	-4.233922652e-01	2.874882706e-16
3.640000000e-01	1.019452274e+01	-4.233921955e-01	4.401312803e-16
3.650000000e-01	1.019452121e+01	-4.233921260e-01	5.536518820e-16
3.660000000e-01	1.019451967e+01	-4.233920569e-01	4.166459512e-16
3.670000000e-01	1.019451812e+01	-4.233919881e-01	5.004309970e-16
3.680000000e-01	1.019451656e+01	-4.233919197e-01	4.432218413e-16
3.690000000e-01	1.019451499e+01	-4.233918515e-01	5.597884816e-16
3.700000000e-01	1.019451342e+01	-4.233917837e-01	3.926954044e-16
3.710000000e-01	1.019451183e+01	-4.233917163e-01	2.790016717e-16
3.720000000e-01	1.019451023e+01	-4.233916491e-01	6.094301048e-16
3.730000000e-01	1.019450862e+01	-4.233915823e-01	5.339129443e-16
3.740000000e-01	1.019450700e+01	-4.233915159e-01	2.945015959e-16
3.750000000e-01	1.019450537e+01	-4.233914498e-01	4.319486306e-16
3.760000000e-01	1.019450374e+01	-4.233913840e-01	3.393395744e-16
3.770000000e-01	1.019450209e+01	-4.233913185e-01	3.255177426e-16
3.780000000e-01	1.019450043e+01	-4.233912534e-01	5.779525725e-16
3.790000000e-01	1.019449876e+01	-4.233911886e-01	2.906880631e-16
3.800000000e-01	1.019449708e+01	-4.233911242e-01	1.468857654e-16
3.810000000e-01	1.019449539e+01	-4.233910602e-01	2.521457948e-16
3.820000000e-01	1.019449370e+01	-4.233909964e-01	5.116169596e-16
3.830000000e-01	1.019449199e+01	-4.233909330e-01	4.243678678e-16
3.840000000e-01	1.019449027e+01	-4.233908700e-01	3.228494140e-16
3.850000000e-01	1.019448854e+01	-4.233908073e-01	2.494187415e-16
3.860000000e-01	1.019448679e+01	-4.233907450e-01	5.567714032e-16
3.870000000e-01	1.019448504e+01	-4.233906830e-01	5.099821955e-16
3.880000000e-01	1.019448328e+01	-4.233906213e-01	5.436370698e-16
3.890000000e-01	1.019448151e+01	-4.233905600e-01	6.371290126e-16
3.900000000e-01	1.019447973e+01	-4.233904991e-01	5.201888926e-16
3.910000000e-01	1.019447793e+01	-4.233904385e-01	6.641501294e-16
3.920000000e-01	1.019447613e+01	-4.233903783e-01	4.548482819e-16
3.930000000e-01	1.019447431e+01	-4.233903185e-01	4.670829782e-16
3.940000000e-01	1.019447249e+01	-4.233902590e-01	2.346673985e-16
3.950000000e-01	1.019447065e+01	-4.233901998e-01	5.721052911e-16
3.960000000e-01	1.019446880e+01	-4.233901410e-01	2.278975210e-16
3.970000000e-01	1.019446694e+01	-4.233900826e-01	2.211523064e-16
3.980000000e-01	1.019446507e+01	-4.233900245e-01	5.930347880e-16
3.990000000e-01	1.019446319e+01	-4.233899669e-01	1.631142268e-16
4.000000000e-01	1.019446130e+01	-4.233899095e-01	4.580883303e-16
4.010000000e-01	1.019445939e+01	-4.233898526e-01	6.069406058e-16
4.020000000e-01	1.019445748e+01	-4.233897960e-01	1.787452857e-16
4.030000000e-01	1.019445555e+01	-4.233897397e-01	5.700289036e-16
4.040000000e-01	1.019445362e+01	-4.233896839e-01	4.948653437e-16
4.050000000e-01	1.019445167e+01	-4.233896284e-01	4.852772453e-16
4.060000000e-01	1.019444971e+01	-4.233895733e-01	4.486903054e-16
4.070000000e-01	1.019444774e+01	-4.233895185e-01	4.001607915e-16
4.080000000e-01	1.019444575e+01	-4.233894641e-01	2.785467454e-16
4.090000000e-01	1.019444376e+01	-4.233894101e-01	5.503057794e-16
4.100000000e-01	1.019444175e+01	-4.233893565e-01	3.709653932e-16
4.110000000e-01	1.019443973e+01	-4.233893033e-01	4.481632735e-16
4.120000000e-01	1.019443770e+01	-4.233892504e-01	3.917257791e-16
4.130000000e-01	1.019443566e+01	-4.233891979e-01	1.024868900e-16
4.140000000e-01	1.019443361e+01	-4.233891458e-01	4.709932624e-16
4.150000000e-01	1.019443154e+01	-4.233890941e-01	5.405025623e-16
4.160000000e-01	1.019442947e+01	-4.233890427e-01	5.020272740e-16
4.170000000e-01	1.019442738e+01	-4.233889918e-01	1.445581016e-16
4.180000000e-01	1.019442528e+01	-4.233889412e-01	5.616398851e-16
4.190000000e-01	1.019442316e+01	-4.233888910e-01	4.870042932e-16
4.200000000e-01	1.019442104e+01	-4.233888412e-01	5.928646022e-16
4.210000000e-01	1.019441890e+01	-4.233887917e-01	4.358322141e-16
4.220000000e-01	1.019441675e+01	-4.233887427e-01	5.071506144e-16
4.230000000e-01	1.019441459e+01	-4.233886940e-01	5.368795924e-16
4.240000000e-01	1.019441241e+01	-4.233886458e-01	5.535240225e-16
4.250000000e-01	1.019441023e+01	-4.233885979e-01	6.979473201e-16
4.260000000e-01	1.019440803e+01	-4.233885504e-01	4.556475212e-16
4.270000000e-01	1.019440582e+01	-4.233885033e-01	3.535124335e-16
4.280000000e-01	1.019440359e+01	-4.233884566e-01	5.210103085e-16
4.290000000e-01	1.019440135e+01	-4.233884103e-01	3.707500741e-16
4.300000000e-01	1.019439910e+01	-4.233883644e-01	4.515010393e-16
4.310000000e-01	1.019439684e+01	-4.233883189e-01	4.323673011e-16
4.320000000e-01	1.019439457e+01	-4.233882737e-01	3.285762258e-16
4.330000000e-01	1.019439228e+01	-4.233882290e-01	4.473713193e-16
4.340000000e-01	1.019438998e+01	-4.233881847e-01	6.656005656e-16
4.350000000e-01	1.019438766e+01	-4.233881407e-01	4.529226297e-16
4.360000000e-01	1.019438533e+01	-4.233880972e-01	3.500172477e-16
4.370000000e-01	1.019438299e+01	-4.233880541e-01	4.106631818e-16
4.380000000e-01	1.019438064e+01	-4.233880113e-01	7.434412600e-16
4.390000000e-01	1.019437827e+01	-4.233879690e-01	2.623873481e-16
4.400000000e-01	1.019437589e+01	-4.233879271e-01	3.541437982e-16
4.410000000e-01	1.019437350e+01	-4.233878856e-01	4.418386799e-16
4.420000000e-01	1.019437109e+01	-4.233878444e-01	3.971002164e-16
4.430000000e-01	1.019436867e+01	-4.233878037e-01	4.685560586e-16
4.440000000e-01	1.019436624e+01	-4.233877634e-01	2.702884191e-16
4.450000000e-01	1.019436379e+01	-4.233877235e-01	3.945775226e-16
4.460000000e-01	1.019436133e+01	-4.233876840e-01	4.336693605e-16
4.470000000e-01	1.019435886e+01	-4.233876449e-01	3.989376782e-16
4.480000000e-01	1.019435637e+01	-4.233876062e-01	1.595628258e-16
4.490000000e-01	1.019435387e+01	-4.233875680e-01	3.676595272e-16
4.500000000e-01	1.019435135e+01	-4.233875301e-01	3.176929058e-16
4.510000000e-01	1.019434882e+01	-4.233874927e-01	6.979868767e-16
4.520000000e-01	1.019434628e+01	-4.233874556e-01	5.261638646e-16
4.530000000e-01	1.019434372e+01	-4.233874190e-01	4.976264552e-16
4.540000000e-01	1.019434115e+01	-4.233873828e-01	3.103453497e-16
4.550000000e-01	1.019433856e+01	-4.233873470e-01	5.770644181e-16
4.560000000e-01	1.019433596e+01	-4.233873116e-01	6.285349093e-16
4.570000000e-01	1.019433335e+01	-4.233872766e-01	7.510615151e-16
4.580000000e-01	1.019433072e+01	-4.233872420e-01	6.779305687e-16
4.590000000e-01	1.019432807e+01	-4.233872079e-01	5.272165859e-16
4.600000000e-01	1.019432542e+01	-4.233871741e-01	4.591506187e-16
4.610000000e-01	1.019432274e+01	-4.233871408e-01	3.023827368e-16
4.620000000e-01	1.019432006e+01	-4.233871079e-01	4.552072665e-16
4.630000000e-01	1.019431735e+01	-4.233870755e-01	4.577448203e-16
4.640000000e-01	1.019431464e+01	-4.233870434e-01	4.242262253e-16
4.650000000e-01	1.019431191e+01	-4.233870117e-01	2.082131912e-16
4.660000000e-01	1.019430916e+01	-4.233869805e-01	4.855924661e-16
4.670000000e-01	1.019430640e+01	-4.233869497e-01	2.646236598e-16
4.680000000e-01	1.019430362e+01	-4.233869193e-01	5.735568269e-16
4.690000000e-01	1.019430083e+01	-4.233868894e-01	2.791368133e-16
4.700000000e-01	1.019429802e+01	-4.233868598e-01	4.316220689e-16
4.710000000e-01	1.019429520e+01	-4.233868307e-01	4.348705679e-16
4.720000000e-01	1.019429236e+01	-4.233868020e-01	4.499724347e-16
4.730000000e-01	1.019428951e+01	-4.233867737e-01	5.529724148e-16
4.740000000e-01	1.019428664e+01	-4.233867459e-01	2.295161133e-16
4.750000000e-01	1.019428376e+01	-4.233867184e-01	6.487640504e-16
4.760000000e-01	1.019428086e+01	-4.233866914e-01	3.211652701e-16
4.770000000e-01	1.019427795e+01	-4.233866649e-01	3.953102993e-16
4.780000000e-01	1.019427502e+01	-4.233866387e-01	5.270166807e-16
4.790000000e-01	1.019427207e+01	-4.233866130e-01	5.179397919e-16
4.800000000e-01	1.019426911e+01	-4.233865876e-01	2.435509043e-16
4.810000000e-01	1.019426613e+01	-4.233865628e-01	3.133010974e-16
4.820000000e-01	1.019426314e+01	-4.233865383e-01	2.527509437e-16
4.830000000e-01	1.019426013e+01	-4.233865143e-01	5.870608297e-16
4.840000000e-01	1.019425710e+01	-4.233864907e-01	4.010768961e-16
4.850000000e-01	1.019425406e+01	-4.233864675e-01	5.244690594e-16
4.860000000e-01	1.019425100e+01	-4.233864447e-01	4.611324338e-16
4.870000000e-01	1.019424792e+01	-4.233864224e-01	2.931566021e-16
4.880000000e-01	1.019424483e+01	-4.233864005e-01	6.846571416e-16
4.890000000e-01	1.019424172e+01	-4.233863790e-01	6.608280959e-16
4.900000000e-01	1.019423860e+01	-4.233863579e-01	3.946220222e-16
4.910000000e-01	1.019423546e+01	-4.233863373e-01	6.907949741e-16
4.920000000e-01	1.019423230e+01	-4.233863171e-01	3.942407275e-16
4.930000000e-01	1.019422912e+01	-4.233862973e-01	5.589376486e-16
4.940000000e-01	1.019422593e+01	-4.233862780e-01	3.132322511e-16
4.950000000e-01	1.019422272e+01	-4.233862591e-01	3.384135538e-16
4.960000000e-01	1.019421950e+01	-4.233862406e-01	6.399175038e-16
4.970000000e-01	1.019421625e+01	-4.233862225e-01	5.352181035e-16
4.980000000e-01	1.019421299e+01	-4.233862049e-01	3.550237604e-16
4.990000000e-01	1.019420972e+01	-4.233861877e-01	2.818266817e-16
5.000000000e-01	1.019420642e+01	-4.233861709e-01	7.153356007e-16
5.010000000e-01	1.019420311e+01	-4.233861545e-01	4.180675396e-16
5.020000000e-01	1.019419978e+01	-4.233861386e-01	1.914707857e-16
5.030000000e-01	1.019419643e+01	-4.233861231e-01	5.360078327e-16
5.040000000e-01	1.019419307e+01	-4.233861080e-01	4.751751242e-16
5.050000000e-01	1.019418968e+01	-4.233860934e-01	5.583067467e-16
5.060000000e-01	1.019418628e+01	-4.233860791e-01	3.518777437e-16
5.070000000e-01	1.019418286e+01	-4.233860653e-01	3.421925337e-16
5.080000000e-01	1.019417943e+01	-4.233860520e-01	2.160701982e-16
5.090000000e-01	1.019417597e+01	-4.233860390e-01	5.814107362e-16
5.100000000e-01	1.019417250e+01	-4.233860265e-01	5.061605010e-16
5.110000000e-01	1.019416901e+01	-4.233860144e-01	4.603547408e-16
5.120000000e-01	1.019416550e+01	-4.233860027e-01	5.470888325e-16
5.130000000e-01	1.019416197e+01	-4.233859915e-01	6.455839693e-16
5.140000000e-01	1.019415842e+01	-4.233859806e-01	4.519896144e-16
5.150000000e-01	1.019415486e+01	-4.233859702e-01	3.387135141e-16
5.160000000e-01	1.019415127e+01	-4.233859603e-01	4.868958321e-16
5.170000000e-01	1.019414767e+01	-4.233859507e-01	3.339702254e-16
5.180000000e-01	1.019414405e+01	-4.233859416e-01	7.329066225e-16
5.190000000e-01	1.019414041e+01	-4.233859328e-01	2.376552203e-16
5.200000000e-01	1.019413675e+01	-4.233859245e-01	5.438096834e-16
5.210000000e-01	1.019413307e+01	-4.233859167e-01	6.212544116e-16
5.220000000e-01	1.019412937e+01	-4.233859092e-01	2.573985660e-16
5.230000000e-01	1.019412565e+01	-4.233859022e-01	6.062242861e-16
5.240000000e-01	1.019412191e+01	-4.233858955e-01	3.273630886e-16
5.250000000e-01	1.019411816e+01	-4.233858893e-01	4.352739709e-16
5.260000000e-01	1.019411438e+01	-4.233858835e-01	2.927246759e-16
5.270000000e-01	1.019411058e+01	-4.233858782e-01	5.726311093e-16
5.280000000e-01	1.019410677e+01	-4.233858732e-01	5.241368180e-16
5.290000000e-01	1.019410293e+01	-4.233858687e-01	2.803387693e-16
5.300000000e-01	1.019409908e+01	-4.233858645e-01	2.621258138e-16
5.310000000e-01	1.019409520e+01	-4.233858608e-01	6.083359760e-16
5.320000000e-01	1.019409130e+01	-4.233858575e-01	4.743249053e-16
5.330000000e-01	1.019408739e+01	-4.233858546e-01	4.412632326e-16
5.340000000e-01	1.019408345e+01	-4.233858521e-01	3.246255091e-16
5.350000000e-01	1.019407949e+01	-4.233858500e-01	5.887454296e-16
5.360000000e-01	1.019407552e+01	-4.233858483e-01	3.604327575e-16
5.370000000e-01	1.019407152e+01	-4.233858471e-01	4.746635102e-16
5.380000000e-01	1.019406750e+01	-4.233858462e-01	2.824766781e-16
5.390000000e-01	1.019406346e+01	-4.233858457e-01	4.404362720e-16
5.400000000e-01	1.019405940e+01	-4.233858457e-01	4.967470929e-16
5.410000000e-01	1.019405531e+01	-4.233858460e-01	4.018799526e-16
5.420000000e-01	1.019405121e+01	-4.233858468e-01	2.632707882e-16
5.430000000e-01	1.019404709e+01	-4.233858479e-01	2.922742303e-16
5.440000000e-01	1.019404294e+01	-4.233858494e-01	5.428569266e-16
5.450000000e-01	1.019403877e+01	-4.233858514e-01	3.545605731e-16
5.460000000e-01	1.019403458e+01	-4.233858537e-01	3.457470694e-16
5.470000000e-01	1.019403037e+01	-4.233858564e-01	3.994061523e-16
5.480000000e-01	1.019402614e+01	-4.233858595e-01	4.058438237e-16
5.490000000e-01	1.019402188e+01	-4.233858630e-01	2.149283989e-16
5.500000000e-01	1.019401761e+01	-4.233858669e-01	5.215941777e-16
5.510000000e-01	1.019401331e+01	-4.233858712e-01	3.884145161e-16
5.520000000e-01	1.019400899e+01	-4.233858759e-01	4.799181019e-16
5.530000000e-01	1.019400464e+01	-4.233858809e-01	5.192905342e-16
5.540000000e-01	1.019400028e+01	-4.233858863e-01	2.344221839e-16
5.550000000e-01	1.019399589e+01	-4.233858921e-01	3.715406864e-16
5.560000000e-01	1.019399148e+01	-4.233858983e-01	4.333002935e-16
5.570000000e-01	1.019398705e+01	-4.233859048e-01	5.681392481e-16
5.580000000e-01	1.019398259e+01	-4.233859118e-01	3.027839574e-16
5.590000000e-01	1.019397811e+01	-4.233859191e-01	3.706794518e-16
5.600000000e-01	1.019397361e+01	-4.233859267e-01	3.893971904e-16
5.610000000e-01	1.019396908e+01	-4.233859348e-01	4.576070661e-16
5.620000000e-01	1.019396453e+01	-4.233859432e-01	4.242938428e-16
5.630000000e-01	1.019395996e+01	-4.233859519e-01	4.842856731e-16
5.640000000e-01	1.019395536e+01	-4.233859610e-01	4.446369782e-16
5.650000000e-01	1.019395074e+01	-4.233859705e-01	4.408578464e-16
5.660000000e-01	1.019394609e+01	-4.233859804e-01	5.646670148e-16
5.670000000e-01	1.019394143e+01	-4.233859905e-01	3.695752300e-16
5.680000000e-01	1.019393673e+01	-4.233860011e-01	2.988983360e-16
5.690000000e-01	1.019393202e+01	-4.233860120e-01	4.339595087e-16
5.700000000e-01	1.019392728e+01	-4.233860232e-01	3.655524260e-16
5.710000000e-01	1.019392251e+01	-4.233860348e-01	5.277171157e-16
5.720000000e-01	1.019391772e+01	-4.233860467e-01	5.112839242e-16
5.730000000e-01	1.019391291e+01	-4.233860589e-01	4.791270965e-16
5.740000000e-01	1.019390807e+01	-4.233860715e-01	5.690282001e-16
5.750000000e-01	1.019390320e+01	-4.233860844e-01	8.730171225e-16
5.760000000e-01	1.019389831e+01	-4.233860976e-01	5.018568488e-16
5.770000000e-01	1.019389340e+01	-4.233861112e-01	5.045334197e-16
5.780000000e-01	1.019388846e+01	-4.233861251e-01	2.520250401e-16
5.790000000e-01	1.019388349e+01	-4.233861393e-01	3.847267952e-16
5.800000000e-01	1.019387850e+01	-4.233861538e-01	2.985577220e-16
5.810000000e-01	1.019387348e+01	-4.233861686e-01	3.666021370e-16
5.820000000e-01	1.019386844e+01	-4.233861838e-01	4.019988404e-16
5.830000000e-01	1.019386337e+01	-4.233861992e-01	6.055918001e-16
5.840000000e-01	1.019385828e+01	-4.233862150e-01	4.782515341e-16
5.850000000e-01	1.019385315e+01	-4.233862310e-01	3.485255518e-16
5.860000000e-01	1.019384801e+01	-4.233862473e-01	3.763847181e-16
5.870000000e-01	1.019384283e+01	-4.233862640e-01	1.593418948e-16
5.880000000e-01	1.019383763e+01	-4.233862809e-01	2.093262347e-16
5.890000000e-01	1.019383240e+01	-4.233862981e-01	6.316217535e-16
5.900000000e-01	1.019382715e+01	-4.233863155e-01	4.028343108e-16
5.910000000e-01	1.019382187e+01	-4.233863333e-01	7.608521816e-16
5.920000000e-01	1.019381656e+01	-4.233863513e-01	3.664153767e-16
5.930000000e-01	1.019381122e+01	-4.233863696e-01	5.156838740e-16
5.940000000e-01	1.019380586e+01	-4.233863881e-01	3.995458733e-16
5.950000000e-01	1.019380047e+01	-4.233864069e-01	4.814715350e-16
5.960000000e-01	1.019379505e+01	-4.233864259e-01	4.294167359e-16
5.970000000e-01	1.019378960e+01	-4.233864452e-01	3.697871993e-16
5.980000000e-01	1.019378412e+01	-4.233864648e-01	5.454948574e-16
5.990000000e-01	1.019377862e+01	-4.233864846e-01	2.993183255e-16
6.000000000e-01	1.019377309e+01	-4.233865046e-01	5.873252662e-16
6.010000000e-01	1.019376753e+01	-4.233865248e-01	5.329479381e-16
6.020000000e-01	1.019376194e+01	-4.233865453e-01	3.029827517e-16
6.030000000e-01	1.019375632e+01	-4.233865660e-01	2.905726426e-16
6.040000000e-01	1.019375067e+01	-4.233865868e-01	5.714400432e-16
