# mu [eV]     Omega/c [1/micrones]    Im(epsi1)     Eq(det).Opt det con kz, R=0.5 \mum, Re(epsi1)=3.90, kz = 0.1300 1/\mum, solve_det_conkz_vs_mu.py
3.003000000e-01	1.339685078e-01	-4.223939840e-02	3.167622271e-11
3.006000000e-01	1.340360597e-01	-4.222094852e-02	3.557643497e-12
3.007000000e-01	1.340585660e-01	-4.221481511e-02	4.346817103e-11
3.008000000e-01	1.340810669e-01	-4.220868991e-02	2.170893103e-11
3.009000000e-01	1.341035622e-01	-4.220257290e-02	3.741014378e-11
3.010000000e-01	1.341260522e-01	-4.219646402e-02	1.946786803e-11
3.012000000e-01	1.341710159e-01	-4.218427057e-02	3.580668810e-11
3.013000000e-01	1.341934897e-01	-4.217818593e-02	3.916991580e-12
3.014000000e-01	1.342159582e-01	-4.217210929e-02	2.346472934e-11
3.015000000e-01	1.342384214e-01	-4.216604063e-02	2.223207086e-11
3.016000000e-01	1.342608792e-01	-4.215997992e-02	4.351751025e-12
3.018000000e-01	1.343057791e-01	-4.214788220e-02	3.711869766e-11
3.019000000e-01	1.343282212e-01	-4.214184513e-02	3.286970145e-11
3.020000000e-01	1.343506580e-01	-4.213581588e-02	1.105004279e-11
3.021000000e-01	1.343730896e-01	-4.212979441e-02	9.146630645e-12
3.022000000e-01	1.343955161e-01	-4.212378071e-02	4.177284558e-11
3.023000000e-01	1.344179373e-01	-4.211777475e-02	2.323089058e-11
3.024000000e-01	1.344403534e-01	-4.211177648e-02	1.214755079e-10
3.025000000e-01	1.344627644e-01	-4.210578589e-02	5.831343900e-12
3.026000000e-01	1.344851703e-01	-4.209980294e-02	7.538461300e-12
3.027000000e-01	1.345075710e-01	-4.209382761e-02	5.878956886e-11
3.029000000e-01	1.345523573e-01	-4.208189969e-02	2.391275634e-11
3.030000000e-01	1.345747428e-01	-4.207594705e-02	3.204857377e-12
3.031000000e-01	1.345971233e-01	-4.207000192e-02	5.666650509e-12
3.032000000e-01	1.346194988e-01	-4.206406427e-02	7.646075865e-11
3.033000000e-01	1.346418693e-01	-4.205813408e-02	5.922780138e-12
3.034000000e-01	1.346642347e-01	-4.205221133e-02	3.329667983e-12
3.036000000e-01	1.347089508e-01	-4.204038801e-02	1.513268990e-11
3.037000000e-01	1.347313014e-01	-4.203448740e-02	3.084125914e-11
3.038000000e-01	1.347536470e-01	-4.202859413e-02	3.218232532e-11
3.039000000e-01	1.347759877e-01	-4.202270816e-02	4.452706852e-11
3.041000000e-01	1.348206545e-01	-4.201095806e-02	1.339994161e-11
3.042000000e-01	1.348429805e-01	-4.200509388e-02	1.372060350e-11
3.043000000e-01	1.348653017e-01	-4.199923692e-02	4.733031194e-11
3.045000000e-01	1.349099295e-01	-4.198754455e-02	4.679678172e-11
3.046000000e-01	1.349322362e-01	-4.198170910e-02	3.185468206e-12
3.047000000e-01	1.349545381e-01	-4.197588077e-02	2.367167030e-11
3.048000000e-01	1.349768351e-01	-4.197005955e-02	1.189792239e-11
3.049000000e-01	1.349991274e-01	-4.196424542e-02	2.876730914e-12
3.050000000e-01	1.350214149e-01	-4.195843834e-02	1.541710951e-11
3.052000000e-01	1.350659756e-01	-4.194684529e-02	3.672884288e-12
3.053000000e-01	1.350882488e-01	-4.194105928e-02	6.848234099e-12
3.055000000e-01	1.351327811e-01	-4.192950816e-02	7.511201978e-11
3.057000000e-01	1.351772946e-01	-4.191798480e-02	7.756465228e-12
3.059000000e-01	1.352217894e-01	-4.190648904e-02	3.702017595e-11
3.062000000e-01	1.352884966e-01	-4.188929681e-02	3.255631300e-11
3.064000000e-01	1.353329449e-01	-4.187786937e-02	2.968828041e-11
3.065000000e-01	1.353551621e-01	-4.187216581e-02	2.063706419e-11
3.068000000e-01	1.354217863e-01	-4.185509555e-02	1.039660316e-11
3.069000000e-01	1.354439852e-01	-4.184941888e-02	9.483988254e-12
3.071000000e-01	1.354883694e-01	-4.183808556e-02	1.048802824e-11
3.072000000e-01	1.355105547e-01	-4.183242887e-02	1.453965901e-11
3.073000000e-01	1.355327354e-01	-4.182677881e-02	2.615535262e-11
3.075000000e-01	1.355770834e-01	-4.181549850e-02	3.554213175e-11
3.076000000e-01	1.355992506e-01	-4.180986822e-02	1.662547436e-11
3.078000000e-01	1.356435716e-01	-4.179862732e-02	1.380371476e-11
3.080000000e-01	1.356878746e-01	-4.178741254e-02	1.037547690e-11
3.081000000e-01	1.357100195e-01	-4.178181490e-02	2.251811747e-11
3.082000000e-01	1.357321599e-01	-4.177622373e-02	5.107569948e-12
3.083000000e-01	1.357542959e-01	-4.177063904e-02	5.836659327e-12
3.084000000e-01	1.357764274e-01	-4.176506079e-02	1.683645145e-11
3.085000000e-01	1.357985545e-01	-4.175948897e-02	1.150513740e-11
3.086000000e-01	1.358206772e-01	-4.175392358e-02	1.160204060e-11
3.087000000e-01	1.358427955e-01	-4.174836458e-02	5.788374538e-12
3.089000000e-01	1.358870189e-01	-4.173726575e-02	1.530120701e-11
3.091000000e-01	1.359312248e-01	-4.172619235e-02	1.204239741e-11
3.092000000e-01	1.359533212e-01	-4.172066515e-02	3.798828408e-12
3.093000000e-01	1.359754133e-01	-4.171514427e-02	2.669758861e-12
3.094000000e-01	1.359975010e-01	-4.170962969e-02	1.600276235e-11
3.096000000e-01	1.360416633e-01	-4.169861937e-02	4.659111153e-12
3.097000000e-01	1.360637380e-01	-4.169312361e-02	7.865514486e-12
3.098000000e-01	1.360858084e-01	-4.168763409e-02	2.606865229e-11
3.099000000e-01	1.361078745e-01	-4.168215080e-02	1.154792694e-11
3.100000000e-01	1.361299362e-01	-4.167667373e-02	2.640212310e-12
3.101000000e-01	1.361519937e-01	-4.167120286e-02	1.015570698e-11
3.102000000e-01	1.361740469e-01	-4.166573819e-02	3.917045815e-13
3.104000000e-01	1.362181404e-01	-4.165482736e-02	3.500326209e-12
3.106000000e-01	1.362622168e-01	-4.164394113e-02	1.127448236e-11
3.108000000e-01	1.363062762e-01	-4.163307940e-02	1.180802403e-12
3.109000000e-01	1.363282995e-01	-4.162765769e-02	3.297387894e-12
3.110000000e-01	1.363503186e-01	-4.162224207e-02	3.263330648e-12
3.112000000e-01	1.363943442e-01	-4.161142903e-02	2.211981501e-11
3.113000000e-01	1.364163506e-01	-4.160603159e-02	8.522917805e-12
3.114000000e-01	1.364383528e-01	-4.160064019e-02	4.462065416e-12
3.115000000e-01	1.364603509e-01	-4.159525481e-02	4.154317539e-12
3.117000000e-01	1.365043344e-01	-4.158450207e-02	3.221431708e-12
3.118000000e-01	1.365263198e-01	-4.157913470e-02	1.189660053e-11
3.119000000e-01	1.365483011e-01	-4.157377329e-02	1.629180407e-11
3.121000000e-01	1.365922512e-01	-4.156306837e-02	2.142421411e-12
3.122000000e-01	1.366142200e-01	-4.155772482e-02	1.656795047e-11
3.123000000e-01	1.366361846e-01	-4.155238720e-02	5.789332382e-12
3.125000000e-01	1.366801015e-01	-4.154172971e-02	8.778886064e-12
3.126000000e-01	1.367020537e-01	-4.153640981e-02	7.876294108e-12
3.129000000e-01	1.367678856e-01	-4.152048537e-02	9.342009226e-12
3.130000000e-01	1.367898214e-01	-4.151518893e-02	1.387036475e-12
3.131000000e-01	1.368117530e-01	-4.150989833e-02	1.051361085e-11
3.135000000e-01	1.368994386e-01	-4.148879411e-02	1.857593288e-12
3.136000000e-01	1.369213498e-01	-4.148353254e-02	1.165737564e-12
3.139000000e-01	1.369870590e-01	-4.146778244e-02	3.377925559e-12
3.140000000e-01	1.370089539e-01	-4.146254390e-02	5.948970070e-12
3.141000000e-01	1.370308448e-01	-4.145731109e-02	1.145431594e-11
3.142000000e-01	1.370527317e-01	-4.145208400e-02	2.859611365e-12
3.144000000e-01	1.370964932e-01	-4.144164695e-02	1.383315247e-11
3.147000000e-01	1.371621054e-01	-4.142603402e-02	6.270179080e-12
3.149000000e-01	1.372058267e-01	-4.141565371e-02	7.270530302e-12
3.150000000e-01	1.372276814e-01	-4.141047202e-02	1.182303363e-12
3.151000000e-01	1.372495321e-01	-4.140529596e-02	4.293972118e-12
3.152000000e-01	1.372713787e-01	-4.140012553e-02	1.091922325e-11
3.154000000e-01	1.373150601e-01	-4.138980147e-02	1.144538747e-12
3.157000000e-01	1.373805523e-01	-4.137435729e-02	1.380417279e-11
3.158000000e-01	1.374023751e-01	-4.136922037e-02	8.769924575e-13
3.159000000e-01	1.374241940e-01	-4.136408900e-02	1.070296242e-11
3.160000000e-01	1.374460088e-01	-4.135896317e-02	6.694051781e-12
3.163000000e-01	1.375114298e-01	-4.134361886e-02	8.504222717e-12
3.164000000e-01	1.375332289e-01	-4.133851511e-02	9.190280482e-12
3.165000000e-01	1.375550240e-01	-4.133341686e-02	9.991266307e-12
3.166000000e-01	1.375768153e-01	-4.132832410e-02	1.907611755e-12
3.167000000e-01	1.375986026e-01	-4.132323682e-02	6.394722175e-13
3.168000000e-01	1.376203860e-01	-4.131815500e-02	5.253505562e-12
3.169000000e-01	1.376421654e-01	-4.131307865e-02	1.236432723e-12
3.171000000e-01	1.376857127e-01	-4.130294229e-02	1.837555186e-12
3.172000000e-01	1.377074804e-01	-4.129788226e-02	2.024640689e-12
3.174000000e-01	1.377510042e-01	-4.128777848e-02	7.570625558e-12
3.175000000e-01	1.377727603e-01	-4.128273470e-02	1.195178862e-11
3.181000000e-01	1.379032152e-01	-4.125258510e-02	2.858630832e-12
3.183000000e-01	1.379466692e-01	-4.124257811e-02	1.282455210e-11
3.184000000e-01	1.379683905e-01	-4.123758261e-02	6.453427170e-13
3.185000000e-01	1.379901078e-01	-4.123259243e-02	5.750368704e-12
3.186000000e-01	1.380118214e-01	-4.122760757e-02	2.322332046e-12
3.187000000e-01	1.380335311e-01	-4.122262801e-02	3.775136693e-12
3.188000000e-01	1.380552369e-01	-4.121765375e-02	7.692586444e-13
3.189000000e-01	1.380769390e-01	-4.121268478e-02	1.229688780e-11
3.190000000e-01	1.380986372e-01	-4.120772109e-02	3.851809961e-12
3.193000000e-01	1.381637088e-01	-4.119286161e-02	1.052058258e-11
3.195000000e-01	1.382070709e-01	-4.118298155e-02	8.894422624e-12
3.200000000e-01	1.383154094e-01	-4.115837283e-02	9.197207625e-12
3.202000000e-01	1.383587182e-01	-4.114856575e-02	4.234967863e-12
3.203000000e-01	1.383803670e-01	-4.114366998e-02	5.874383155e-12
3.204000000e-01	1.384020120e-01	-4.113877937e-02	7.165768221e-12
3.205000000e-01	1.384236532e-01	-4.113389393e-02	2.783512445e-12
3.206000000e-01	1.384452906e-01	-4.112901365e-02	6.797651415e-13
3.208000000e-01	1.384885542e-01	-4.111926851e-02	6.922487635e-12
3.209000000e-01	1.385101803e-01	-4.111440364e-02	1.890373854e-12
3.210000000e-01	1.385318027e-01	-4.110954390e-02	1.077491304e-11
3.211000000e-01	1.385534214e-01	-4.110468927e-02	1.171288630e-11
3.212000000e-01	1.385750363e-01	-4.109983975e-02	1.177565111e-11
3.214000000e-01	1.386182548e-01	-4.109015601e-02	2.992584063e-12
3.216000000e-01	1.386614584e-01	-4.108049261e-02	7.826739163e-12
3.217000000e-01	1.386830546e-01	-4.107566853e-02	4.504718358e-12
3.219000000e-01	1.387262358e-01	-4.106603555e-02	4.675070165e-12
3.224000000e-01	1.388341238e-01	-4.104204134e-02	1.877984917e-12
3.225000000e-01	1.388556903e-01	-4.103725757e-02	2.682585289e-12
3.227000000e-01	1.388988121e-01	-4.102770504e-02	2.556002686e-12
3.229000000e-01	1.389419192e-01	-4.101817249e-02	1.561957932e-12
3.231000000e-01	1.389850115e-01	-4.100865986e-02	4.778049963e-12
3.233000000e-01	1.390280891e-01	-4.099916708e-02	7.799267353e-12
3.234000000e-01	1.390496223e-01	-4.099442813e-02	1.701525958e-12
3.236000000e-01	1.390926779e-01	-4.098496504e-02	6.259386132e-12
3.240000000e-01	1.391787449e-01	-4.096609798e-02	2.907306570e-12
3.241000000e-01	1.392002526e-01	-4.096139349e-02	7.940829614e-12
3.244000000e-01	1.392647536e-01	-4.094730938e-02	5.389969068e-12
3.248000000e-01	1.393507039e-01	-4.092859882e-02	6.132693138e-12
3.249000000e-01	1.393721824e-01	-4.092393332e-02	5.488258736e-12
3.250000000e-01	1.393936573e-01	-4.091927267e-02	4.613402037e-12
3.251000000e-01	1.394151285e-01	-4.091461685e-02	3.576884412e-12
3.253000000e-01	1.394580602e-01	-4.090531971e-02	4.053580539e-12
3.255000000e-01	1.395009774e-01	-4.089604184e-02	4.151039565e-12
3.256000000e-01	1.395224305e-01	-4.089141011e-02	6.744944824e-12
3.259000000e-01	1.395867684e-01	-4.087754371e-02	4.052329951e-13
3.262000000e-01	1.396510740e-01	-4.086372033e-02	5.036832022e-13
3.263000000e-01	1.396725020e-01	-4.085912206e-02	1.606493472e-12
3.264000000e-01	1.396939264e-01	-4.085452855e-02	1.525752416e-12
3.266000000e-01	1.397367644e-01	-4.084535578e-02	8.603204394e-13
3.268000000e-01	1.397795882e-01	-4.083620194e-02	1.357059783e-12
3.269000000e-01	1.398009947e-01	-4.083163212e-02	4.208645977e-12
3.270000000e-01	1.398223976e-01	-4.082706701e-02	3.206355821e-12
3.271000000e-01	1.398437970e-01	-4.082250661e-02	3.074843889e-12
3.272000000e-01	1.398651928e-01	-4.081795092e-02	1.939772802e-12
3.273000000e-01	1.398865850e-01	-4.081339992e-02	6.378230253e-12
3.274000000e-01	1.399079737e-01	-4.080885363e-02	4.729978008e-12
3.275000000e-01	1.399293589e-01	-4.080431201e-02	1.959754650e-12
3.276000000e-01	1.399507404e-01	-4.079977508e-02	1.478052818e-12
3.277000000e-01	1.399721185e-01	-4.079524283e-02	1.654597564e-12
3.278000000e-01	1.399934929e-01	-4.079071524e-02	6.532697658e-12
3.279000000e-01	1.400148639e-01	-4.078619232e-02	8.248870843e-12
3.281000000e-01	1.400575951e-01	-4.077716044e-02	8.958617443e-13
3.282000000e-01	1.400789554e-01	-4.077265147e-02	2.337363767e-12
3.283000000e-01	1.401003122e-01	-4.076814715e-02	4.696637279e-12
3.286000000e-01	1.401643613e-01	-4.075466194e-02	8.377979840e-13
3.288000000e-01	1.402070431e-01	-4.074569490e-02	1.618786752e-12
3.291000000e-01	1.402710394e-01	-4.073227885e-02	1.917401779e-12
3.292000000e-01	1.402923645e-01	-4.072781601e-02	4.825951531e-12
3.294000000e-01	1.403350041e-01	-4.071890409e-02	2.044546432e-12
3.296000000e-01	1.403776297e-01	-4.071001044e-02	5.259444481e-12
3.297000000e-01	1.403989373e-01	-4.070557045e-02	4.155904207e-12
3.302000000e-01	1.405054227e-01	-4.068343872e-02	1.927172799e-12
3.303000000e-01	1.405267093e-01	-4.067902597e-02	6.445815815e-13
3.304000000e-01	1.405479924e-01	-4.067461774e-02	1.170434642e-12
3.305000000e-01	1.405692720e-01	-4.067021403e-02	3.864525016e-12
3.306000000e-01	1.405905482e-01	-4.066581482e-02	1.396033221e-12
3.307000000e-01	1.406118209e-01	-4.066142011e-02	3.421908513e-12
3.309000000e-01	1.406543559e-01	-4.065264419e-02	1.192290725e-12
3.310000000e-01	1.406756182e-01	-4.064826296e-02	2.049875239e-12
3.312000000e-01	1.407181323e-01	-4.063951394e-02	1.980083619e-12
3.313000000e-01	1.407393842e-01	-4.063514613e-02	3.443318163e-12
3.314000000e-01	1.407606327e-01	-4.063078280e-02	4.993541658e-12
3.316000000e-01	1.408031192e-01	-4.062206949e-02	1.366498977e-12
3.317000000e-01	1.408243573e-01	-4.061771951e-02	1.131965484e-12
3.318000000e-01	1.408455919e-01	-4.061337398e-02	6.008122095e-12
3.319000000e-01	1.408668231e-01	-4.060903288e-02	1.867094839e-12
3.320000000e-01	1.408880508e-01	-4.060469621e-02	5.615743021e-12
3.322000000e-01	1.409304960e-01	-4.059603616e-02	1.863936565e-12
3.323000000e-01	1.409517134e-01	-4.059171276e-02	3.171758527e-12
3.325000000e-01	1.409941379e-01	-4.058307918e-02	6.232099879e-12
3.326000000e-01	1.410153451e-01	-4.057876900e-02	1.207302680e-12
3.327000000e-01	1.410365488e-01	-4.057446321e-02	3.483758529e-12
3.328000000e-01	1.410577490e-01	-4.057016181e-02	4.933867989e-12
3.329000000e-01	1.410789459e-01	-4.056586479e-02	1.174694435e-12
3.330000000e-01	1.411001393e-01	-4.056157216e-02	2.491411671e-12
3.331000000e-01	1.411213293e-01	-4.055728390e-02	1.447050192e-12
3.332000000e-01	1.411425159e-01	-4.055300001e-02	1.342235481e-12
3.335000000e-01	1.412060552e-01	-4.054017450e-02	2.926658859e-12
3.336000000e-01	1.412272282e-01	-4.053590803e-02	2.979908606e-12
3.339000000e-01	1.412907266e-01	-4.052313467e-02	6.606613050e-13
3.340000000e-01	1.413118860e-01	-4.051888554e-02	6.060636712e-12
3.341000000e-01	1.413330419e-01	-4.051464074e-02	8.301197148e-13
3.342000000e-01	1.413541945e-01	-4.051040026e-02	6.902364979e-13
3.344000000e-01	1.413964894e-01	-4.050193222e-02	8.022118082e-13
3.345000000e-01	1.414176318e-01	-4.049770466e-02	3.599294137e-12
3.346000000e-01	1.414387708e-01	-4.049348140e-02	2.694128692e-12
3.347000000e-01	1.414599064e-01	-4.048926243e-02	4.058646332e-13
3.348000000e-01	1.414810387e-01	-4.048504774e-02	4.913679685e-12
3.352000000e-01	1.415655338e-01	-4.046823179e-02	4.321188023e-12
3.353000000e-01	1.415866492e-01	-4.046403847e-02	2.783778742e-12
3.354000000e-01	1.416077612e-01	-4.045984941e-02	8.751344452e-13
3.357000000e-01	1.416710770e-01	-4.044730773e-02	3.850707953e-12
3.358000000e-01	1.416921756e-01	-4.044313565e-02	4.026924967e-12
3.359000000e-01	1.417132708e-01	-4.043896780e-02	1.126949302e-13
3.360000000e-01	1.417343626e-01	-4.043480419e-02	3.693130329e-12
3.361000000e-01	1.417554511e-01	-4.043064479e-02	4.079138075e-13
3.362000000e-01	1.417765362e-01	-4.042648962e-02	2.521503684e-12
3.363000000e-01	1.417976180e-01	-4.042233866e-02	1.173751779e-12
3.364000000e-01	1.418186964e-01	-4.041819191e-02	8.678219396e-13
3.365000000e-01	1.418397715e-01	-4.041404936e-02	4.094745059e-13
3.366000000e-01	1.418608433e-01	-4.040991102e-02	1.416481674e-12
3.367000000e-01	1.418819117e-01	-4.040577686e-02	4.289449069e-12
3.368000000e-01	1.419029767e-01	-4.040164690e-02	2.386098965e-12
3.369000000e-01	1.419240385e-01	-4.039752113e-02	2.490376180e-12
3.371000000e-01	1.419661519e-01	-4.038928211e-02	3.319940312e-12
3.372000000e-01	1.419872037e-01	-4.038516886e-02	3.371743681e-12
3.374000000e-01	1.420292972e-01	-4.037695486e-02	3.807191910e-12
3.375000000e-01	1.420503389e-01	-4.037285409e-02	7.675416617e-13
3.377000000e-01	1.420924125e-01	-4.036466502e-02	1.543353619e-12
3.378000000e-01	1.421134443e-01	-4.036057670e-02	4.911051818e-12
3.380000000e-01	1.421554979e-01	-4.035241246e-02	1.984815518e-12
3.382000000e-01	1.421975383e-01	-4.034426475e-02	2.815415846e-12
3.383000000e-01	1.422185536e-01	-4.034019707e-02	4.113888076e-13
3.387000000e-01	1.423025815e-01	-4.032396747e-02	1.251310795e-12
3.390000000e-01	1.423655678e-01	-4.031183830e-02	5.883188756e-13
3.391000000e-01	1.423865566e-01	-4.030780341e-02	2.028342699e-12
3.393000000e-01	1.424285244e-01	-4.029974587e-02	2.468233102e-12
3.395000000e-01	1.424704791e-01	-4.029170461e-02	1.747171400e-12
3.402000000e-01	1.426172172e-01	-4.026368787e-02	7.965717158e-13
3.403000000e-01	1.426381667e-01	-4.025970162e-02	2.138580348e-12
3.404000000e-01	1.426591129e-01	-4.025571941e-02	2.762761589e-12
3.407000000e-01	1.427219320e-01	-4.024379687e-02	9.269266258e-13
3.408000000e-01	1.427428652e-01	-4.023983071e-02	4.110571540e-13
3.410000000e-01	1.427847217e-01	-4.023191039e-02	1.397260751e-12
3.411000000e-01	1.428056451e-01	-4.022795622e-02	2.643334452e-12
3.412000000e-01	1.428265653e-01	-4.022400605e-02	1.442002784e-12
3.413000000e-01	1.428474822e-01	-4.022005985e-02	1.250716996e-12
3.414000000e-01	1.428683959e-01	-4.021611764e-02	1.807346003e-12
3.415000000e-01	1.428893063e-01	-4.021217941e-02	8.026262599e-13
3.417000000e-01	1.429311174e-01	-4.020431486e-02	1.787109635e-12
3.419000000e-01	1.429729155e-01	-4.019646616e-02	5.667307783e-13
3.420000000e-01	1.429938097e-01	-4.019254774e-02	2.129358634e-12
3.421000000e-01	1.430147007e-01	-4.018863327e-02	5.074504214e-13
3.422000000e-01	1.430355884e-01	-4.018472276e-02	2.467730306e-12
3.423000000e-01	1.430564729e-01	-4.018081618e-02	6.853625330e-13
3.424000000e-01	1.430773542e-01	-4.017691354e-02	3.674163669e-12
3.425000000e-01	1.430982322e-01	-4.017301484e-02	1.182300180e-12
3.427000000e-01	1.431399786e-01	-4.016522921e-02	6.473236348e-13
3.428000000e-01	1.431608470e-01	-4.016134228e-02	2.036777998e-12
3.429000000e-01	1.431817122e-01	-4.015745927e-02	5.680830910e-13
3.430000000e-01	1.432025741e-01	-4.015358017e-02	2.343010455e-12
3.434000000e-01	1.432859897e-01	-4.013810282e-02	1.020885748e-12
3.436000000e-01	1.433276782e-01	-4.013038751e-02	2.125969146e-12
3.437000000e-01	1.433485177e-01	-4.012653568e-02	6.714711108e-13
3.439000000e-01	1.433901870e-01	-4.011884365e-02	3.463687578e-13
3.441000000e-01	1.434318435e-01	-4.011116711e-02	4.820412229e-13
3.442000000e-01	1.434526670e-01	-4.010733464e-02	1.521096039e-12
3.444000000e-01	1.434943043e-01	-4.009968126e-02	6.996652811e-13
3.446000000e-01	1.435359288e-01	-4.009204329e-02	5.249066568e-13
3.447000000e-01	1.435567363e-01	-4.008823007e-02	1.417961274e-12
3.448000000e-01	1.435775406e-01	-4.008442068e-02	4.249782880e-13
3.449000000e-01	1.435983417e-01	-4.008061513e-02	2.078249056e-12
3.450000000e-01	1.436191397e-01	-4.007681341e-02	1.618532785e-12
3.451000000e-01	1.436399344e-01	-4.007301552e-02	3.568645129e-13
3.452000000e-01	1.436607260e-01	-4.006922145e-02	2.323342110e-12
3.453000000e-01	1.436815144e-01	-4.006543119e-02	1.199890187e-12
3.455000000e-01	1.437230817e-01	-4.005786212e-02	9.342401390e-13
3.456000000e-01	1.437438606e-01	-4.005408330e-02	5.860990178e-13
3.458000000e-01	1.437854088e-01	-4.004653705e-02	7.169714275e-13
3.459000000e-01	1.438061782e-01	-4.004276962e-02	2.386810407e-12
3.460000000e-01	1.438269444e-01	-4.003900598e-02	8.428943658e-13
