# mu [eV]     Omega/c [1/micrones]    Im(epsi1)     Eq(det).Opt det con kz, R=0.5 \mum, Re(epsi1)=3.90, kz = 0.5000 1/\mum, solve_det_conkz_vs_mu.py
3.000000000e-01	1.018467890e+01	-4.226061052e-01	4.527684904e-16
3.001000000e-01	1.018467880e+01	-4.226060963e-01	4.022727086e-16
3.002000000e-01	1.018467870e+01	-4.226060874e-01	5.808961402e-16
3.003000000e-01	1.018467860e+01	-4.226060785e-01	4.471836856e-16
3.004000000e-01	1.018467850e+01	-4.226060696e-01	4.291543150e-16
3.005000000e-01	1.018467840e+01	-4.226060607e-01	2.873074327e-16
3.006000000e-01	1.018467830e+01	-4.226060519e-01	2.597213874e-16
3.007000000e-01	1.018467820e+01	-4.226060430e-01	4.443889475e-16
3.008000000e-01	1.018467810e+01	-4.226060341e-01	4.456380932e-16
3.009000000e-01	1.018467800e+01	-4.226060252e-01	3.980164231e-16
3.010000000e-01	1.018467790e+01	-4.226060164e-01	3.682888409e-16
3.011000000e-01	1.018467780e+01	-4.226060075e-01	4.393207507e-16
3.012000000e-01	1.018467770e+01	-4.226059986e-01	3.885965173e-16
3.013000000e-01	1.018467760e+01	-4.226059898e-01	4.261768017e-16
3.014000000e-01	1.018467750e+01	-4.226059809e-01	2.003884474e-16
3.015000000e-01	1.018467740e+01	-4.226059720e-01	5.057367459e-16
3.016000000e-01	1.018467730e+01	-4.226059632e-01	5.151367319e-16
3.017000000e-01	1.018467720e+01	-4.226059543e-01	4.027529569e-16
3.018000000e-01	1.018467710e+01	-4.226059455e-01	4.245022167e-16
3.019000000e-01	1.018467699e+01	-4.226059366e-01	4.541346463e-16
3.020000000e-01	1.018467689e+01	-4.226059278e-01	5.374486614e-16
3.021000000e-01	1.018467679e+01	-4.226059189e-01	5.869606922e-16
3.022000000e-01	1.018467669e+01	-4.226059101e-01	2.039863235e-16
3.023000000e-01	1.018467659e+01	-4.226059013e-01	2.521941762e-16
3.024000000e-01	1.018467649e+01	-4.226058924e-01	3.312168326e-16
3.025000000e-01	1.018467639e+01	-4.226058836e-01	4.501418509e-16
3.026000000e-01	1.018467629e+01	-4.226058747e-01	7.533106578e-16
3.027000000e-01	1.018467618e+01	-4.226058659e-01	5.985201677e-16
3.028000000e-01	1.018467608e+01	-4.226058571e-01	3.091184687e-16
3.029000000e-01	1.018467598e+01	-4.226058483e-01	4.152781689e-16
3.030000000e-01	1.018467588e+01	-4.226058394e-01	3.657928305e-16
3.031000000e-01	1.018467578e+01	-4.226058306e-01	4.571341946e-16
3.032000000e-01	1.018467567e+01	-4.226058218e-01	4.933041383e-16
3.033000000e-01	1.018467557e+01	-4.226058130e-01	5.045433826e-16
3.034000000e-01	1.018467547e+01	-4.226058042e-01	4.710965584e-16
3.035000000e-01	1.018467537e+01	-4.226057954e-01	5.062650468e-16
3.036000000e-01	1.018467527e+01	-4.226057865e-01	6.033809593e-16
3.037000000e-01	1.018467516e+01	-4.226057777e-01	3.119261054e-16
3.038000000e-01	1.018467506e+01	-4.226057689e-01	5.260677569e-16
3.039000000e-01	1.018467496e+01	-4.226057601e-01	3.230224737e-16
3.040000000e-01	1.018467486e+01	-4.226057513e-01	4.340284876e-16
3.041000000e-01	1.018467475e+01	-4.226057425e-01	4.555627936e-16
3.042000000e-01	1.018467465e+01	-4.226057337e-01	5.153823449e-16
3.043000000e-01	1.018467455e+01	-4.226057250e-01	4.803076381e-16
3.044000000e-01	1.018467445e+01	-4.226057162e-01	1.475435037e-16
3.045000000e-01	1.018467434e+01	-4.226057074e-01	3.683354548e-16
3.046000000e-01	1.018467424e+01	-4.226056986e-01	5.361725591e-16
3.047000000e-01	1.018467414e+01	-4.226056898e-01	5.744054902e-16
3.048000000e-01	1.018467403e+01	-4.226056810e-01	4.000822048e-16
3.049000000e-01	1.018467393e+01	-4.226056722e-01	5.994523086e-16
3.050000000e-01	1.018467383e+01	-4.226056635e-01	3.155771817e-16
3.051000000e-01	1.018467372e+01	-4.226056547e-01	2.943617276e-16
3.052000000e-01	1.018467362e+01	-4.226056459e-01	7.125106785e-16
3.053000000e-01	1.018467352e+01	-4.226056372e-01	4.891674102e-16
3.054000000e-01	1.018467341e+01	-4.226056284e-01	4.058585017e-16
3.055000000e-01	1.018467331e+01	-4.226056196e-01	5.209147963e-16
3.056000000e-01	1.018467321e+01	-4.226056109e-01	6.390676974e-16
3.057000000e-01	1.018467310e+01	-4.226056021e-01	4.688419112e-16
3.058000000e-01	1.018467300e+01	-4.226055934e-01	2.467409462e-16
3.059000000e-01	1.018467290e+01	-4.226055846e-01	6.344530607e-16
3.060000000e-01	1.018467279e+01	-4.226055759e-01	3.550784683e-16
3.061000000e-01	1.018467269e+01	-4.226055671e-01	6.820776001e-16
3.062000000e-01	1.018467258e+01	-4.226055584e-01	4.168885793e-16
3.063000000e-01	1.018467248e+01	-4.226055496e-01	3.655032613e-16
3.064000000e-01	1.018467237e+01	-4.226055409e-01	5.438501067e-16
3.065000000e-01	1.018467227e+01	-4.226055321e-01	3.940217863e-16
3.066000000e-01	1.018467217e+01	-4.226055234e-01	2.313121769e-16
3.067000000e-01	1.018467206e+01	-4.226055147e-01	3.496923736e-16
3.068000000e-01	1.018467196e+01	-4.226055059e-01	4.276654865e-16
3.069000000e-01	1.018467185e+01	-4.226054972e-01	3.632107237e-16
3.070000000e-01	1.018467175e+01	-4.226054885e-01	5.269175371e-16
3.071000000e-01	1.018467164e+01	-4.226054798e-01	3.232772930e-16
3.072000000e-01	1.018467154e+01	-4.226054710e-01	5.493811400e-16
3.073000000e-01	1.018467143e+01	-4.226054623e-01	4.060640714e-16
3.074000000e-01	1.018467133e+01	-4.226054536e-01	4.653586008e-16
3.075000000e-01	1.018467122e+01	-4.226054449e-01	2.334447298e-16
3.076000000e-01	1.018467112e+01	-4.226054362e-01	3.721357191e-16
3.077000000e-01	1.018467101e+01	-4.226054275e-01	4.611929710e-16
3.078000000e-01	1.018467091e+01	-4.226054188e-01	3.615577093e-16
3.079000000e-01	1.018467080e+01	-4.226054101e-01	5.068996363e-16
3.080000000e-01	1.018467070e+01	-4.226054014e-01	5.336851257e-16
3.081000000e-01	1.018467059e+01	-4.226053927e-01	3.127570951e-16
3.082000000e-01	1.018467049e+01	-4.226053840e-01	7.739880223e-16
3.083000000e-01	1.018467038e+01	-4.226053753e-01	3.821093160e-16
3.084000000e-01	1.018467027e+01	-4.226053666e-01	3.463913629e-16
3.085000000e-01	1.018467017e+01	-4.226053579e-01	5.615463650e-16
3.086000000e-01	1.018467006e+01	-4.226053492e-01	5.497258150e-16
3.087000000e-01	1.018466996e+01	-4.226053405e-01	4.150798433e-16
3.088000000e-01	1.018466985e+01	-4.226053318e-01	5.826167143e-16
3.089000000e-01	1.018466974e+01	-4.226053232e-01	3.113590587e-16
3.090000000e-01	1.018466964e+01	-4.226053145e-01	3.136228742e-16
3.091000000e-01	1.018466953e+01	-4.226053058e-01	6.921147857e-16
3.092000000e-01	1.018466943e+01	-4.226052971e-01	3.709192259e-16
3.093000000e-01	1.018466932e+01	-4.226052885e-01	3.133222289e-16
3.094000000e-01	1.018466921e+01	-4.226052798e-01	4.248510524e-16
3.095000000e-01	1.018466911e+01	-4.226052711e-01	5.383303907e-16
3.096000000e-01	1.018466900e+01	-4.226052625e-01	5.140796743e-16
3.097000000e-01	1.018466889e+01	-4.226052538e-01	3.554337392e-16
3.098000000e-01	1.018466879e+01	-4.226052452e-01	3.984540014e-16
3.099000000e-01	1.018466868e+01	-4.226052365e-01	4.722676114e-16
3.100000000e-01	1.018466857e+01	-4.226052279e-01	2.159716162e-16
3.101000000e-01	1.018466846e+01	-4.226052192e-01	3.564036240e-16
3.102000000e-01	1.018466836e+01	-4.226052106e-01	4.797674313e-16
3.103000000e-01	1.018466825e+01	-4.226052019e-01	4.279790117e-16
3.104000000e-01	1.018466814e+01	-4.226051933e-01	2.646841802e-16
3.105000000e-01	1.018466804e+01	-4.226051846e-01	5.248386859e-16
3.106000000e-01	1.018466793e+01	-4.226051760e-01	5.381038907e-16
3.107000000e-01	1.018466782e+01	-4.226051674e-01	4.451527417e-16
3.108000000e-01	1.018466771e+01	-4.226051587e-01	3.280933296e-16
3.109000000e-01	1.018466761e+01	-4.226051501e-01	4.389018080e-16
3.110000000e-01	1.018466750e+01	-4.226051415e-01	3.713427264e-16
3.111000000e-01	1.018466739e+01	-4.226051328e-01	3.573069426e-16
3.112000000e-01	1.018466728e+01	-4.226051242e-01	3.621292444e-16
3.113000000e-01	1.018466717e+01	-4.226051156e-01	4.887835271e-16
3.114000000e-01	1.018466707e+01	-4.226051070e-01	3.990744333e-16
3.115000000e-01	1.018466696e+01	-4.226050984e-01	3.990221476e-16
3.116000000e-01	1.018466685e+01	-4.226050898e-01	5.370442061e-16
3.117000000e-01	1.018466674e+01	-4.226050812e-01	4.660116138e-16
3.118000000e-01	1.018466663e+01	-4.226050725e-01	4.783361238e-16
3.119000000e-01	1.018466653e+01	-4.226050639e-01	3.756267579e-16
3.120000000e-01	1.018466642e+01	-4.226050553e-01	5.413248927e-16
3.121000000e-01	1.018466631e+01	-4.226050467e-01	5.919250478e-16
3.122000000e-01	1.018466620e+01	-4.226050381e-01	4.803540779e-16
3.123000000e-01	1.018466609e+01	-4.226050296e-01	4.004182639e-16
3.124000000e-01	1.018466598e+01	-4.226050210e-01	7.467302477e-16
3.125000000e-01	1.018466587e+01	-4.226050124e-01	1.576559131e-16
3.126000000e-01	1.018466576e+01	-4.226050038e-01	5.546580231e-16
3.127000000e-01	1.018466566e+01	-4.226049952e-01	5.093857353e-16
3.128000000e-01	1.018466555e+01	-4.226049866e-01	2.365462124e-16
3.129000000e-01	1.018466544e+01	-4.226049780e-01	3.874460428e-16
3.130000000e-01	1.018466533e+01	-4.226049695e-01	5.795309226e-16
3.131000000e-01	1.018466522e+01	-4.226049609e-01	4.898137947e-16
3.132000000e-01	1.018466511e+01	-4.226049523e-01	3.983001274e-16
3.133000000e-01	1.018466500e+01	-4.226049438e-01	4.309987251e-16
3.134000000e-01	1.018466489e+01	-4.226049352e-01	5.075705872e-16
3.135000000e-01	1.018466478e+01	-4.226049266e-01	4.685384248e-16
3.136000000e-01	1.018466467e+01	-4.226049181e-01	5.414533400e-16
3.137000000e-01	1.018466456e+01	-4.226049095e-01	3.464828954e-16
3.138000000e-01	1.018466445e+01	-4.226049010e-01	7.933272577e-16
3.139000000e-01	1.018466434e+01	-4.226048924e-01	5.148436962e-16
3.140000000e-01	1.018466423e+01	-4.226048838e-01	5.825392498e-16
3.141000000e-01	1.018466412e+01	-4.226048753e-01	4.198470380e-16
3.142000000e-01	1.018466401e+01	-4.226048668e-01	4.810453354e-16
3.143000000e-01	1.018466390e+01	-4.226048582e-01	4.863567618e-16
3.144000000e-01	1.018466379e+01	-4.226048497e-01	4.472865158e-16
3.145000000e-01	1.018466368e+01	-4.226048411e-01	2.239702678e-16
3.146000000e-01	1.018466357e+01	-4.226048326e-01	5.722448257e-16
3.147000000e-01	1.018466346e+01	-4.226048241e-01	5.231916546e-16
3.148000000e-01	1.018466335e+01	-4.226048155e-01	4.190366107e-16
3.149000000e-01	1.018466324e+01	-4.226048070e-01	4.954779513e-16
3.150000000e-01	1.018466313e+01	-4.226047985e-01	3.580065928e-16
3.151000000e-01	1.018466302e+01	-4.226047900e-01	4.565010668e-16
3.152000000e-01	1.018466291e+01	-4.226047814e-01	7.084418977e-16
3.153000000e-01	1.018466279e+01	-4.226047729e-01	3.826339074e-16
3.154000000e-01	1.018466268e+01	-4.226047644e-01	5.712715034e-16
3.155000000e-01	1.018466257e+01	-4.226047559e-01	3.872180915e-16
3.156000000e-01	1.018466246e+01	-4.226047474e-01	5.416222766e-16
3.157000000e-01	1.018466235e+01	-4.226047389e-01	4.647761503e-16
3.158000000e-01	1.018466224e+01	-4.226047304e-01	4.086031137e-16
3.159000000e-01	1.018466213e+01	-4.226047219e-01	4.443672971e-16
3.160000000e-01	1.018466202e+01	-4.226047134e-01	2.931937371e-16
3.161000000e-01	1.018466190e+01	-4.226047049e-01	3.242926164e-16
3.162000000e-01	1.018466179e+01	-4.226046964e-01	5.091348708e-16
3.163000000e-01	1.018466168e+01	-4.226046879e-01	2.148591066e-16
3.164000000e-01	1.018466157e+01	-4.226046794e-01	3.680065946e-16
3.165000000e-01	1.018466146e+01	-4.226046709e-01	3.067065356e-16
3.166000000e-01	1.018466134e+01	-4.226046624e-01	3.825334900e-16
3.167000000e-01	1.018466123e+01	-4.226046540e-01	2.835302262e-16
3.168000000e-01	1.018466112e+01	-4.226046455e-01	7.599434554e-16
3.169000000e-01	1.018466101e+01	-4.226046370e-01	2.606593104e-16
3.170000000e-01	1.018466090e+01	-4.226046285e-01	3.896005483e-16
3.171000000e-01	1.018466078e+01	-4.226046201e-01	5.075723668e-16
3.172000000e-01	1.018466067e+01	-4.226046116e-01	5.793575375e-16
3.173000000e-01	1.018466056e+01	-4.226046031e-01	2.121195420e-16
3.174000000e-01	1.018466045e+01	-4.226045947e-01	3.199820736e-16
3.175000000e-01	1.018466033e+01	-4.226045862e-01	2.659027862e-16
3.176000000e-01	1.018466022e+01	-4.226045777e-01	5.596305254e-16
3.177000000e-01	1.018466011e+01	-4.226045693e-01	4.219720426e-16
3.178000000e-01	1.018465999e+01	-4.226045608e-01	6.423055121e-16
3.179000000e-01	1.018465988e+01	-4.226045524e-01	4.211591409e-16
3.180000000e-01	1.018465977e+01	-4.226045439e-01	4.962694834e-16
3.181000000e-01	1.018465966e+01	-4.226045355e-01	5.273917810e-16
3.182000000e-01	1.018465954e+01	-4.226045270e-01	4.391515163e-16
3.183000000e-01	1.018465943e+01	-4.226045186e-01	4.462823063e-16
3.184000000e-01	1.018465932e+01	-4.226045102e-01	3.294852893e-16
3.185000000e-01	1.018465920e+01	-4.226045017e-01	4.037952891e-16
3.186000000e-01	1.018465909e+01	-4.226044933e-01	7.627743487e-16
3.187000000e-01	1.018465898e+01	-4.226044849e-01	3.656615881e-16
3.188000000e-01	1.018465886e+01	-4.226044765e-01	3.548618520e-16
3.189000000e-01	1.018465875e+01	-4.226044680e-01	3.558389535e-16
3.190000000e-01	1.018465863e+01	-4.226044596e-01	2.421724783e-16
3.191000000e-01	1.018465852e+01	-4.226044512e-01	4.381145684e-16
3.192000000e-01	1.018465841e+01	-4.226044428e-01	4.359892052e-16
3.193000000e-01	1.018465829e+01	-4.226044344e-01	5.597477280e-16
3.194000000e-01	1.018465818e+01	-4.226044259e-01	5.735785305e-16
3.195000000e-01	1.018465806e+01	-4.226044175e-01	6.670009765e-16
3.196000000e-01	1.018465795e+01	-4.226044091e-01	5.037713731e-16
3.197000000e-01	1.018465783e+01	-4.226044007e-01	2.957571565e-16
3.198000000e-01	1.018465772e+01	-4.226043923e-01	3.621760467e-16
3.199000000e-01	1.018465761e+01	-4.226043839e-01	3.332884965e-16
3.200000000e-01	1.018465749e+01	-4.226043755e-01	4.073295713e-16
3.201000000e-01	1.018465738e+01	-4.226043671e-01	3.580996978e-16
3.202000000e-01	1.018465726e+01	-4.226043588e-01	5.886302973e-16
3.203000000e-01	1.018465715e+01	-4.226043504e-01	3.143490576e-16
3.204000000e-01	1.018465703e+01	-4.226043420e-01	3.345394960e-16
3.205000000e-01	1.018465692e+01	-4.226043336e-01	4.654364624e-16
3.206000000e-01	1.018465680e+01	-4.226043252e-01	4.090674651e-16
3.207000000e-01	1.018465669e+01	-4.226043168e-01	5.689164066e-16
3.208000000e-01	1.018465657e+01	-4.226043085e-01	5.690107360e-16
3.209000000e-01	1.018465646e+01	-4.226043001e-01	5.692848660e-16
3.210000000e-01	1.018465634e+01	-4.226042917e-01	4.414990376e-16
3.211000000e-01	1.018465622e+01	-4.226042834e-01	2.841899461e-16
3.212000000e-01	1.018465611e+01	-4.226042750e-01	4.900424610e-16
3.213000000e-01	1.018465599e+01	-4.226042666e-01	4.596584500e-16
3.214000000e-01	1.018465588e+01	-4.226042583e-01	3.914465016e-16
3.215000000e-01	1.018465576e+01	-4.226042499e-01	4.258914010e-16
3.216000000e-01	1.018465565e+01	-4.226042416e-01	2.429593375e-16
3.217000000e-01	1.018465553e+01	-4.226042332e-01	4.789171319e-16
3.218000000e-01	1.018465541e+01	-4.226042249e-01	5.670985937e-16
3.219000000e-01	1.018465530e+01	-4.226042165e-01	7.844968672e-16
3.220000000e-01	1.018465518e+01	-4.226042082e-01	4.614670950e-16
3.221000000e-01	1.018465507e+01	-4.226041999e-01	4.951734221e-16
3.222000000e-01	1.018465495e+01	-4.226041915e-01	6.973537727e-16
3.223000000e-01	1.018465483e+01	-4.226041832e-01	7.302048766e-16
3.224000000e-01	1.018465472e+01	-4.226041749e-01	2.551112034e-16
3.225000000e-01	1.018465460e+01	-4.226041665e-01	5.753618110e-16
3.226000000e-01	1.018465448e+01	-4.226041582e-01	5.524995707e-16
3.227000000e-01	1.018465437e+01	-4.226041499e-01	1.742865453e-16
3.228000000e-01	1.018465425e+01	-4.226041416e-01	3.723454839e-16
3.229000000e-01	1.018465413e+01	-4.226041332e-01	4.176377800e-16
3.230000000e-01	1.018465401e+01	-4.226041249e-01	5.234461316e-16
3.231000000e-01	1.018465390e+01	-4.226041166e-01	3.568021610e-16
3.232000000e-01	1.018465378e+01	-4.226041083e-01	5.454798597e-16
3.233000000e-01	1.018465366e+01	-4.226041000e-01	4.164275375e-16
3.234000000e-01	1.018465355e+01	-4.226040917e-01	4.206672740e-16
3.235000000e-01	1.018465343e+01	-4.226040834e-01	4.471748655e-16
3.236000000e-01	1.018465331e+01	-4.226040751e-01	3.565334414e-16
3.237000000e-01	1.018465319e+01	-4.226040668e-01	4.301894084e-16
3.238000000e-01	1.018465308e+01	-4.226040585e-01	5.156535963e-16
3.239000000e-01	1.018465296e+01	-4.226040502e-01	4.268443446e-16
3.240000000e-01	1.018465284e+01	-4.226040419e-01	1.792873221e-16
3.241000000e-01	1.018465272e+01	-4.226040336e-01	5.480574173e-16
3.242000000e-01	1.018465260e+01	-4.226040253e-01	3.641849446e-16
3.243000000e-01	1.018465249e+01	-4.226040171e-01	4.005821614e-16
3.244000000e-01	1.018465237e+01	-4.226040088e-01	2.898341146e-16
3.245000000e-01	1.018465225e+01	-4.226040005e-01	4.204468610e-16
3.246000000e-01	1.018465213e+01	-4.226039922e-01	3.808112431e-16
3.247000000e-01	1.018465201e+01	-4.226039840e-01	3.909686336e-16
3.248000000e-01	1.018465189e+01	-4.226039757e-01	4.009634172e-16
3.249000000e-01	1.018465178e+01	-4.226039674e-01	4.969863802e-16
3.250000000e-01	1.018465166e+01	-4.226039592e-01	5.546429912e-16
3.251000000e-01	1.018465154e+01	-4.226039509e-01	3.111443472e-16
3.252000000e-01	1.018465142e+01	-4.226039427e-01	4.737096947e-16
3.253000000e-01	1.018465130e+01	-4.226039344e-01	2.465408286e-16
3.254000000e-01	1.018465118e+01	-4.226039262e-01	3.689970649e-16
3.255000000e-01	1.018465106e+01	-4.226039179e-01	7.579972203e-16
3.256000000e-01	1.018465094e+01	-4.226039097e-01	5.326598792e-16
3.257000000e-01	1.018465082e+01	-4.226039014e-01	3.498740139e-16
3.258000000e-01	1.018465071e+01	-4.226038932e-01	2.452375346e-16
3.259000000e-01	1.018465059e+01	-4.226038849e-01	3.918061317e-16
3.260000000e-01	1.018465047e+01	-4.226038767e-01	3.284109049e-16
3.261000000e-01	1.018465035e+01	-4.226038685e-01	3.280006418e-16
3.262000000e-01	1.018465023e+01	-4.226038602e-01	5.048325052e-16
3.263000000e-01	1.018465011e+01	-4.226038520e-01	2.833695441e-16
3.264000000e-01	1.018464999e+01	-4.226038438e-01	4.924610384e-16
3.265000000e-01	1.018464987e+01	-4.226038356e-01	5.927777598e-16
3.266000000e-01	1.018464975e+01	-4.226038274e-01	3.812827702e-16
3.267000000e-01	1.018464963e+01	-4.226038191e-01	2.347008995e-16
3.268000000e-01	1.018464951e+01	-4.226038109e-01	6.230769123e-16
3.269000000e-01	1.018464939e+01	-4.226038027e-01	7.481070426e-16
3.270000000e-01	1.018464927e+01	-4.226037945e-01	4.570452011e-16
3.271000000e-01	1.018464915e+01	-4.226037863e-01	5.883738068e-16
3.272000000e-01	1.018464903e+01	-4.226037781e-01	6.250297711e-16
3.273000000e-01	1.018464891e+01	-4.226037699e-01	5.054772166e-16
3.274000000e-01	1.018464879e+01	-4.226037617e-01	3.068274857e-16
3.275000000e-01	1.018464867e+01	-4.226037535e-01	5.117457846e-16
3.276000000e-01	1.018464854e+01	-4.226037453e-01	3.294287521e-16
3.277000000e-01	1.018464842e+01	-4.226037371e-01	5.942854577e-16
3.278000000e-01	1.018464830e+01	-4.226037289e-01	5.479555489e-16
3.279000000e-01	1.018464818e+01	-4.226037208e-01	5.907080564e-16
3.280000000e-01	1.018464806e+01	-4.226037126e-01	4.546894973e-16
3.281000000e-01	1.018464794e+01	-4.226037044e-01	4.828105907e-16
3.282000000e-01	1.018464782e+01	-4.226036962e-01	4.483134363e-16
3.283000000e-01	1.018464770e+01	-4.226036881e-01	4.939010168e-16
3.284000000e-01	1.018464758e+01	-4.226036799e-01	4.557262727e-16
3.285000000e-01	1.018464745e+01	-4.226036717e-01	3.924519722e-16
3.286000000e-01	1.018464733e+01	-4.226036636e-01	5.459085648e-16
3.287000000e-01	1.018464721e+01	-4.226036554e-01	1.264008561e-16
3.288000000e-01	1.018464709e+01	-4.226036472e-01	5.823679669e-16
3.289000000e-01	1.018464697e+01	-4.226036391e-01	4.331145740e-16
3.290000000e-01	1.018464685e+01	-4.226036309e-01	4.349861814e-16
3.291000000e-01	1.018464672e+01	-4.226036228e-01	4.533422294e-16
3.292000000e-01	1.018464660e+01	-4.226036146e-01	4.433008157e-16
3.293000000e-01	1.018464648e+01	-4.226036065e-01	6.596899026e-16
3.294000000e-01	1.018464636e+01	-4.226035983e-01	6.136074921e-16
3.295000000e-01	1.018464624e+01	-4.226035902e-01	7.511407464e-16
3.296000000e-01	1.018464611e+01	-4.226035821e-01	6.816876725e-16
3.297000000e-01	1.018464599e+01	-4.226035739e-01	2.226909942e-16
3.298000000e-01	1.018464587e+01	-4.226035658e-01	6.855619690e-16
3.299000000e-01	1.018464575e+01	-4.226035577e-01	3.843760521e-16
3.300000000e-01	1.018464562e+01	-4.226035495e-01	5.025339877e-16
3.301000000e-01	1.018464550e+01	-4.226035414e-01	5.197497941e-16
3.302000000e-01	1.018464538e+01	-4.226035333e-01	5.268537188e-16
3.303000000e-01	1.018464525e+01	-4.226035252e-01	6.837327499e-16
3.304000000e-01	1.018464513e+01	-4.226035171e-01	5.433969699e-16
