# mu [eV]     Omega/c [1/micrones]    Im(epsi1)     Eq(det).Opt det con kz, R=0.5 \mum, Re(epsi1)=3.90, kz = 0.1000 1/\mum, solve_det_conkz_vs_mu.py
3.000000000e-01	2.678574550e-01	-2.985554807e-02	2.139561358e-12
3.001000000e-01	2.679023504e-01	-2.984336370e-02	1.234668769e-12
3.002000000e-01	2.679472382e-01	-2.983118917e-02	2.456277977e-12
3.005000000e-01	2.680818564e-01	-2.979472446e-02	1.753906117e-12
3.006000000e-01	2.681267141e-01	-2.978258914e-02	1.480593879e-12
3.007000000e-01	2.681715642e-01	-2.977046359e-02	2.674121975e-12
3.008000000e-01	2.682164068e-01	-2.975834781e-02	3.403330265e-12
3.010000000e-01	2.683060694e-01	-2.973414550e-02	4.217155487e-12
3.011000000e-01	2.683508894e-01	-2.972205894e-02	3.302383683e-12
3.012000000e-01	2.683957019e-01	-2.970998209e-02	3.237500896e-12
3.014000000e-01	2.684853044e-01	-2.968585752e-02	4.727919224e-12
3.015000000e-01	2.685300943e-01	-2.967380977e-02	1.816569415e-12
3.016000000e-01	2.685748768e-01	-2.966177169e-02	2.565060519e-12
3.018000000e-01	2.686644193e-01	-2.963772450e-02	8.511918837e-13
3.019000000e-01	2.687091793e-01	-2.962571537e-02	2.915443067e-13
3.020000000e-01	2.687539318e-01	-2.961371587e-02	1.860395074e-12
3.021000000e-01	2.687986768e-01	-2.960172599e-02	6.906184872e-13
3.024000000e-01	2.689328671e-01	-2.956581394e-02	1.412006591e-12
3.025000000e-01	2.689775822e-01	-2.955386242e-02	7.381975196e-13
3.026000000e-01	2.690222899e-01	-2.954192047e-02	1.480687400e-12
3.027000000e-01	2.690669901e-01	-2.952998806e-02	5.416010012e-12
3.028000000e-01	2.691116829e-01	-2.951806520e-02	2.164953843e-12
3.029000000e-01	2.691563682e-01	-2.950615186e-02	1.753410347e-12
3.030000000e-01	2.692010461e-01	-2.949424805e-02	1.225729559e-12
3.032000000e-01	2.692903794e-01	-2.947046893e-02	1.522283928e-12
3.034000000e-01	2.693796831e-01	-2.944672775e-02	1.792150277e-13
3.035000000e-01	2.694243238e-01	-2.943487137e-02	3.936212479e-13
3.036000000e-01	2.694689570e-01	-2.942302444e-02	3.724155033e-13
3.038000000e-01	2.695582013e-01	-2.939935889e-02	2.658789441e-12
3.039000000e-01	2.696028123e-01	-2.938754026e-02	2.803731007e-12
3.040000000e-01	2.696474158e-01	-2.937573103e-02	3.560150866e-12
3.041000000e-01	2.696920120e-01	-2.936393121e-02	3.848105363e-12
3.042000000e-01	2.697366008e-01	-2.935214077e-02	1.411715119e-12
3.043000000e-01	2.697811821e-01	-2.934035971e-02	2.394434270e-12
3.044000000e-01	2.698257561e-01	-2.932858802e-02	4.037218226e-12
3.045000000e-01	2.698703227e-01	-2.931682569e-02	1.845889481e-12
3.046000000e-01	2.699148819e-01	-2.930507270e-02	2.688791716e-12
3.047000000e-01	2.699594337e-01	-2.929332905e-02	2.487326378e-12
3.048000000e-01	2.700039781e-01	-2.928159472e-02	1.610006071e-12
3.049000000e-01	2.700485151e-01	-2.926986971e-02	6.593850468e-13
3.051000000e-01	2.701375671e-01	-2.924644759e-02	2.161055638e-12
3.052000000e-01	2.701820820e-01	-2.923475045e-02	2.035857929e-12
3.053000000e-01	2.702265896e-01	-2.922306259e-02	2.325560802e-12
3.054000000e-01	2.702710898e-01	-2.921138399e-02	8.686706001e-13
3.056000000e-01	2.703600681e-01	-2.918805454e-02	5.208780610e-12
3.057000000e-01	2.704045462e-01	-2.917640366e-02	1.240684064e-12
3.058000000e-01	2.704490170e-01	-2.916476200e-02	9.700354168e-14
3.060000000e-01	2.705379366e-01	-2.914150630e-02	8.424248282e-13
3.061000000e-01	2.705823854e-01	-2.912989223e-02	3.937738130e-13
3.062000000e-01	2.706268268e-01	-2.911828735e-02	2.491448848e-12
3.063000000e-01	2.706712609e-01	-2.910669163e-02	1.224516965e-12
3.064000000e-01	2.707156877e-01	-2.909510507e-02	5.276715000e-13
3.068000000e-01	2.708933217e-01	-2.904885018e-02	5.564067535e-13
3.069000000e-01	2.709377119e-01	-2.903730924e-02	2.959105355e-12
3.070000000e-01	2.709820948e-01	-2.902577740e-02	2.319485217e-12
3.072000000e-01	2.710708388e-01	-2.900274097e-02	1.107971101e-13
3.073000000e-01	2.711151998e-01	-2.899123635e-02	1.427728104e-12
3.076000000e-01	2.712482391e-01	-2.895677678e-02	4.439352648e-12
3.078000000e-01	2.713368957e-01	-2.893384887e-02	2.883365933e-12
3.079000000e-01	2.713812130e-01	-2.892239842e-02	6.771542358e-12
3.080000000e-01	2.714255231e-01	-2.891095697e-02	2.612377249e-12
3.081000000e-01	2.714698259e-01	-2.889952450e-02	1.639671872e-12
3.082000000e-01	2.715141214e-01	-2.888810100e-02	1.959632920e-13
3.083000000e-01	2.715584097e-01	-2.887668646e-02	4.560695686e-12
3.084000000e-01	2.716026908e-01	-2.886528087e-02	2.261168015e-12
3.087000000e-01	2.717354904e-01	-2.883111772e-02	2.916869456e-14
3.088000000e-01	2.717797425e-01	-2.881974785e-02	5.648033673e-13
3.090000000e-01	2.718682249e-01	-2.879703478e-02	1.505438224e-12
3.091000000e-01	2.719124552e-01	-2.878569158e-02	1.468520517e-12
3.094000000e-01	2.720451030e-01	-2.875171516e-02	4.195571490e-12
3.095000000e-01	2.720893045e-01	-2.874040739e-02	4.151823418e-14
3.098000000e-01	2.722218657e-01	-2.870653702e-02	3.364347376e-12
3.099000000e-01	2.722660383e-01	-2.869526451e-02	4.158752553e-12
3.103000000e-01	2.724426570e-01	-2.865026231e-02	4.816145419e-14
3.106000000e-01	2.725750455e-01	-2.861660261e-02	3.443179614e-12
3.107000000e-01	2.726191607e-01	-2.860540017e-02	1.336181146e-12
3.108000000e-01	2.726632687e-01	-2.859420644e-02	6.138581040e-13
3.111000000e-01	2.727955497e-01	-2.856067745e-02	2.778600275e-13
3.113000000e-01	2.728837013e-01	-2.853836818e-02	2.811978006e-13
3.117000000e-01	2.730599186e-01	-2.849385343e-02	5.663463729e-13
3.118000000e-01	2.731039551e-01	-2.848274632e-02	2.179825342e-12
3.119000000e-01	2.731479845e-01	-2.847164781e-02	3.979337193e-13
3.122000000e-01	2.732800298e-01	-2.843840383e-02	1.199235135e-12
3.123000000e-01	2.733240307e-01	-2.842733965e-02	2.325490993e-12
3.125000000e-01	2.734120111e-01	-2.840523698e-02	2.761048674e-12
3.126000000e-01	2.734559906e-01	-2.839419845e-02	1.125373548e-12
3.127000000e-01	2.734999630e-01	-2.838316846e-02	1.943048226e-13
3.128000000e-01	2.735439283e-01	-2.837214699e-02	4.378824845e-13
3.129000000e-01	2.735878866e-01	-2.836113404e-02	1.475311324e-13
3.131000000e-01	2.736757817e-01	-2.833913363e-02	9.749219076e-13
3.133000000e-01	2.737636486e-01	-2.831716715e-02	7.875048028e-13
3.134000000e-01	2.738075714e-01	-2.830619662e-02	7.743563936e-13
3.135000000e-01	2.738514871e-01	-2.829523454e-02	5.603496127e-13
3.136000000e-01	2.738953957e-01	-2.828428091e-02	3.268096485e-13
3.137000000e-01	2.739392973e-01	-2.827333571e-02	5.560635408e-12
3.138000000e-01	2.739831918e-01	-2.826239895e-02	6.922565469e-13
3.139000000e-01	2.740270792e-01	-2.825147060e-02	6.941828527e-13
3.140000000e-01	2.740709596e-01	-2.824055067e-02	2.506893852e-12
3.141000000e-01	2.741148329e-01	-2.822963913e-02	4.924404006e-12
3.142000000e-01	2.741586991e-01	-2.821873598e-02	4.559359517e-13
3.143000000e-01	2.742025584e-01	-2.820784122e-02	6.579038139e-13
3.144000000e-01	2.742464105e-01	-2.819695483e-02	1.590430006e-12
3.146000000e-01	2.743340937e-01	-2.817520712e-02	4.676866138e-12
3.148000000e-01	2.744217488e-01	-2.815349280e-02	1.674032216e-12
3.149000000e-01	2.744655658e-01	-2.814264813e-02	2.597303802e-12
3.150000000e-01	2.745093757e-01	-2.813181178e-02	2.094067151e-12
3.151000000e-01	2.745531786e-01	-2.812098374e-02	3.985919593e-12
3.152000000e-01	2.745969745e-01	-2.811016400e-02	4.766445707e-13
3.153000000e-01	2.746407634e-01	-2.809935254e-02	1.608962600e-12
3.154000000e-01	2.746845453e-01	-2.808854937e-02	1.365668320e-12
3.156000000e-01	2.747720880e-01	-2.806696783e-02	1.365852262e-12
3.158000000e-01	2.748596028e-01	-2.804541930e-02	4.148331611e-12
3.161000000e-01	2.749908224e-01	-2.801315825e-02	7.831475105e-13
3.162000000e-01	2.750345482e-01	-2.800242099e-02	1.703832548e-12
3.163000000e-01	2.750782671e-01	-2.799169194e-02	2.546367727e-12
3.164000000e-01	2.751219791e-01	-2.798097107e-02	1.742396072e-12
3.165000000e-01	2.751656840e-01	-2.797025838e-02	6.131712496e-12
3.167000000e-01	2.752530730e-01	-2.794885752e-02	2.615023079e-12
3.168000000e-01	2.752967570e-01	-2.793816932e-02	2.982917278e-12
3.171000000e-01	2.754277674e-01	-2.790615357e-02	8.526545051e-13
3.172000000e-01	2.754714236e-01	-2.789549790e-02	1.669480357e-13
3.173000000e-01	2.755150728e-01	-2.788485035e-02	3.366718689e-12
3.174000000e-01	2.755587151e-01	-2.787421089e-02	2.368654480e-13
3.175000000e-01	2.756023505e-01	-2.786357952e-02	3.529511029e-12
3.177000000e-01	2.756896004e-01	-2.784234103e-02	4.347557623e-13
3.178000000e-01	2.757332149e-01	-2.783173389e-02	1.259081207e-12
3.179000000e-01	2.757768225e-01	-2.782113480e-02	1.125554212e-12
3.180000000e-01	2.758204232e-01	-2.781054376e-02	6.370219928e-13
3.181000000e-01	2.758640170e-01	-2.779996076e-02	1.012383152e-12
3.185000000e-01	2.760383228e-01	-2.775770898e-02	7.133055849e-14
3.186000000e-01	2.760818820e-01	-2.774716604e-02	3.864051713e-12
3.188000000e-01	2.761689797e-01	-2.772610413e-02	1.910965532e-12
3.190000000e-01	2.762560497e-01	-2.770507408e-02	1.368989223e-12
3.191000000e-01	2.762995744e-01	-2.769457099e-02	3.201087740e-13
3.192000000e-01	2.763430922e-01	-2.768407585e-02	3.202481696e-12
3.193000000e-01	2.763866032e-01	-2.767358864e-02	1.770499733e-12
3.195000000e-01	2.764736043e-01	-2.765263798e-02	5.120564964e-12
3.196000000e-01	2.765170946e-01	-2.764217452e-02	9.609163707e-13
3.197000000e-01	2.765605780e-01	-2.763171897e-02	3.529187198e-12
3.198000000e-01	2.766040546e-01	-2.762127130e-02	2.954923165e-13
3.199000000e-01	2.766475243e-01	-2.761083152e-02	1.023168753e-12
3.200000000e-01	2.766909871e-01	-2.760039961e-02	2.252624427e-12
3.201000000e-01	2.767344430e-01	-2.758997556e-02	4.741867321e-13
3.202000000e-01	2.767778921e-01	-2.757955938e-02	7.690076134e-15
3.203000000e-01	2.768213344e-01	-2.756915104e-02	9.220339804e-13
3.204000000e-01	2.768647697e-01	-2.755875054e-02	1.216626801e-12
3.205000000e-01	2.769081983e-01	-2.754835788e-02	3.708824479e-12
3.207000000e-01	2.769950348e-01	-2.752759601e-02	2.527192745e-13
3.208000000e-01	2.770384429e-01	-2.751722679e-02	8.677643147e-13
3.209000000e-01	2.770818441e-01	-2.750686537e-02	2.874056413e-12
3.210000000e-01	2.771252384e-01	-2.749651174e-02	4.690794938e-12
3.212000000e-01	2.772120067e-01	-2.747582781e-02	1.189985410e-12
3.214000000e-01	2.772987476e-01	-2.745517494e-02	2.096985924e-12
3.215000000e-01	2.773421079e-01	-2.744486013e-02	1.792960185e-12
3.217000000e-01	2.774288079e-01	-2.742425372e-02	2.391390269e-12
3.219000000e-01	2.775154808e-01	-2.740367821e-02	2.011105150e-12
3.220000000e-01	2.775588070e-01	-2.739340201e-02	1.242519863e-12
3.221000000e-01	2.776021264e-01	-2.738313351e-02	1.723930400e-12
3.222000000e-01	2.776454391e-01	-2.737287271e-02	1.150278520e-12
3.223000000e-01	2.776887449e-01	-2.736261958e-02	2.914307681e-12
3.225000000e-01	2.777753363e-01	-2.734213633e-02	3.879474546e-13
3.226000000e-01	2.778186217e-01	-2.733190620e-02	3.036452264e-13
3.228000000e-01	2.779051724e-01	-2.731146887e-02	2.597594804e-12
3.229000000e-01	2.779484376e-01	-2.730126166e-02	4.551129359e-12
3.230000000e-01	2.779916960e-01	-2.729106207e-02	1.250252609e-12
3.231000000e-01	2.780349476e-01	-2.728087009e-02	1.614610234e-12
3.233000000e-01	2.781214306e-01	-2.726050896e-02	1.980286553e-12
3.234000000e-01	2.781646620e-01	-2.725033978e-02	2.940380606e-12
3.235000000e-01	2.782078866e-01	-2.724017818e-02	2.330740906e-12
3.236000000e-01	2.782511045e-01	-2.723002416e-02	1.880605840e-12
3.238000000e-01	2.783375200e-01	-2.720973882e-02	2.863126576e-12
3.239000000e-01	2.783807176e-01	-2.719960747e-02	2.436475807e-12
3.240000000e-01	2.784239085e-01	-2.718948367e-02	1.192189726e-13
3.241000000e-01	2.784670927e-01	-2.717936740e-02	1.750373439e-12
3.243000000e-01	2.785534409e-01	-2.715915743e-02	2.056285280e-12
3.248000000e-01	2.787691937e-01	-2.710876380e-02	9.615875426e-13
3.250000000e-01	2.788554478e-01	-2.708865869e-02	1.792245315e-12
3.251000000e-01	2.788985648e-01	-2.707861732e-02	4.115153666e-12
3.252000000e-01	2.789416751e-01	-2.706858340e-02	2.572431417e-12
3.254000000e-01	2.790278757e-01	-2.704853786e-02	5.299862106e-12
3.255000000e-01	2.790709659e-01	-2.703852622e-02	4.154120849e-12
3.256000000e-01	2.791140494e-01	-2.702852200e-02	2.472222015e-12
3.257000000e-01	2.791571263e-01	-2.701852519e-02	1.335654321e-12
3.259000000e-01	2.792432600e-01	-2.699855376e-02	4.502360947e-13
3.260000000e-01	2.792863168e-01	-2.698857912e-02	2.843618331e-12
3.261000000e-01	2.793293670e-01	-2.697861185e-02	2.118692843e-12
3.262000000e-01	2.793724105e-01	-2.696865195e-02	9.322993853e-13
3.263000000e-01	2.794154473e-01	-2.695869941e-02	2.135399853e-12
3.264000000e-01	2.794584775e-01	-2.694875423e-02	3.890495122e-12
3.265000000e-01	2.795015010e-01	-2.693881638e-02	1.404232871e-12
3.266000000e-01	2.795445178e-01	-2.692888588e-02	3.861364522e-12
3.267000000e-01	2.795875280e-01	-2.691896270e-02	4.629191183e-12
3.268000000e-01	2.796305316e-01	-2.690904684e-02	3.935087676e-12
3.269000000e-01	2.796735285e-01	-2.689913829e-02	2.514588576e-13
3.270000000e-01	2.797165188e-01	-2.688923705e-02	1.602202485e-12
3.271000000e-01	2.797595024e-01	-2.687934310e-02	1.702969573e-12
3.272000000e-01	2.798024794e-01	-2.686945645e-02	2.486629265e-12
3.273000000e-01	2.798454497e-01	-2.685957707e-02	3.243897138e-12
3.275000000e-01	2.799313705e-01	-2.683984014e-02	3.448538261e-12
3.276000000e-01	2.799743210e-01	-2.682998256e-02	2.288359648e-12
3.277000000e-01	2.800172648e-01	-2.682013223e-02	8.685040606e-14
3.278000000e-01	2.800602020e-01	-2.681028915e-02	6.746166486e-12
3.279000000e-01	2.801031326e-01	-2.680045331e-02	2.225485294e-12
3.280000000e-01	2.801460566e-01	-2.679062469e-02	2.000458222e-12
3.281000000e-01	2.801889740e-01	-2.678080329e-02	5.389728797e-13
3.283000000e-01	2.802747889e-01	-2.676118212e-02	3.930879539e-12
3.285000000e-01	2.803605775e-01	-2.674158974e-02	4.984443224e-12
3.286000000e-01	2.804034618e-01	-2.673180433e-02	4.118025430e-12
3.287000000e-01	2.804463396e-01	-2.672202609e-02	6.501049825e-13
3.288000000e-01	2.804892108e-01	-2.671225502e-02	1.711134053e-12
3.289000000e-01	2.805320754e-01	-2.670249111e-02	9.915509451e-13
3.290000000e-01	2.805749335e-01	-2.669273435e-02	1.798682800e-12
3.291000000e-01	2.806177849e-01	-2.668298473e-02	1.624548703e-12
3.292000000e-01	2.806606298e-01	-2.667324225e-02	1.626639130e-12
3.294000000e-01	2.807462998e-01	-2.665377867e-02	3.220594751e-12
3.296000000e-01	2.808319435e-01	-2.663434355e-02	8.165777822e-13
3.298000000e-01	2.809175610e-01	-2.661493683e-02	4.054601453e-12
3.300000000e-01	2.810031523e-01	-2.659555844e-02	3.049436472e-12
3.301000000e-01	2.810459381e-01	-2.658587986e-02	1.521263062e-12
3.302000000e-01	2.810887173e-01	-2.657620833e-02	9.254439940e-13
3.303000000e-01	2.811314901e-01	-2.656654387e-02	1.105249741e-12
3.304000000e-01	2.811742562e-01	-2.655688644e-02	1.373115604e-12
3.306000000e-01	2.812597690e-01	-2.653759271e-02	1.443296687e-12
3.307000000e-01	2.813025155e-01	-2.652795639e-02	1.506004222e-12
3.308000000e-01	2.813452556e-01	-2.651832708e-02	1.103966850e-12
3.309000000e-01	2.813879891e-01	-2.650870479e-02	1.422949333e-12
3.311000000e-01	2.814734365e-01	-2.648948120e-02	4.730677930e-12
3.314000000e-01	2.816015589e-01	-2.646069821e-02	2.598373468e-12
3.317000000e-01	2.817296226e-01	-2.643197791e-02	1.056172191e-12
3.319000000e-01	2.818149659e-01	-2.641286579e-02	1.440069961e-12
3.323000000e-01	2.819855746e-01	-2.637472464e-02	3.084635234e-13
3.324000000e-01	2.820282106e-01	-2.636520662e-02	1.196835498e-12
3.325000000e-01	2.820708401e-01	-2.635569550e-02	1.264929811e-13
3.326000000e-01	2.821134631e-01	-2.634619126e-02	2.439236477e-12
3.327000000e-01	2.821560797e-01	-2.633669391e-02	1.798276845e-12
3.330000000e-01	2.822838905e-01	-2.630824304e-02	8.733973258e-13
3.331000000e-01	2.823264811e-01	-2.629877314e-02	1.773612894e-12
3.333000000e-01	2.824116431e-01	-2.627985384e-02	2.537400645e-12
3.334000000e-01	2.824542144e-01	-2.627040444e-02	1.837975925e-13
3.335000000e-01	2.824967793e-01	-2.626096187e-02	2.444280752e-12
3.338000000e-01	2.826244352e-01	-2.623267500e-02	2.963786342e-13
3.339000000e-01	2.826669743e-01	-2.622325965e-02	1.974452832e-12
3.343000000e-01	2.828370663e-01	-2.618566602e-02	4.354477221e-12
3.345000000e-01	2.829220737e-01	-2.616690979e-02	2.215326742e-12
3.346000000e-01	2.829645678e-01	-2.615754180e-02	1.194735979e-12
3.348000000e-01	2.830495368e-01	-2.613882602e-02	1.179871470e-12
3.350000000e-01	2.831344801e-01	-2.612013714e-02	8.259527082e-13
3.351000000e-01	2.831769421e-01	-2.611080277e-02	1.783913130e-12
3.352000000e-01	2.832193978e-01	-2.610147510e-02	3.051754197e-12
3.353000000e-01	2.832618470e-01	-2.609215413e-02	2.390653528e-13
3.354000000e-01	2.833042899e-01	-2.608283984e-02	9.260847526e-14
3.355000000e-01	2.833467264e-01	-2.607353224e-02	1.530162764e-12
3.358000000e-01	2.834739974e-01	-2.604564947e-02	3.773172304e-13
3.359000000e-01	2.835164083e-01	-2.603636853e-02	2.240343828e-12
3.360000000e-01	2.835588129e-01	-2.602709423e-02	1.036651027e-12
3.361000000e-01	2.836012110e-01	-2.601782658e-02	1.434040756e-12
3.362000000e-01	2.836436028e-01	-2.600856557e-02	2.693922108e-12
3.363000000e-01	2.836859882e-01	-2.599931118e-02	2.009778037e-12
3.364000000e-01	2.837283673e-01	-2.599006341e-02	2.184765345e-12
3.365000000e-01	2.837707400e-01	-2.598082226e-02	1.337712800e-12
3.367000000e-01	2.838554663e-01	-2.596235977e-02	1.246362666e-12
3.368000000e-01	2.838978199e-01	-2.595313842e-02	2.252729817e-12
3.369000000e-01	2.839401672e-01	-2.594392365e-02	1.290630577e-12
3.372000000e-01	2.840671709e-01	-2.591631881e-02	1.160744361e-12
3.373000000e-01	2.841094928e-01	-2.590713032e-02	7.746103670e-13
3.375000000e-01	2.841941175e-01	-2.588877300e-02	2.891925847e-12
3.376000000e-01	2.842364204e-01	-2.587960415e-02	3.839150955e-12
3.377000000e-01	2.842787169e-01	-2.587044184e-02	4.014484107e-12
3.378000000e-01	2.843210072e-01	-2.586128605e-02	2.269112804e-12
3.381000000e-01	2.844478399e-01	-2.583385778e-02	6.719423246e-13
3.383000000e-01	2.845323634e-01	-2.581560477e-02	3.936132037e-12
3.384000000e-01	2.845746157e-01	-2.580648799e-02	3.084397368e-12
3.386000000e-01	2.846591014e-01	-2.578827388e-02	6.012962965e-13
3.387000000e-01	2.847013348e-01	-2.577917653e-02	6.971190075e-13
3.389000000e-01	2.847857827e-01	-2.576100119e-02	2.495799309e-12
3.390000000e-01	2.848279973e-01	-2.575192320e-02	3.540099539e-13
3.392000000e-01	2.849124074e-01	-2.573378652e-02	2.263603816e-12
3.393000000e-01	2.849546030e-01	-2.572472783e-02	5.621809732e-13
3.394000000e-01	2.849967924e-01	-2.571567555e-02	1.578753058e-12
3.395000000e-01	2.850389755e-01	-2.570662969e-02	3.555948403e-13
3.398000000e-01	2.851654871e-01	-2.567953052e-02	1.475833037e-12
3.399000000e-01	2.852076451e-01	-2.567051025e-02	3.806280580e-13
3.401000000e-01	2.852919423e-01	-2.565248884e-02	6.387648943e-13
3.402000000e-01	2.853340815e-01	-2.564348769e-02	5.902132744e-13
3.403000000e-01	2.853762144e-01	-2.563449290e-02	1.577874038e-12
3.404000000e-01	2.854183411e-01	-2.562550447e-02	1.680533738e-12
3.406000000e-01	2.855025757e-01	-2.560754664e-02	1.939510120e-12
3.408000000e-01	2.855867853e-01	-2.558961415e-02	2.680426018e-12
3.410000000e-01	2.856709700e-01	-2.557170696e-02	2.890419765e-13
3.411000000e-01	2.857130530e-01	-2.556276283e-02	1.281414333e-12
3.412000000e-01	2.857551297e-01	-2.555382500e-02	1.614687749e-12
3.413000000e-01	2.857972003e-01	-2.554489347e-02	3.313588564e-12
3.414000000e-01	2.858392646e-01	-2.553596823e-02	4.331977884e-12
3.418000000e-01	2.860074595e-01	-2.550033006e-02	2.146099667e-12
3.419000000e-01	2.860494927e-01	-2.549143617e-02	2.331870900e-12
3.420000000e-01	2.860915197e-01	-2.548254854e-02	1.916150702e-12
3.421000000e-01	2.861335405e-01	-2.547366716e-02	3.472716550e-12
3.422000000e-01	2.861755550e-01	-2.546479202e-02	1.045164649e-12
3.423000000e-01	2.862175634e-01	-2.545592311e-02	7.306901620e-13
3.424000000e-01	2.862595656e-01	-2.544706043e-02	3.023856569e-13
3.425000000e-01	2.863015615e-01	-2.543820397e-02	2.194061244e-12
3.426000000e-01	2.863435513e-01	-2.542935372e-02	1.311543740e-13
3.427000000e-01	2.863855349e-01	-2.542050968e-02	1.610041845e-12
3.428000000e-01	2.864275123e-01	-2.541167184e-02	2.890990326e-12
3.429000000e-01	2.864694835e-01	-2.540284020e-02	6.565933440e-13
