# mu [eV]     Omega/c [1/micrones]    Im(epsi1)     Eq(det).Opt det con kz, R=0.5 \mum, Re(epsi1)=3.90, kz = 0.0001 1/\mum, solve_det_conkz_vs_mu.py
3.00000000000e-01	2.32135025110e-01	-2.82580420820e-02	1.19174836806e-12
3.00200000000e-01	2.32212656716e-01	-2.82364009250e-02	5.40561243387e-13
3.00300000000e-01	2.32251462728e-01	-2.82255931759e-02	1.94110615873e-13
3.00400000000e-01	2.32290262219e-01	-2.82147939666e-02	7.71976781127e-14
3.00500000000e-01	2.32329055190e-01	-2.82040032874e-02	1.78567561016e-15
3.00700000000e-01	2.32406621587e-01	-2.81824474803e-02	1.46084044748e-13
3.00800000000e-01	2.32445395020e-01	-2.81716823329e-02	4.16703367195e-13
3.00900000000e-01	2.32484161947e-01	-2.81609256767e-02	2.85802852860e-13
3.01000000000e-01	2.32522922371e-01	-2.81501775019e-02	2.63611994606e-13
3.01100000000e-01	2.32561676295e-01	-2.81394377990e-02	3.75701770888e-13
3.01200000000e-01	2.32600423723e-01	-2.81287065581e-02	6.42741412904e-13
3.01300000000e-01	2.32639164658e-01	-2.81179837697e-02	1.95059267706e-13
3.01400000000e-01	2.32677899102e-01	-2.81072694242e-02	2.74218286324e-13
3.01500000000e-01	2.32716627060e-01	-2.80965635118e-02	3.77848927047e-13
3.01600000000e-01	2.32755348534e-01	-2.80858660231e-02	8.73573554093e-14
3.01700000000e-01	2.32794063527e-01	-2.80751769483e-02	1.96701830862e-13
3.01800000000e-01	2.32832772043e-01	-2.80644962780e-02	6.38141464677e-14
3.01900000000e-01	2.32871474086e-01	-2.80538240025e-02	3.18969094685e-13
3.02000000000e-01	2.32910169657e-01	-2.80431601123e-02	7.14866106908e-13
3.02100000000e-01	2.32948858761e-01	-2.80325045978e-02	2.26802180152e-13
3.02200000000e-01	2.32987541401e-01	-2.80218574496e-02	3.33059768893e-13
3.02300000000e-01	2.33026217580e-01	-2.80112186581e-02	6.38331785878e-14
3.02400000000e-01	2.33064887300e-01	-2.80005882138e-02	1.83082681061e-13
3.02500000000e-01	2.33103550566e-01	-2.79899661072e-02	3.97074044640e-14
3.02700000000e-01	2.33180857746e-01	-2.79687468695e-02	1.51169813409e-13
3.02800000000e-01	2.33219501667e-01	-2.79581497194e-02	6.42746479972e-14
3.02900000000e-01	2.33258139145e-01	-2.79475608692e-02	3.65289000440e-13
3.03000000000e-01	2.33296770185e-01	-2.79369803096e-02	4.61437749197e-13
3.03100000000e-01	2.33335394789e-01	-2.79264080311e-02	5.85062321908e-14
3.03200000000e-01	2.33374012961e-01	-2.79158440244e-02	4.33303872145e-13
3.03300000000e-01	2.33412624703e-01	-2.79052882800e-02	1.28084552910e-13
3.03400000000e-01	2.33451230019e-01	-2.78947407886e-02	9.74108334008e-14
3.03500000000e-01	2.33489828912e-01	-2.78842015409e-02	4.49133384521e-13
3.03700000000e-01	2.33567007442e-01	-2.78631477393e-02	5.73167699906e-13
3.03900000000e-01	2.33644160318e-01	-2.78421268005e-02	5.75895637376e-13
3.04000000000e-01	2.33682727144e-01	-2.78316286315e-02	2.74193585936e-13
3.04100000000e-01	2.33721287565e-01	-2.78211386503e-02	4.79756225245e-13
3.04300000000e-01	2.33798389209e-01	-2.78001832147e-02	2.24345816061e-13
3.04400000000e-01	2.33836930438e-01	-2.77897177418e-02	1.24638823715e-13
3.04600000000e-01	2.33913993723e-01	-2.77688112398e-02	1.60910098045e-13
3.04700000000e-01	2.33952515787e-01	-2.77583701922e-02	7.76389700270e-13
3.04800000000e-01	2.33991031469e-01	-2.77479372681e-02	3.26204942068e-13
3.04900000000e-01	2.34029540771e-01	-2.77375124583e-02	6.68013524901e-14
3.05000000000e-01	2.34068043698e-01	-2.77270957536e-02	3.29908365058e-13
3.05100000000e-01	2.34106540252e-01	-2.77166871449e-02	6.73722228939e-13
3.05200000000e-01	2.34145030437e-01	-2.77062866231e-02	1.11228695058e-13
3.05300000000e-01	2.34183514255e-01	-2.76958941791e-02	2.56471734911e-13
3.05400000000e-01	2.34221991710e-01	-2.76855098038e-02	4.63498469643e-13
3.05500000000e-01	2.34260462805e-01	-2.76751334881e-02	7.05560626091e-13
3.05600000000e-01	2.34298927543e-01	-2.76647652231e-02	6.47319918723e-14
3.05700000000e-01	2.34337385927e-01	-2.76544049995e-02	4.70281086571e-13
3.05800000000e-01	2.34375837960e-01	-2.76440528084e-02	4.17738163327e-13
3.06000000000e-01	2.34452722987e-01	-2.76233724876e-02	7.57255852690e-14
3.06100000000e-01	2.34491155986e-01	-2.76130443399e-02	4.52259791885e-13
3.06200000000e-01	2.34529582647e-01	-2.76027241887e-02	1.10380236001e-13
3.06300000000e-01	2.34568002973e-01	-2.75924120250e-02	6.11278099875e-13
3.06400000000e-01	2.34606416966e-01	-2.75821078398e-02	1.05045413074e-13
3.06500000000e-01	2.34644824630e-01	-2.75718116243e-02	1.89007094361e-14
3.06600000000e-01	2.34683225968e-01	-2.75615233694e-02	1.37397260297e-13
3.06700000000e-01	2.34721620984e-01	-2.75512430663e-02	4.17201529879e-14
3.06800000000e-01	2.34760009679e-01	-2.75409707061e-02	1.41663590306e-13
3.06900000000e-01	2.34798392058e-01	-2.75307062798e-02	3.96224987780e-13
3.07000000000e-01	2.34836768123e-01	-2.75204497786e-02	3.22520133740e-14
3.07100000000e-01	2.34875137877e-01	-2.75102011936e-02	3.87041289821e-13
3.07200000000e-01	2.34913501324e-01	-2.74999605161e-02	1.30781131734e-13
3.07300000000e-01	2.34951858466e-01	-2.74897277370e-02	2.46795148575e-13
3.07400000000e-01	2.34990209307e-01	-2.74795028477e-02	4.39892472935e-13
3.07500000000e-01	2.35028553850e-01	-2.74692858392e-02	9.72754695528e-14
3.07600000000e-01	2.35066892097e-01	-2.74590767028e-02	3.14363432802e-13
3.07700000000e-01	2.35105224052e-01	-2.74488754298e-02	5.44683078459e-13
3.07800000000e-01	2.35143549718e-01	-2.74386820112e-02	4.26691079454e-13
3.07900000000e-01	2.35181869098e-01	-2.74284964384e-02	1.65309964821e-13
3.08000000000e-01	2.35220182195e-01	-2.74183187027e-02	1.26258781565e-13
3.08100000000e-01	2.35258489012e-01	-2.74081487952e-02	3.63528778314e-14
3.08200000000e-01	2.35296789552e-01	-2.73979867072e-02	8.22771229310e-13
3.08300000000e-01	2.35335083818e-01	-2.73878324301e-02	3.08627840919e-13
3.08400000000e-01	2.35373371813e-01	-2.73776859552e-02	4.40522000205e-13
3.08500000000e-01	2.35411653540e-01	-2.73675472736e-02	5.21011897334e-13
3.08600000000e-01	2.35449929003e-01	-2.73574163769e-02	1.32600321139e-13
3.08700000000e-01	2.35488198204e-01	-2.73472932563e-02	3.85033389049e-14
3.08800000000e-01	2.35526461146e-01	-2.73371779031e-02	4.55210935635e-13
3.08900000000e-01	2.35564717833e-01	-2.73270703088e-02	1.04273193316e-13
3.09100000000e-01	2.35641212451e-01	-2.73068783621e-02	5.07801553229e-13
3.09200000000e-01	2.35679450389e-01	-2.72967939925e-02	2.25862275744e-13
3.09300000000e-01	2.35717682083e-01	-2.72867173474e-02	3.64810872960e-13
3.09400000000e-01	2.35755907537e-01	-2.72766484181e-02	7.01778241525e-14
3.09500000000e-01	2.35794126753e-01	-2.72665871960e-02	2.14152779684e-13
3.09600000000e-01	2.35832339735e-01	-2.72565336727e-02	7.60010065724e-14
3.09700000000e-01	2.35870546485e-01	-2.72464878395e-02	1.64589871924e-13
3.09900000000e-01	2.35946941303e-01	-2.72264192096e-02	1.31132165663e-13
3.10000000000e-01	2.35985129377e-01	-2.72163963959e-02	1.67219230502e-12
3.10100000000e-01	2.36023311231e-01	-2.72063812383e-02	1.03002636117e-13
3.10300000000e-01	2.36099656294e-01	-2.71863738576e-02	2.93783466489e-13
3.10400000000e-01	2.36137819508e-01	-2.71763816176e-02	3.24024499621e-13
3.10500000000e-01	2.36175976515e-01	-2.71663970000e-02	5.49617601473e-13
3.10600000000e-01	2.36214127317e-01	-2.71564199962e-02	9.27382741360e-13
3.10700000000e-01	2.36252271918e-01	-2.71464505979e-02	1.66300679391e-13
3.10800000000e-01	2.36290410320e-01	-2.71364887967e-02	3.25538988817e-13
3.10900000000e-01	2.36328542527e-01	-2.71265345841e-02	5.58273558447e-13
3.11000000000e-01	2.36366668541e-01	-2.71165879519e-02	3.56072819361e-13
3.11100000000e-01	2.36404788365e-01	-2.71066488915e-02	2.74538925821e-13
3.11200000000e-01	2.36442902004e-01	-2.70967173948e-02	7.12070559249e-13
3.11300000000e-01	2.36481009458e-01	-2.70867934532e-02	3.41264259585e-13
3.11400000000e-01	2.36519110732e-01	-2.70768770586e-02	4.37860974002e-13
3.11500000000e-01	2.36557205828e-01	-2.70669682025e-02	2.30409715557e-13
3.11600000000e-01	2.36595294750e-01	-2.70570668767e-02	5.02761058270e-13
3.11700000000e-01	2.36633377500e-01	-2.70471730728e-02	4.64981612194e-14
3.11900000000e-01	2.36709524497e-01	-2.70274079979e-02	2.92923004472e-13
3.12000000000e-01	2.36747588749e-01	-2.70175367103e-02	1.43183625962e-13
3.12100000000e-01	2.36785646842e-01	-2.70076729117e-02	9.93539308544e-14
3.12200000000e-01	2.36823698778e-01	-2.69978165936e-02	1.62095574935e-13
3.12300000000e-01	2.36861744560e-01	-2.69879677480e-02	4.89340634850e-13
3.12400000000e-01	2.36899784191e-01	-2.69781263667e-02	5.71618391242e-14
3.12500000000e-01	2.36937817673e-01	-2.69682924414e-02	8.11123962984e-14
3.12600000000e-01	2.36975845011e-01	-2.69584659639e-02	4.53540605586e-13
3.12700000000e-01	2.37013866207e-01	-2.69486469260e-02	2.59881035125e-13
3.12800000000e-01	2.37051881263e-01	-2.69388353197e-02	8.89471180938e-14
3.12900000000e-01	2.37089890183e-01	-2.69290311367e-02	3.67001634067e-13
3.13000000000e-01	2.37127892970e-01	-2.69192343689e-02	6.41393252850e-13
3.13200000000e-01	2.37203880155e-01	-2.68996630463e-02	6.44422205089e-13
3.13300000000e-01	2.37241864559e-01	-2.68898884753e-02	3.45698977660e-13
3.13400000000e-01	2.37279842841e-01	-2.68801212870e-02	8.35169039986e-13
3.13500000000e-01	2.37317815005e-01	-2.68703614734e-02	2.21878660795e-13
3.13600000000e-01	2.37355781053e-01	-2.68606090264e-02	2.13211787897e-13
3.13700000000e-01	2.37393740988e-01	-2.68508639378e-02	1.46382852054e-12
3.13800000000e-01	2.37431694813e-01	-2.68411261998e-02	1.61992471480e-13
3.13900000000e-01	2.37469642532e-01	-2.68313958041e-02	2.49911296075e-13
3.14000000000e-01	2.37507584146e-01	-2.68216727429e-02	3.77767127332e-13
3.14100000000e-01	2.37545519658e-01	-2.68119570080e-02	5.18918507655e-13
3.14200000000e-01	2.37583449073e-01	-2.68022485914e-02	4.17780227633e-13
3.14300000000e-01	2.37621372392e-01	-2.67925474853e-02	4.33395050802e-13
3.14400000000e-01	2.37659289619e-01	-2.67828536815e-02	1.30588342455e-13
3.14500000000e-01	2.37697200756e-01	-2.67731671722e-02	2.92861161936e-13
3.14600000000e-01	2.37735105806e-01	-2.67634879493e-02	6.70988591727e-14
3.14700000000e-01	2.37773004772e-01	-2.67538160050e-02	1.58570647429e-13
3.14800000000e-01	2.37810897658e-01	-2.67441513312e-02	2.32845132873e-13
3.14900000000e-01	2.37848784466e-01	-2.67344939200e-02	3.00645092101e-13
3.15000000000e-01	2.37886665198e-01	-2.67248437636e-02	1.66522378551e-13
3.15100000000e-01	2.37924539858e-01	-2.67152008540e-02	4.92793441456e-13
3.15200000000e-01	2.37962408449e-01	-2.67055651833e-02	7.84259351994e-13
3.15400000000e-01	2.38038127434e-01	-2.66863155273e-02	4.34051855766e-13
3.15500000000e-01	2.38075977834e-01	-2.66767015262e-02	2.96778827233e-13
3.15600000000e-01	2.38113822177e-01	-2.66670947326e-02	2.93400455131e-13
3.15700000000e-01	2.38151660464e-01	-2.66574951386e-02	1.42129848665e-13
3.15800000000e-01	2.38189492699e-01	-2.66479027364e-02	7.29961733012e-13
3.15900000000e-01	2.38227318885e-01	-2.66383175182e-02	4.65934073910e-13
3.16000000000e-01	2.38265139025e-01	-2.66287394762e-02	1.30627455599e-13
3.16100000000e-01	2.38302953121e-01	-2.66191686025e-02	1.92419685034e-13
3.16200000000e-01	2.38340761176e-01	-2.66096048895e-02	1.29013677925e-13
3.16300000000e-01	2.38378563194e-01	-2.66000483294e-02	7.32786183233e-13
3.16400000000e-01	2.38416359177e-01	-2.65904989143e-02	7.02013472466e-13
3.16500000000e-01	2.38454149128e-01	-2.65809566366e-02	1.96838928058e-13
3.16600000000e-01	2.38491933049e-01	-2.65714214884e-02	1.01522376158e-13
3.16700000000e-01	2.38529710944e-01	-2.65618934622e-02	3.44589030590e-13
3.16800000000e-01	2.38567482816e-01	-2.65523725500e-02	9.81419382292e-14
3.16900000000e-01	2.38605248667e-01	-2.65428587444e-02	4.99570294519e-13
3.17000000000e-01	2.38643008500e-01	-2.65333520374e-02	1.11078714371e-12
3.17100000000e-01	2.38680762319e-01	-2.65238524216e-02	6.61648880439e-13
3.17200000000e-01	2.38718510125e-01	-2.65143598891e-02	1.96072825169e-13
3.17300000000e-01	2.38756251922e-01	-2.65048744324e-02	2.59156309077e-13
3.17400000000e-01	2.38793987712e-01	-2.64953960437e-02	2.03287861132e-13
3.17500000000e-01	2.38831717499e-01	-2.64859247155e-02	2.47901361701e-13
3.17600000000e-01	2.38869441285e-01	-2.64764604401e-02	1.69891217825e-13
3.17700000000e-01	2.38907159073e-01	-2.64670032099e-02	5.80971586207e-13
3.17800000000e-01	2.38944870866e-01	-2.64575530172e-02	7.20915983372e-14
3.17900000000e-01	2.38982576667e-01	-2.64481098545e-02	4.74944342208e-13
3.18000000000e-01	2.39020276478e-01	-2.64386737143e-02	1.00170268708e-13
3.18100000000e-01	2.39057970302e-01	-2.64292445888e-02	2.29094784380e-13
3.18200000000e-01	2.39095658143e-01	-2.64198224706e-02	1.09136033790e-12
3.18400000000e-01	2.39171015884e-01	-2.64009992258e-02	4.00272812788e-13
3.18500000000e-01	2.39208685790e-01	-2.63915980840e-02	1.38483169982e-13
3.18600000000e-01	2.39246349724e-01	-2.63822039194e-02	6.59496302983e-13
3.18700000000e-01	2.39284007687e-01	-2.63728167243e-02	4.87600915187e-15
3.18900000000e-01	2.39359305717e-01	-2.63540632129e-02	3.04850886489e-13
3.19000000000e-01	2.39396945788e-01	-2.63446968816e-02	1.00537308598e-13
3.19100000000e-01	2.39434579900e-01	-2.63353374899e-02	1.64265342734e-13
3.19200000000e-01	2.39472208057e-01	-2.63259850304e-02	5.61871211965e-13
3.19300000000e-01	2.39509830261e-01	-2.63166394956e-02	1.24006516484e-13
3.19400000000e-01	2.39547446514e-01	-2.63073008781e-02	1.24850053450e-12
3.19500000000e-01	2.39585056821e-01	-2.62979691704e-02	6.72307163450e-13
3.19600000000e-01	2.39622661182e-01	-2.62886443651e-02	9.98824457095e-14
3.19700000000e-01	2.39660259602e-01	-2.62793264549e-02	4.32552969414e-13
3.19800000000e-01	2.39697852083e-01	-2.62700154323e-02	2.03565260663e-13
3.19900000000e-01	2.39735438627e-01	-2.62607112899e-02	7.60118230802e-13
3.20200000000e-01	2.39848162671e-01	-2.62328400705e-02	1.23287516170e-13
3.20300000000e-01	2.39885725498e-01	-2.62235633753e-02	3.18568001799e-13
3.20400000000e-01	2.39923282402e-01	-2.62142935237e-02	1.53488598526e-13
3.20500000000e-01	2.39960833388e-01	-2.62050305081e-02	2.28646607722e-13
3.20600000000e-01	2.39998378456e-01	-2.61957743213e-02	1.88832023160e-13
3.20700000000e-01	2.40035917610e-01	-2.61865249560e-02	3.99327821192e-13
3.20800000000e-01	2.40073450853e-01	-2.61772824050e-02	5.55304510271e-13
3.20900000000e-01	2.40110978187e-01	-2.61680466608e-02	1.64423310952e-13
3.21000000000e-01	2.40148499616e-01	-2.61588177163e-02	1.31617716926e-13
3.21100000000e-01	2.40186015141e-01	-2.61495955641e-02	1.53423527787e-13
3.21200000000e-01	2.40223524766e-01	-2.61403801970e-02	1.35247898895e-13
3.21300000000e-01	2.40261028494e-01	-2.61311716078e-02	7.52287672515e-13
3.21400000000e-01	2.40298526327e-01	-2.61219697893e-02	4.25080690970e-13
3.21500000000e-01	2.40336018267e-01	-2.61127747341e-02	1.31577033740e-13
3.21600000000e-01	2.40373504319e-01	-2.61035864351e-02	5.04026258248e-13
3.21700000000e-01	2.40410984483e-01	-2.60944048852e-02	6.35248349190e-13
3.21800000000e-01	2.40448458764e-01	-2.60852300770e-02	1.07822071194e-12
3.21900000000e-01	2.40485927164e-01	-2.60760620034e-02	1.05458704744e-13
3.22000000000e-01	2.40523389686e-01	-2.60669006572e-02	4.62608734460e-13
3.22100000000e-01	2.40560846332e-01	-2.60577460313e-02	2.18883693497e-13
3.22200000000e-01	2.40598297105e-01	-2.60485981185e-02	2.15360792917e-12
3.22400000000e-01	2.40673181043e-01	-2.60303224036e-02	2.63533708811e-13
3.22500000000e-01	2.40710614214e-01	-2.60211945872e-02	3.04802178026e-13
3.22600000000e-01	2.40748041523e-01	-2.60120734555e-02	2.03287855432e-13
3.22700000000e-01	2.40785462972e-01	-2.60029590012e-02	1.51667154850e-13
3.22800000000e-01	2.40822878565e-01	-2.59938512172e-02	2.21568881775e-13
3.23000000000e-01	2.40897692192e-01	-2.59756556322e-02	9.98461368655e-14
3.23100000000e-01	2.40935090232e-01	-2.59665678169e-02	1.97850595205e-13
3.23200000000e-01	2.40972482426e-01	-2.59574866437e-02	2.71596899745e-13
3.23300000000e-01	2.41009868777e-01	-2.59484121055e-02	2.60007829862e-13
3.23400000000e-01	2.41047249288e-01	-2.59393441954e-02	3.10716223778e-13
3.23500000000e-01	2.41084623961e-01	-2.59302829062e-02	1.54439792823e-13
3.23600000000e-01	2.41121992799e-01	-2.59212282309e-02	1.01774379916e-13
3.23700000000e-01	2.41159355806e-01	-2.59121801626e-02	1.72677249949e-13
3.23800000000e-01	2.41196712982e-01	-2.59031386943e-02	5.82281879267e-13
3.23900000000e-01	2.41234064332e-01	-2.58941038189e-02	2.45479671236e-13
3.24000000000e-01	2.41271409858e-01	-2.58850755294e-02	5.03137853766e-13
3.24100000000e-01	2.41308749563e-01	-2.58760538190e-02	3.35331857304e-13
3.24200000000e-01	2.41346083449e-01	-2.58670386806e-02	3.28305053230e-13
3.24300000000e-01	2.41383411519e-01	-2.58580301072e-02	4.95703079083e-13
3.24400000000e-01	2.41420733775e-01	-2.58490280921e-02	3.79138646179e-13
3.24500000000e-01	2.41458050221e-01	-2.58400326281e-02	1.50066455405e-13
3.24600000000e-01	2.41495360859e-01	-2.58310437084e-02	2.40707108297e-13
3.24700000000e-01	2.41532665692e-01	-2.58220613261e-02	8.36303264384e-13
3.24800000000e-01	2.41569964722e-01	-2.58130854743e-02	2.08071242071e-13
3.24900000000e-01	2.41607257952e-01	-2.58041161461e-02	3.14715037323e-13
3.25000000000e-01	2.41644545385e-01	-2.57951533345e-02	3.88582880988e-13
3.25100000000e-01	2.41681827024e-01	-2.57861970328e-02	1.44516959545e-13
3.25300000000e-01	2.41756372928e-01	-2.57683039313e-02	1.05854241061e-13
3.25400000000e-01	2.41793637199e-01	-2.57593671179e-02	8.99321511777e-13
3.25500000000e-01	2.41830895686e-01	-2.57504367868e-02	2.79864153966e-13
3.25600000000e-01	2.41868148391e-01	-2.57415129314e-02	3.01179613613e-13
3.25700000000e-01	2.41905395318e-01	-2.57325955447e-02	2.99556628830e-13
3.25800000000e-01	2.41942636470e-01	-2.57236846199e-02	9.62524256431e-14
3.25900000000e-01	2.41979871848e-01	-2.57147801503e-02	3.52862980528e-13
3.26000000000e-01	2.42017101455e-01	-2.57058821291e-02	1.60582064247e-13
3.26100000000e-01	2.42054325294e-01	-2.56969905494e-02	1.87763205891e-13
3.26200000000e-01	2.42091543369e-01	-2.56881054045e-02	2.98524461788e-13
3.26300000000e-01	2.42128755680e-01	-2.56792266877e-02	3.31605687706e-14
3.26400000000e-01	2.42165962232e-01	-2.56703543922e-02	6.62899190272e-13
3.26500000000e-01	2.42203163026e-01	-2.56614885112e-02	3.99135912811e-13
3.26600000000e-01	2.42240358065e-01	-2.56526290380e-02	1.10786784188e-13
3.26700000000e-01	2.42277547352e-01	-2.56437759659e-02	2.65314888609e-13
3.26800000000e-01	2.42314730890e-01	-2.56349292881e-02	2.12159392321e-13
3.26900000000e-01	2.42351908681e-01	-2.56260889980e-02	4.80345796457e-13
3.27000000000e-01	2.42389080728e-01	-2.56172550889e-02	7.34720676418e-13
3.27100000000e-01	2.42426247034e-01	-2.56084275540e-02	4.34875619122e-13
3.27200000000e-01	2.42463407600e-01	-2.55996063867e-02	1.33160970790e-13
3.27300000000e-01	2.42500562430e-01	-2.55907915803e-02	1.33336427933e-13
3.27400000000e-01	2.42537711527e-01	-2.55819831281e-02	1.38501763516e-12
3.27500000000e-01	2.42574854892e-01	-2.55731810236e-02	6.02008267135e-13
3.27600000000e-01	2.42611992529e-01	-2.55643852599e-02	3.57453431966e-13
3.27700000000e-01	2.42649124441e-01	-2.55555958307e-02	6.17060512791e-13
3.27800000000e-01	2.42686250629e-01	-2.55468127290e-02	3.91511024790e-14
3.27900000000e-01	2.42723371096e-01	-2.55380359485e-02	2.32570623523e-13
3.28000000000e-01	2.42760485846e-01	-2.55292654824e-02	6.64543680693e-13
3.28100000000e-01	2.42797594880e-01	-2.55205013242e-02	5.15236397031e-13
3.28200000000e-01	2.42834698202e-01	-2.55117434673e-02	1.69059267679e-13
3.28300000000e-01	2.42871795813e-01	-2.55029919050e-02	4.49023267496e-13
3.28400000000e-01	2.42908887717e-01	-2.54942466309e-02	7.69468664276e-14
3.28500000000e-01	2.42945973916e-01	-2.54855076383e-02	6.90609528848e-13
3.28600000000e-01	2.42983054413e-01	-2.54767749207e-02	3.78785369308e-13
3.28800000000e-01	2.43057198310e-01	-2.54593282843e-02	1.35122851175e-13
3.28900000000e-01	2.43094261715e-01	-2.54506143524e-02	4.41158419093e-13
3.29000000000e-01	2.43131319429e-01	-2.54419066695e-02	8.90724641888e-13
3.29100000000e-01	2.43168371453e-01	-2.54332052288e-02	6.61923093239e-13
3.29200000000e-01	2.43205417790e-01	-2.54245100241e-02	3.58583463308e-14
