# mu [eV]     Omega/c [1/micrones]    Im(epsi1)     Eq(det).Opt det con kz, R=0.5 \mum, Re(epsi1)=3.90, kz = 0.7500 1/\mum, solve_det_conkz_vs_mu.py
3.000000000e-01	1.018881398e+01	-4.229337264e-01	7.300644700e-16
3.001000000e-01	1.018881388e+01	-4.229337176e-01	1.944022701e-16
3.002000000e-01	1.018881378e+01	-4.229337087e-01	4.375915668e-16
3.003000000e-01	1.018881368e+01	-4.229336999e-01	4.821447247e-16
3.004000000e-01	1.018881359e+01	-4.229336910e-01	4.435181341e-16
3.005000000e-01	1.018881349e+01	-4.229336822e-01	4.401105940e-16
3.006000000e-01	1.018881339e+01	-4.229336734e-01	3.842345321e-16
3.007000000e-01	1.018881329e+01	-4.229336645e-01	6.514892463e-16
3.008000000e-01	1.018881319e+01	-4.229336557e-01	2.016593086e-16
3.009000000e-01	1.018881309e+01	-4.229336469e-01	7.647497110e-16
3.010000000e-01	1.018881298e+01	-4.229336381e-01	4.223884160e-16
3.011000000e-01	1.018881288e+01	-4.229336292e-01	2.751442547e-16
3.012000000e-01	1.018881278e+01	-4.229336204e-01	3.474337176e-16
3.013000000e-01	1.018881268e+01	-4.229336116e-01	4.378493227e-16
3.014000000e-01	1.018881258e+01	-4.229336028e-01	5.594995646e-16
3.015000000e-01	1.018881248e+01	-4.229335940e-01	4.665833133e-16
3.016000000e-01	1.018881238e+01	-4.229335852e-01	3.581590522e-16
3.017000000e-01	1.018881228e+01	-4.229335764e-01	5.087730639e-16
3.018000000e-01	1.018881218e+01	-4.229335675e-01	4.539830341e-16
3.019000000e-01	1.018881208e+01	-4.229335587e-01	5.154338274e-16
3.020000000e-01	1.018881198e+01	-4.229335499e-01	4.253515940e-16
3.021000000e-01	1.018881188e+01	-4.229335411e-01	5.433770263e-16
3.022000000e-01	1.018881178e+01	-4.229335323e-01	4.241886521e-16
3.023000000e-01	1.018881168e+01	-4.229335236e-01	3.156476747e-16
3.024000000e-01	1.018881157e+01	-4.229335148e-01	4.223513947e-16
3.025000000e-01	1.018881147e+01	-4.229335060e-01	8.245428024e-16
3.026000000e-01	1.018881137e+01	-4.229334972e-01	5.438450877e-16
3.027000000e-01	1.018881127e+01	-4.229334884e-01	5.242381645e-16
3.028000000e-01	1.018881117e+01	-4.229334796e-01	4.277136582e-16
3.029000000e-01	1.018881107e+01	-4.229334708e-01	2.886610333e-16
3.030000000e-01	1.018881097e+01	-4.229334621e-01	3.634062356e-16
3.031000000e-01	1.018881086e+01	-4.229334533e-01	6.054198802e-16
3.032000000e-01	1.018881076e+01	-4.229334445e-01	2.623320860e-16
3.033000000e-01	1.018881066e+01	-4.229334358e-01	4.126149598e-16
3.034000000e-01	1.018881056e+01	-4.229334270e-01	3.030464868e-16
3.035000000e-01	1.018881046e+01	-4.229334182e-01	4.785788756e-16
3.036000000e-01	1.018881035e+01	-4.229334095e-01	3.346118358e-16
3.037000000e-01	1.018881025e+01	-4.229334007e-01	5.501860040e-16
3.038000000e-01	1.018881015e+01	-4.229333919e-01	4.291164877e-16
3.039000000e-01	1.018881005e+01	-4.229333832e-01	3.321189743e-16
3.040000000e-01	1.018880995e+01	-4.229333744e-01	4.206069836e-16
3.041000000e-01	1.018880984e+01	-4.229333657e-01	5.056826877e-16
3.042000000e-01	1.018880974e+01	-4.229333569e-01	7.667179155e-16
3.043000000e-01	1.018880964e+01	-4.229333482e-01	4.085467317e-16
3.044000000e-01	1.018880953e+01	-4.229333395e-01	4.085207291e-16
3.045000000e-01	1.018880943e+01	-4.229333307e-01	1.629470008e-16
3.046000000e-01	1.018880933e+01	-4.229333220e-01	6.434135422e-16
3.047000000e-01	1.018880923e+01	-4.229333132e-01	3.159121808e-16
3.048000000e-01	1.018880912e+01	-4.229333045e-01	5.679734999e-16
3.049000000e-01	1.018880902e+01	-4.229332958e-01	4.607590358e-16
3.050000000e-01	1.018880892e+01	-4.229332870e-01	2.527320833e-16
3.051000000e-01	1.018880881e+01	-4.229332783e-01	3.546500265e-16
3.052000000e-01	1.018880871e+01	-4.229332696e-01	4.597762645e-16
3.053000000e-01	1.018880861e+01	-4.229332609e-01	3.117251060e-16
3.054000000e-01	1.018880850e+01	-4.229332522e-01	4.904986370e-16
3.055000000e-01	1.018880840e+01	-4.229332434e-01	4.778218488e-16
3.056000000e-01	1.018880830e+01	-4.229332347e-01	3.869553335e-16
3.057000000e-01	1.018880819e+01	-4.229332260e-01	4.176527137e-16
3.058000000e-01	1.018880809e+01	-4.229332173e-01	6.328943082e-16
3.059000000e-01	1.018880799e+01	-4.229332086e-01	4.486598789e-16
3.060000000e-01	1.018880788e+01	-4.229331999e-01	3.736914353e-16
3.061000000e-01	1.018880778e+01	-4.229331912e-01	6.409999379e-16
3.062000000e-01	1.018880767e+01	-4.229331825e-01	4.380171944e-16
3.063000000e-01	1.018880757e+01	-4.229331738e-01	3.118383217e-16
3.064000000e-01	1.018880747e+01	-4.229331651e-01	7.366462945e-16
3.065000000e-01	1.018880736e+01	-4.229331564e-01	4.602854459e-16
3.066000000e-01	1.018880726e+01	-4.229331477e-01	3.705730987e-16
3.067000000e-01	1.018880715e+01	-4.229331391e-01	7.233046385e-16
3.068000000e-01	1.018880705e+01	-4.229331304e-01	4.525436491e-16
3.069000000e-01	1.018880694e+01	-4.229331217e-01	4.001730288e-16
3.070000000e-01	1.018880684e+01	-4.229331130e-01	3.000367334e-16
3.071000000e-01	1.018880673e+01	-4.229331043e-01	6.488930554e-16
3.072000000e-01	1.018880663e+01	-4.229330957e-01	5.085031130e-16
3.073000000e-01	1.018880653e+01	-4.229330870e-01	6.086618873e-16
3.074000000e-01	1.018880642e+01	-4.229330783e-01	4.785553475e-16
3.075000000e-01	1.018880632e+01	-4.229330697e-01	2.963557550e-16
3.076000000e-01	1.018880621e+01	-4.229330610e-01	4.088435593e-16
3.077000000e-01	1.018880611e+01	-4.229330523e-01	4.278289884e-16
3.078000000e-01	1.018880600e+01	-4.229330437e-01	3.698145116e-16
3.079000000e-01	1.018880589e+01	-4.229330350e-01	2.703856802e-16
3.080000000e-01	1.018880579e+01	-4.229330264e-01	3.889461807e-16
3.081000000e-01	1.018880568e+01	-4.229330177e-01	3.994909564e-16
3.082000000e-01	1.018880558e+01	-4.229330091e-01	3.442487880e-16
3.083000000e-01	1.018880547e+01	-4.229330004e-01	3.841827844e-16
3.084000000e-01	1.018880537e+01	-4.229329918e-01	5.124250066e-16
3.085000000e-01	1.018880526e+01	-4.229329831e-01	5.464644134e-16
3.086000000e-01	1.018880516e+01	-4.229329745e-01	4.589404529e-16
3.087000000e-01	1.018880505e+01	-4.229329659e-01	5.062381139e-16
3.088000000e-01	1.018880494e+01	-4.229329572e-01	7.441049760e-16
3.089000000e-01	1.018880484e+01	-4.229329486e-01	2.093036058e-16
3.090000000e-01	1.018880473e+01	-4.229329400e-01	3.924412353e-16
3.091000000e-01	1.018880463e+01	-4.229329313e-01	5.561108457e-16
3.092000000e-01	1.018880452e+01	-4.229329227e-01	2.142756015e-16
3.093000000e-01	1.018880441e+01	-4.229329141e-01	4.366462884e-16
3.094000000e-01	1.018880431e+01	-4.229329055e-01	4.868829823e-16
3.095000000e-01	1.018880420e+01	-4.229328969e-01	4.418314112e-16
3.096000000e-01	1.018880409e+01	-4.229328883e-01	7.362637088e-16
3.097000000e-01	1.018880399e+01	-4.229328796e-01	4.449595176e-16
3.098000000e-01	1.018880388e+01	-4.229328710e-01	4.179956842e-16
3.099000000e-01	1.018880377e+01	-4.229328624e-01	7.721835232e-16
3.100000000e-01	1.018880367e+01	-4.229328538e-01	4.609011003e-16
3.101000000e-01	1.018880356e+01	-4.229328452e-01	2.276194922e-16
3.102000000e-01	1.018880345e+01	-4.229328366e-01	3.090047194e-16
3.103000000e-01	1.018880335e+01	-4.229328280e-01	4.176567390e-16
3.104000000e-01	1.018880324e+01	-4.229328194e-01	3.670377069e-16
3.105000000e-01	1.018880313e+01	-4.229328109e-01	3.266407062e-16
3.106000000e-01	1.018880302e+01	-4.229328023e-01	5.019330526e-16
3.107000000e-01	1.018880292e+01	-4.229327937e-01	4.067991706e-16
3.108000000e-01	1.018880281e+01	-4.229327851e-01	4.019433981e-16
3.109000000e-01	1.018880270e+01	-4.229327765e-01	4.948751703e-16
3.110000000e-01	1.018880259e+01	-4.229327679e-01	5.775351833e-16
3.111000000e-01	1.018880249e+01	-4.229327594e-01	3.987414348e-16
3.112000000e-01	1.018880238e+01	-4.229327508e-01	2.354156739e-16
3.113000000e-01	1.018880227e+01	-4.229327422e-01	4.714522595e-16
3.114000000e-01	1.018880216e+01	-4.229327337e-01	6.144395815e-16
3.115000000e-01	1.018880206e+01	-4.229327251e-01	4.676244036e-16
3.116000000e-01	1.018880195e+01	-4.229327165e-01	4.301953185e-16
3.117000000e-01	1.018880184e+01	-4.229327080e-01	4.660833001e-16
3.118000000e-01	1.018880173e+01	-4.229326994e-01	4.567746663e-16
3.119000000e-01	1.018880162e+01	-4.229326909e-01	6.472495428e-16
3.120000000e-01	1.018880151e+01	-4.229326823e-01	3.486315874e-16
3.121000000e-01	1.018880141e+01	-4.229326738e-01	4.481685846e-16
3.122000000e-01	1.018880130e+01	-4.229326652e-01	4.355643632e-16
3.123000000e-01	1.018880119e+01	-4.229326567e-01	5.305993093e-16
3.124000000e-01	1.018880108e+01	-4.229326481e-01	3.802649125e-16
3.125000000e-01	1.018880097e+01	-4.229326396e-01	4.463317718e-16
3.126000000e-01	1.018880086e+01	-4.229326310e-01	3.566166651e-16
3.127000000e-01	1.018880075e+01	-4.229326225e-01	4.365731642e-16
3.128000000e-01	1.018880065e+01	-4.229326140e-01	3.211885455e-16
3.129000000e-01	1.018880054e+01	-4.229326055e-01	4.314493316e-16
3.130000000e-01	1.018880043e+01	-4.229325969e-01	2.434138015e-16
3.131000000e-01	1.018880032e+01	-4.229325884e-01	5.996532430e-16
3.132000000e-01	1.018880021e+01	-4.229325799e-01	2.338556725e-16
3.133000000e-01	1.018880010e+01	-4.229325714e-01	4.507025798e-16
3.134000000e-01	1.018879999e+01	-4.229325628e-01	3.208083114e-16
3.135000000e-01	1.018879988e+01	-4.229325543e-01	3.784301990e-16
3.136000000e-01	1.018879977e+01	-4.229325458e-01	3.595086980e-16
3.137000000e-01	1.018879966e+01	-4.229325373e-01	3.613500844e-16
3.138000000e-01	1.018879955e+01	-4.229325288e-01	4.024640620e-16
3.139000000e-01	1.018879944e+01	-4.229325203e-01	4.533199636e-16
3.140000000e-01	1.018879933e+01	-4.229325118e-01	4.883927998e-16
3.141000000e-01	1.018879922e+01	-4.229325033e-01	5.218318493e-16
3.142000000e-01	1.018879911e+01	-4.229324948e-01	4.145759704e-16
3.143000000e-01	1.018879900e+01	-4.229324863e-01	6.189850526e-16
3.144000000e-01	1.018879889e+01	-4.229324778e-01	4.775524055e-16
3.145000000e-01	1.018879878e+01	-4.229324693e-01	4.478103033e-16
3.146000000e-01	1.018879867e+01	-4.229324608e-01	2.116707343e-16
3.147000000e-01	1.018879856e+01	-4.229324524e-01	7.516331983e-16
3.148000000e-01	1.018879845e+01	-4.229324439e-01	4.414420145e-16
3.149000000e-01	1.018879834e+01	-4.229324354e-01	4.503608847e-16
3.150000000e-01	1.018879823e+01	-4.229324269e-01	4.173947928e-16
3.151000000e-01	1.018879812e+01	-4.229324185e-01	3.695926686e-16
3.152000000e-01	1.018879801e+01	-4.229324100e-01	3.838910913e-16
3.153000000e-01	1.018879790e+01	-4.229324015e-01	5.688639257e-16
3.154000000e-01	1.018879779e+01	-4.229323931e-01	5.602586560e-16
3.155000000e-01	1.018879767e+01	-4.229323846e-01	4.260671722e-16
3.156000000e-01	1.018879756e+01	-4.229323761e-01	3.081756289e-16
3.157000000e-01	1.018879745e+01	-4.229323677e-01	5.787695053e-16
3.158000000e-01	1.018879734e+01	-4.229323592e-01	6.355816963e-16
3.159000000e-01	1.018879723e+01	-4.229323508e-01	5.121057396e-16
3.160000000e-01	1.018879712e+01	-4.229323423e-01	3.046364711e-16
3.161000000e-01	1.018879701e+01	-4.229323339e-01	7.456006377e-16
3.162000000e-01	1.018879690e+01	-4.229323254e-01	4.738367633e-16
3.163000000e-01	1.018879678e+01	-4.229323170e-01	2.643541103e-16
3.164000000e-01	1.018879667e+01	-4.229323086e-01	3.525528745e-16
3.165000000e-01	1.018879656e+01	-4.229323001e-01	4.007560230e-16
3.166000000e-01	1.018879645e+01	-4.229322917e-01	4.881009464e-16
3.167000000e-01	1.018879634e+01	-4.229322833e-01	2.231149018e-16
3.168000000e-01	1.018879622e+01	-4.229322748e-01	4.374681447e-16
3.169000000e-01	1.018879611e+01	-4.229322664e-01	4.731597609e-16
3.170000000e-01	1.018879600e+01	-4.229322580e-01	3.117244745e-16
3.171000000e-01	1.018879589e+01	-4.229322496e-01	6.809697392e-16
3.172000000e-01	1.018879578e+01	-4.229322411e-01	4.791271102e-16
3.173000000e-01	1.018879566e+01	-4.229322327e-01	3.899520799e-16
3.174000000e-01	1.018879555e+01	-4.229322243e-01	3.411987073e-16
3.175000000e-01	1.018879544e+01	-4.229322159e-01	2.672252593e-16
3.176000000e-01	1.018879533e+01	-4.229322075e-01	3.223201345e-16
3.177000000e-01	1.018879521e+01	-4.229321991e-01	5.105730152e-16
3.178000000e-01	1.018879510e+01	-4.229321907e-01	6.325412829e-16
3.179000000e-01	1.018879499e+01	-4.229321823e-01	5.467294860e-16
3.180000000e-01	1.018879487e+01	-4.229321739e-01	1.810358544e-16
3.181000000e-01	1.018879476e+01	-4.229321655e-01	3.378661963e-16
3.182000000e-01	1.018879465e+01	-4.229321571e-01	5.378597255e-16
3.183000000e-01	1.018879454e+01	-4.229321487e-01	3.609511843e-16
3.184000000e-01	1.018879442e+01	-4.229321403e-01	3.563794810e-16
3.185000000e-01	1.018879431e+01	-4.229321320e-01	4.232692176e-16
3.186000000e-01	1.018879420e+01	-4.229321236e-01	2.552782245e-16
3.187000000e-01	1.018879408e+01	-4.229321152e-01	3.165543485e-16
3.188000000e-01	1.018879397e+01	-4.229321068e-01	2.727543621e-16
3.189000000e-01	1.018879385e+01	-4.229320984e-01	3.826488530e-16
3.190000000e-01	1.018879374e+01	-4.229320901e-01	3.861935203e-16
3.191000000e-01	1.018879363e+01	-4.229320817e-01	1.578346785e-16
3.192000000e-01	1.018879351e+01	-4.229320733e-01	3.835703771e-16
3.193000000e-01	1.018879340e+01	-4.229320650e-01	4.816217445e-16
3.194000000e-01	1.018879329e+01	-4.229320566e-01	4.203923920e-16
3.195000000e-01	1.018879317e+01	-4.229320483e-01	4.697609178e-16
3.196000000e-01	1.018879306e+01	-4.229320399e-01	4.912472570e-16
3.197000000e-01	1.018879294e+01	-4.229320316e-01	5.558793516e-16
3.198000000e-01	1.018879283e+01	-4.229320232e-01	3.825528999e-16
3.199000000e-01	1.018879271e+01	-4.229320149e-01	2.654052674e-16
3.200000000e-01	1.018879260e+01	-4.229320065e-01	3.709296865e-16
3.201000000e-01	1.018879248e+01	-4.229319982e-01	5.546564127e-16
3.202000000e-01	1.018879237e+01	-4.229319898e-01	5.023793242e-16
3.203000000e-01	1.018879226e+01	-4.229319815e-01	3.551475744e-16
3.204000000e-01	1.018879214e+01	-4.229319732e-01	3.121851333e-16
3.205000000e-01	1.018879203e+01	-4.229319648e-01	5.415592559e-16
3.206000000e-01	1.018879191e+01	-4.229319565e-01	3.429660359e-16
3.207000000e-01	1.018879180e+01	-4.229319482e-01	5.282799933e-16
3.208000000e-01	1.018879168e+01	-4.229319399e-01	4.926196345e-16
3.209000000e-01	1.018879157e+01	-4.229319315e-01	4.066491797e-16
3.210000000e-01	1.018879145e+01	-4.229319232e-01	3.544396913e-16
3.211000000e-01	1.018879133e+01	-4.229319149e-01	4.254667842e-16
3.212000000e-01	1.018879122e+01	-4.229319066e-01	2.731064510e-16
3.213000000e-01	1.018879110e+01	-4.229318983e-01	4.623766518e-16
3.214000000e-01	1.018879099e+01	-4.229318900e-01	2.056747090e-16
3.215000000e-01	1.018879087e+01	-4.229318817e-01	3.211019839e-16
3.216000000e-01	1.018879076e+01	-4.229318734e-01	2.582808723e-16
3.217000000e-01	1.018879064e+01	-4.229318651e-01	5.626435087e-16
3.218000000e-01	1.018879052e+01	-4.229318568e-01	4.620623476e-16
3.219000000e-01	1.018879041e+01	-4.229318485e-01	4.477291719e-16
3.220000000e-01	1.018879029e+01	-4.229318402e-01	1.917295301e-16
3.221000000e-01	1.018879018e+01	-4.229318319e-01	4.217948952e-16
3.222000000e-01	1.018879006e+01	-4.229318236e-01	4.093603777e-16
3.223000000e-01	1.018878994e+01	-4.229318153e-01	5.989861090e-16
3.224000000e-01	1.018878983e+01	-4.229318071e-01	3.414198811e-16
3.225000000e-01	1.018878971e+01	-4.229317988e-01	7.575027968e-16
3.226000000e-01	1.018878959e+01	-4.229317905e-01	3.434706339e-16
3.227000000e-01	1.018878948e+01	-4.229317822e-01	7.487058382e-16
3.228000000e-01	1.018878936e+01	-4.229317740e-01	3.308085324e-16
3.229000000e-01	1.018878924e+01	-4.229317657e-01	4.009891541e-16
3.230000000e-01	1.018878913e+01	-4.229317574e-01	3.317917805e-16
3.231000000e-01	1.018878901e+01	-4.229317492e-01	1.521111345e-16
3.232000000e-01	1.018878889e+01	-4.229317409e-01	3.145048053e-16
3.233000000e-01	1.018878878e+01	-4.229317327e-01	3.778189017e-16
3.234000000e-01	1.018878866e+01	-4.229317244e-01	5.864804999e-16
3.235000000e-01	1.018878854e+01	-4.229317162e-01	2.530476605e-16
3.236000000e-01	1.018878842e+01	-4.229317079e-01	4.728715818e-16
3.237000000e-01	1.018878831e+01	-4.229316997e-01	3.754415475e-16
3.238000000e-01	1.018878819e+01	-4.229316914e-01	5.735932398e-16
3.239000000e-01	1.018878807e+01	-4.229316832e-01	3.627247343e-16
3.240000000e-01	1.018878795e+01	-4.229316750e-01	4.045429699e-16
3.241000000e-01	1.018878784e+01	-4.229316667e-01	3.905447839e-16
3.242000000e-01	1.018878772e+01	-4.229316585e-01	5.517726792e-16
3.243000000e-01	1.018878760e+01	-4.229316503e-01	3.256692867e-16
3.244000000e-01	1.018878748e+01	-4.229316420e-01	3.344040568e-16
3.245000000e-01	1.018878736e+01	-4.229316338e-01	6.279392384e-16
3.246000000e-01	1.018878725e+01	-4.229316256e-01	4.675431278e-16
3.247000000e-01	1.018878713e+01	-4.229316174e-01	2.411711788e-16
3.248000000e-01	1.018878701e+01	-4.229316092e-01	6.899090651e-16
3.249000000e-01	1.018878689e+01	-4.229316010e-01	4.470561581e-16
3.250000000e-01	1.018878677e+01	-4.229315927e-01	2.933770450e-16
3.251000000e-01	1.018878665e+01	-4.229315845e-01	5.138284808e-16
3.252000000e-01	1.018878654e+01	-4.229315763e-01	4.677723829e-16
3.253000000e-01	1.018878642e+01	-4.229315681e-01	3.187931509e-16
3.254000000e-01	1.018878630e+01	-4.229315599e-01	3.144879886e-16
3.255000000e-01	1.018878618e+01	-4.229315517e-01	7.645439294e-16
3.256000000e-01	1.018878606e+01	-4.229315435e-01	5.273423896e-16
3.257000000e-01	1.018878594e+01	-4.229315354e-01	4.740345188e-16
3.258000000e-01	1.018878582e+01	-4.229315272e-01	4.584534150e-16
3.259000000e-01	1.018878570e+01	-4.229315190e-01	3.801159344e-16
3.260000000e-01	1.018878558e+01	-4.229315108e-01	5.131528874e-16
3.261000000e-01	1.018878546e+01	-4.229315026e-01	3.278760441e-16
3.262000000e-01	1.018878534e+01	-4.229314944e-01	4.528378248e-16
3.263000000e-01	1.018878522e+01	-4.229314863e-01	3.181946883e-16
3.264000000e-01	1.018878511e+01	-4.229314781e-01	6.279520886e-16
3.265000000e-01	1.018878499e+01	-4.229314699e-01	3.062745150e-16
3.266000000e-01	1.018878487e+01	-4.229314618e-01	2.096554692e-16
3.267000000e-01	1.018878475e+01	-4.229314536e-01	2.391334139e-16
3.268000000e-01	1.018878463e+01	-4.229314454e-01	5.659174814e-16
3.269000000e-01	1.018878451e+01	-4.229314373e-01	4.643115328e-16
3.270000000e-01	1.018878439e+01	-4.229314291e-01	6.772838595e-16
3.271000000e-01	1.018878427e+01	-4.229314210e-01	4.702053877e-16
3.272000000e-01	1.018878415e+01	-4.229314128e-01	5.935533833e-16
3.273000000e-01	1.018878402e+01	-4.229314047e-01	2.417133638e-16
3.274000000e-01	1.018878390e+01	-4.229313965e-01	3.766402886e-16
3.275000000e-01	1.018878378e+01	-4.229313884e-01	2.395147497e-16
3.276000000e-01	1.018878366e+01	-4.229313803e-01	4.430257227e-16
3.277000000e-01	1.018878354e+01	-4.229313721e-01	1.608293443e-16
3.278000000e-01	1.018878342e+01	-4.229313640e-01	5.255287242e-16
3.279000000e-01	1.018878330e+01	-4.229313559e-01	5.916053487e-16
3.280000000e-01	1.018878318e+01	-4.229313477e-01	4.708479595e-16
3.281000000e-01	1.018878306e+01	-4.229313396e-01	3.813190079e-16
3.282000000e-01	1.018878294e+01	-4.229313315e-01	4.047422113e-16
3.283000000e-01	1.018878282e+01	-4.229313234e-01	3.229240134e-16
3.284000000e-01	1.018878270e+01	-4.229313153e-01	4.029719225e-16
3.285000000e-01	1.018878257e+01	-4.229313071e-01	5.455067238e-16
3.286000000e-01	1.018878245e+01	-4.229312990e-01	4.843105518e-16
3.287000000e-01	1.018878233e+01	-4.229312909e-01	2.757549703e-16
3.288000000e-01	1.018878221e+01	-4.229312828e-01	5.180976076e-16
3.289000000e-01	1.018878209e+01	-4.229312747e-01	6.224265975e-16
3.290000000e-01	1.018878197e+01	-4.229312666e-01	6.210775119e-16
3.291000000e-01	1.018878184e+01	-4.229312585e-01	4.523585034e-16
3.292000000e-01	1.018878172e+01	-4.229312504e-01	3.183461871e-16
3.293000000e-01	1.018878160e+01	-4.229312423e-01	5.190816592e-16
3.294000000e-01	1.018878148e+01	-4.229312343e-01	2.986344728e-16
3.295000000e-01	1.018878136e+01	-4.229312262e-01	4.349668741e-16
3.296000000e-01	1.018878123e+01	-4.229312181e-01	1.919112606e-16
3.297000000e-01	1.018878111e+01	-4.229312100e-01	5.453515344e-16
3.298000000e-01	1.018878099e+01	-4.229312019e-01	4.108658036e-16
3.299000000e-01	1.018878087e+01	-4.229311939e-01	2.951676870e-16
3.300000000e-01	1.018878074e+01	-4.229311858e-01	1.502383655e-16
3.301000000e-01	1.018878062e+01	-4.229311777e-01	4.953740480e-16
3.302000000e-01	1.018878050e+01	-4.229311696e-01	5.194322238e-16
3.303000000e-01	1.018878038e+01	-4.229311616e-01	5.162923125e-16
3.304000000e-01	1.018878025e+01	-4.229311535e-01	3.927764979e-16
