# mu [eV]     Omega/c [1/micrones]    Im(epsi1)     Eq(det).Opt det con kz, R=0.50 \mum, Re(epsi1)=3.90, kz = 0.2000 1/\mum, solve_det_conkz_vs_mu.py
3.00000000000e-01	1.01818999287e+01	-4.22387558629e-01	3.60258227147e-16
3.01000000000e-01	1.01818989280e+01	-4.22387469496e-01	4.59090572381e-16
3.02000000000e-01	1.01818979200e+01	-4.22387380599e-01	5.19338303628e-16
3.03000000000e-01	1.01818969047e+01	-4.22387291940e-01	2.92443107223e-16
3.04000000000e-01	1.01818958822e+01	-4.22387203521e-01	2.88718089298e-16
3.05000000000e-01	1.01818948524e+01	-4.22387115342e-01	2.99800656818e-16
3.06000000000e-01	1.01818938152e+01	-4.22387027406e-01	4.20464140605e-16
3.07000000000e-01	1.01818927706e+01	-4.22386939713e-01	3.27213105298e-16
3.08000000000e-01	1.01818917185e+01	-4.22386852265e-01	5.46167844762e-16
3.09000000000e-01	1.01818906591e+01	-4.22386765062e-01	4.96228360360e-16
3.10000000000e-01	1.01818895921e+01	-4.22386678107e-01	2.71523752795e-16
3.11000000000e-01	1.01818885176e+01	-4.22386591401e-01	5.33985024166e-16
3.12000000000e-01	1.01818874355e+01	-4.22386504944e-01	4.17737574527e-16
3.13000000000e-01	1.01818863458e+01	-4.22386418739e-01	4.79477883215e-16
3.14000000000e-01	1.01818852485e+01	-4.22386332787e-01	2.79436353093e-16
3.15000000000e-01	1.01818841436e+01	-4.22386247088e-01	4.36056948964e-16
3.16000000000e-01	1.01818830309e+01	-4.22386161644e-01	4.61032913405e-16
3.17000000000e-01	1.01818819105e+01	-4.22386076457e-01	5.12735251264e-16
3.18000000000e-01	1.01818807823e+01	-4.22385991527e-01	4.29839530178e-16
3.19000000000e-01	1.01818796463e+01	-4.22385906856e-01	6.18471425198e-16
3.20000000000e-01	1.01818785024e+01	-4.22385822446e-01	4.40898209377e-16
3.21000000000e-01	1.01818773507e+01	-4.22385738297e-01	6.67684914668e-16
3.22000000000e-01	1.01818761911e+01	-4.22385654411e-01	5.43967228252e-16
3.23000000000e-01	1.01818750235e+01	-4.22385570789e-01	3.39510618009e-16
3.24000000000e-01	1.01818738479e+01	-4.22385487432e-01	3.38497082584e-16
3.25000000000e-01	1.01818726643e+01	-4.22385404342e-01	6.34960357565e-16
3.26000000000e-01	1.01818714726e+01	-4.22385321520e-01	3.48451239649e-16
3.27000000000e-01	1.01818702729e+01	-4.22385238967e-01	4.63248520163e-16
3.28000000000e-01	1.01818690650e+01	-4.22385156685e-01	4.16346868569e-16
3.29000000000e-01	1.01818678489e+01	-4.22385074674e-01	6.71074983265e-16
3.30000000000e-01	1.01818666246e+01	-4.22384992936e-01	3.98917374632e-16
3.31000000000e-01	1.01818653921e+01	-4.22384911472e-01	5.22571613298e-16
3.32000000000e-01	1.01818641513e+01	-4.22384830284e-01	4.39279870079e-16
3.33000000000e-01	1.01818629022e+01	-4.22384749373e-01	4.83428362851e-16
3.34000000000e-01	1.01818616447e+01	-4.22384668739e-01	3.71259947522e-16
3.35000000000e-01	1.01818603788e+01	-4.22384588385e-01	7.61860691561e-16
3.36000000000e-01	1.01818591045e+01	-4.22384508311e-01	4.28107693383e-16
3.37000000000e-01	1.01818578217e+01	-4.22384428519e-01	4.01663202396e-16
3.38000000000e-01	1.01818565304e+01	-4.22384349010e-01	5.52296017891e-16
3.39000000000e-01	1.01818552306e+01	-4.22384269785e-01	4.01049704944e-16
3.40000000000e-01	1.01818539222e+01	-4.22384190845e-01	6.07004092988e-16
3.41000000000e-01	1.01818526051e+01	-4.22384112192e-01	5.40737194809e-16
3.42000000000e-01	1.01818512794e+01	-4.22384033827e-01	3.20989187571e-16
3.43000000000e-01	1.01818499450e+01	-4.22383955751e-01	3.83777988095e-16
3.44000000000e-01	1.01818486019e+01	-4.22383877965e-01	4.20497980675e-16
3.45000000000e-01	1.01818472499e+01	-4.22383800471e-01	3.38031012958e-16
3.46000000000e-01	1.01818458892e+01	-4.22383723269e-01	5.29525393969e-16
3.47000000000e-01	1.01818445196e+01	-4.22383646362e-01	3.11770906835e-16
3.48000000000e-01	1.01818431411e+01	-4.22383569750e-01	4.55583039879e-16
3.49000000000e-01	1.01818417537e+01	-4.22383493434e-01	2.84406940741e-16
3.50000000000e-01	1.01818403573e+01	-4.22383417415e-01	5.84113810634e-16
3.51000000000e-01	1.01818389519e+01	-4.22383341696e-01	5.58596647173e-16
3.52000000000e-01	1.01818375374e+01	-4.22383266276e-01	6.50164736268e-16
3.53000000000e-01	1.01818361138e+01	-4.22383191158e-01	2.79421112478e-16
3.54000000000e-01	1.01818346811e+01	-4.22383116342e-01	5.38864294762e-16
3.55000000000e-01	1.01818332392e+01	-4.22383041830e-01	4.70946500609e-16
3.56000000000e-01	1.01818317881e+01	-4.22382967622e-01	5.13113981498e-16
3.57000000000e-01	1.01818303278e+01	-4.22382893721e-01	4.69782580587e-16
3.58000000000e-01	1.01818288581e+01	-4.22382820127e-01	6.06633311362e-16
3.59000000000e-01	1.01818273791e+01	-4.22382746840e-01	1.27554457097e-16
3.60000000000e-01	1.01818258907e+01	-4.22382673864e-01	3.20366342859e-16
3.61000000000e-01	1.01818243929e+01	-4.22382601198e-01	6.36081954165e-16
3.62000000000e-01	1.01818228857e+01	-4.22382528844e-01	4.89576219389e-16
3.63000000000e-01	1.01818213689e+01	-4.22382456803e-01	2.90619311385e-16
3.64000000000e-01	1.01818198426e+01	-4.22382385076e-01	2.61314745630e-16
3.65000000000e-01	1.01818183067e+01	-4.22382313665e-01	4.35815990216e-16
3.66000000000e-01	1.01818167612e+01	-4.22382242570e-01	3.64287920534e-16
3.67000000000e-01	1.01818152059e+01	-4.22382171792e-01	5.97289702980e-16
3.68000000000e-01	1.01818136410e+01	-4.22382101334e-01	3.81443408359e-16
3.69000000000e-01	1.01818120663e+01	-4.22382031195e-01	4.30907048957e-16
3.70000000000e-01	1.01818104818e+01	-4.22381961377e-01	3.76306524237e-16
3.71000000000e-01	1.01818088875e+01	-4.22381891882e-01	3.33528007236e-16
3.72000000000e-01	1.01818072832e+01	-4.22381822710e-01	4.27077403948e-16
3.73000000000e-01	1.01818056691e+01	-4.22381753863e-01	2.28485712843e-16
3.74000000000e-01	1.01818040449e+01	-4.22381685341e-01	3.95499245724e-16
3.75000000000e-01	1.01818024108e+01	-4.22381617146e-01	2.75271733341e-16
3.76000000000e-01	1.01818007665e+01	-4.22381549278e-01	4.75353125003e-16
3.77000000000e-01	1.01817991122e+01	-4.22381481740e-01	4.16633258486e-16
3.78000000000e-01	1.01817974477e+01	-4.22381414532e-01	6.05707073074e-16
3.79000000000e-01	1.01817957730e+01	-4.22381347655e-01	2.63734775523e-16
3.80000000000e-01	1.01817940881e+01	-4.22381281110e-01	5.06106843456e-16
3.81000000000e-01	1.01817923929e+01	-4.22381214899e-01	5.12265806450e-16
3.82000000000e-01	1.01817906873e+01	-4.22381149022e-01	7.78854736229e-16
3.83000000000e-01	1.01817889714e+01	-4.22381083481e-01	3.92332547643e-16
3.84000000000e-01	1.01817872450e+01	-4.22381018276e-01	3.85690335262e-16
3.85000000000e-01	1.01817855082e+01	-4.22380953410e-01	3.41736946400e-16
3.86000000000e-01	1.01817837609e+01	-4.22380888882e-01	3.18673674301e-16
3.87000000000e-01	1.01817820030e+01	-4.22380824694e-01	5.51691941996e-16
3.88000000000e-01	1.01817802344e+01	-4.22380760847e-01	3.49196362396e-16
3.89000000000e-01	1.01817784553e+01	-4.22380697341e-01	4.42112424863e-16
3.90000000000e-01	1.01817766654e+01	-4.22380634180e-01	4.47488867119e-16
3.91000000000e-01	1.01817748648e+01	-4.22380571362e-01	4.26858113187e-16
3.92000000000e-01	1.01817730534e+01	-4.22380508889e-01	3.70391110732e-16
3.93000000000e-01	1.01817712311e+01	-4.22380446763e-01	1.24076569959e-16
3.94000000000e-01	1.01817693980e+01	-4.22380384984e-01	2.52878502654e-16
3.95000000000e-01	1.01817675539e+01	-4.22380323553e-01	4.74550363062e-16
3.96000000000e-01	1.01817656988e+01	-4.22380262471e-01	5.18704719434e-16
3.97000000000e-01	1.01817638327e+01	-4.22380201740e-01	6.13816633352e-16
3.98000000000e-01	1.01817619555e+01	-4.22380141361e-01	6.95427135016e-16
3.99000000000e-01	1.01817600672e+01	-4.22380081333e-01	4.20199390884e-16
4.00000000000e-01	1.01817581677e+01	-4.22380021659e-01	8.25404536356e-16
4.01000000000e-01	1.01817562569e+01	-4.22379962340e-01	2.66949873357e-16
4.02000000000e-01	1.01817543349e+01	-4.22379903376e-01	7.29225695732e-16
4.03000000000e-01	1.01817524016e+01	-4.22379844768e-01	2.65151166823e-16
4.04000000000e-01	1.01817504569e+01	-4.22379786518e-01	4.84532411551e-16
4.05000000000e-01	1.01817485007e+01	-4.22379728626e-01	3.61823676683e-16
4.06000000000e-01	1.01817465331e+01	-4.22379671093e-01	2.57930855623e-16
4.07000000000e-01	1.01817445539e+01	-4.22379613921e-01	6.86829728361e-16
4.08000000000e-01	1.01817425632e+01	-4.22379557110e-01	4.22318849742e-16
4.09000000000e-01	1.01817405609e+01	-4.22379500661e-01	3.67281621070e-16
4.10000000000e-01	1.01817385468e+01	-4.22379444576e-01	4.25720742184e-16
4.11000000000e-01	1.01817365210e+01	-4.22379388854e-01	6.29219956307e-16
4.12000000000e-01	1.01817344835e+01	-4.22379333498e-01	7.51583136686e-16
4.13000000000e-01	1.01817324341e+01	-4.22379278507e-01	2.57464539863e-16
4.14000000000e-01	1.01817303728e+01	-4.22379223883e-01	4.27219948093e-16
4.15000000000e-01	1.01817282996e+01	-4.22379169627e-01	4.20896840105e-16
4.16000000000e-01	1.01817262144e+01	-4.22379115740e-01	3.47269121313e-16
4.17000000000e-01	1.01817241171e+01	-4.22379062223e-01	3.97829881434e-16
4.18000000000e-01	1.01817220078e+01	-4.22379009076e-01	4.17627931600e-16
4.19000000000e-01	1.01817198863e+01	-4.22378956300e-01	3.29293292251e-16
4.20000000000e-01	1.01817177526e+01	-4.22378903897e-01	5.80111996166e-16
4.21000000000e-01	1.01817156066e+01	-4.22378851867e-01	6.94758054989e-16
4.22000000000e-01	1.01817134483e+01	-4.22378800211e-01	4.66905600560e-16
4.23000000000e-01	1.01817112777e+01	-4.22378748929e-01	2.48199233435e-16
4.24000000000e-01	1.01817090946e+01	-4.22378698024e-01	5.05111100351e-16
4.25000000000e-01	1.01817068991e+01	-4.22378647495e-01	2.64745920757e-16
4.26000000000e-01	1.01817046910e+01	-4.22378597343e-01	4.10752110847e-16
4.27000000000e-01	1.01817024703e+01	-4.22378547570e-01	2.26997755130e-16
4.28000000000e-01	1.01817002370e+01	-4.22378498176e-01	6.36343747372e-16
4.29000000000e-01	1.01816979910e+01	-4.22378449162e-01	4.33142176636e-16
4.30000000000e-01	1.01816957323e+01	-4.22378400528e-01	2.94245536774e-16
4.31000000000e-01	1.01816934607e+01	-4.22378352276e-01	1.39919274947e-16
4.32000000000e-01	1.01816911763e+01	-4.22378304406e-01	4.11039062618e-16
4.33000000000e-01	1.01816888790e+01	-4.22378256919e-01	4.31787016272e-16
4.34000000000e-01	1.01816865686e+01	-4.22378209816e-01	3.83093012335e-16
4.35000000000e-01	1.01816842453e+01	-4.22378163098e-01	6.74309794881e-16
4.36000000000e-01	1.01816819088e+01	-4.22378116764e-01	3.60446138381e-16
4.37000000000e-01	1.01816795592e+01	-4.22378070817e-01	6.73830683361e-16
4.38000000000e-01	1.01816771964e+01	-4.22378025257e-01	3.64254423731e-16
4.39000000000e-01	1.01816748203e+01	-4.22377980084e-01	4.97879779400e-16
4.40000000000e-01	1.01816724309e+01	-4.22377935299e-01	5.67196151732e-16
4.41000000000e-01	1.01816700281e+01	-4.22377890904e-01	3.21252021201e-16
4.42000000000e-01	1.01816676118e+01	-4.22377846898e-01	6.45372102228e-16
4.43000000000e-01	1.01816651821e+01	-4.22377803282e-01	6.28859888418e-16
4.44000000000e-01	1.01816627388e+01	-4.22377760057e-01	7.50001298273e-16
4.45000000000e-01	1.01816602818e+01	-4.22377717224e-01	4.63937298545e-16
4.46000000000e-01	1.01816578112e+01	-4.22377674783e-01	2.05087645981e-16
4.47000000000e-01	1.01816553268e+01	-4.22377632735e-01	7.45460327827e-16
4.48000000000e-01	1.01816528286e+01	-4.22377591081e-01	1.67995089121e-16
4.49000000000e-01	1.01816503166e+01	-4.22377549821e-01	2.91020393572e-16
4.50000000000e-01	1.01816477906e+01	-4.22377508955e-01	6.10555602002e-16
4.51000000000e-01	1.01816452506e+01	-4.22377468485e-01	3.71707576549e-16
4.52000000000e-01	1.01816426965e+01	-4.22377428411e-01	5.65392499604e-16
4.53000000000e-01	1.01816401284e+01	-4.22377388734e-01	2.35857413795e-16
4.54000000000e-01	1.01816375461e+01	-4.22377349454e-01	5.69874197798e-16
4.55000000000e-01	1.01816349495e+01	-4.22377310571e-01	7.11504664406e-16
4.56000000000e-01	1.01816323386e+01	-4.22377272087e-01	4.31262827430e-16
4.57000000000e-01	1.01816297133e+01	-4.22377234001e-01	7.17204806129e-16
4.58000000000e-01	1.01816270736e+01	-4.22377196315e-01	3.68605461823e-16
4.59000000000e-01	1.01816244194e+01	-4.22377159029e-01	4.12875470278e-16
4.60000000000e-01	1.01816217506e+01	-4.22377122142e-01	4.98624750111e-16
4.61000000000e-01	1.01816190672e+01	-4.22377085657e-01	2.65501039035e-16
4.62000000000e-01	1.01816163691e+01	-4.22377049573e-01	3.18717662861e-16
4.63000000000e-01	1.01816136563e+01	-4.22377013890e-01	4.30356328715e-16
4.64000000000e-01	1.01816109286e+01	-4.22376978610e-01	6.89209123629e-16
4.65000000000e-01	1.01816081860e+01	-4.22376943732e-01	5.70105853252e-16
4.66000000000e-01	1.01816054284e+01	-4.22376909257e-01	4.22649076334e-16
4.67000000000e-01	1.01816026558e+01	-4.22376875185e-01	3.30764493880e-16
4.68000000000e-01	1.01815998682e+01	-4.22376841517e-01	4.30112713540e-16
4.69000000000e-01	1.01815970653e+01	-4.22376808253e-01	5.07765286751e-16
4.70000000000e-01	1.01815942472e+01	-4.22376775394e-01	1.29496684240e-16
4.71000000000e-01	1.01815914139e+01	-4.22376742939e-01	4.96585345233e-16
4.72000000000e-01	1.01815885651e+01	-4.22376710890e-01	5.90483334218e-16
4.73000000000e-01	1.01815857009e+01	-4.22376679246e-01	3.81969097317e-16
4.74000000000e-01	1.01815828212e+01	-4.22376648008e-01	2.34537518035e-16
4.75000000000e-01	1.01815799259e+01	-4.22376617175e-01	4.96213716138e-16
4.76000000000e-01	1.01815770150e+01	-4.22376586749e-01	4.40645284604e-16
4.77000000000e-01	1.01815740883e+01	-4.22376556730e-01	2.77945410816e-16
4.78000000000e-01	1.01815711458e+01	-4.22376527117e-01	4.54875760305e-16
4.79000000000e-01	1.01815681875e+01	-4.22376497912e-01	2.43669750482e-16
4.80000000000e-01	1.01815652132e+01	-4.22376469113e-01	4.47017340716e-16
4.81000000000e-01	1.01815622230e+01	-4.22376440722e-01	2.21266974388e-16
4.82000000000e-01	1.01815592166e+01	-4.22376412738e-01	5.95261458091e-16
4.83000000000e-01	1.01815561941e+01	-4.22376385162e-01	2.48934231420e-16
4.84000000000e-01	1.01815531554e+01	-4.22376357994e-01	4.42484917114e-16
4.85000000000e-01	1.01815501003e+01	-4.22376331234e-01	7.17931243567e-16
4.86000000000e-01	1.01815470289e+01	-4.22376304881e-01	4.02746910660e-16
4.87000000000e-01	1.01815439410e+01	-4.22376278937e-01	6.57640027743e-16
4.88000000000e-01	1.01815408366e+01	-4.22376253401e-01	6.88697722915e-16
4.89000000000e-01	1.01815377156e+01	-4.22376228273e-01	5.20160663769e-16
4.90000000000e-01	1.01815345779e+01	-4.22376203554e-01	2.69883331630e-16
4.91000000000e-01	1.01815314234e+01	-4.22376179242e-01	3.21705628413e-16
4.92000000000e-01	1.01815282521e+01	-4.22376155339e-01	4.30331525924e-16
4.93000000000e-01	1.01815250639e+01	-4.22376131843e-01	3.17210170604e-16
4.94000000000e-01	1.01815218587e+01	-4.22376108756e-01	4.69176883669e-16
4.95000000000e-01	1.01815186364e+01	-4.22376086077e-01	3.95668513240e-16
4.96000000000e-01	1.01815153970e+01	-4.22376063806e-01	3.22631158526e-16
4.97000000000e-01	1.01815121404e+01	-4.22376041942e-01	4.82998088420e-16
4.98000000000e-01	1.01815088665e+01	-4.22376020486e-01	4.07032348342e-16
4.99000000000e-01	1.01815055751e+01	-4.22375999438e-01	2.15282386467e-16
5.00000000000e-01	1.01815022664e+01	-4.22375978797e-01	2.04234766046e-16
5.01000000000e-01	1.01814989400e+01	-4.22375958563e-01	4.44689522128e-16
5.02000000000e-01	1.01814955961e+01	-4.22375938735e-01	4.60609510962e-16
5.03000000000e-01	1.01814922344e+01	-4.22375919315e-01	4.17820660605e-16
5.04000000000e-01	1.01814888549e+01	-4.22375900300e-01	4.05320376224e-16
5.05000000000e-01	1.01814854576e+01	-4.22375881692e-01	2.48774292734e-16
5.06000000000e-01	1.01814820423e+01	-4.22375863489e-01	3.89174245907e-16
5.07000000000e-01	1.01814786089e+01	-4.22375845691e-01	3.21852778628e-16
5.08000000000e-01	1.01814751575e+01	-4.22375828299e-01	2.99007505301e-16
5.09000000000e-01	1.01814716878e+01	-4.22375811311e-01	5.52446956098e-16
5.10000000000e-01	1.01814681998e+01	-4.22375794726e-01	4.02169890108e-16
5.11000000000e-01	1.01814646935e+01	-4.22375778546e-01	4.18092136717e-16
5.12000000000e-01	1.01814611687e+01	-4.22375762769e-01	4.25807231976e-16
5.13000000000e-01	1.01814576253e+01	-4.22375747394e-01	7.22619397793e-16
5.14000000000e-01	1.01814540633e+01	-4.22375732422e-01	5.92625095833e-16
5.15000000000e-01	1.01814504825e+01	-4.22375717851e-01	2.32749773426e-16
5.16000000000e-01	1.01814468830e+01	-4.22375703681e-01	2.66777257889e-16
5.17000000000e-01	1.01814432645e+01	-4.22375689911e-01	5.05847908066e-16
5.18000000000e-01	1.01814396271e+01	-4.22375676541e-01	4.10152990675e-16
5.19000000000e-01	1.01814359705e+01	-4.22375663571e-01	3.87496066145e-16
5.20000000000e-01	1.01814322948e+01	-4.22375650998e-01	2.20678036357e-16
5.21000000000e-01	1.01814285998e+01	-4.22375638823e-01	4.70104595492e-16
5.22000000000e-01	1.01814248855e+01	-4.22375627045e-01	7.87231317623e-16
5.23000000000e-01	1.01814211517e+01	-4.22375615663e-01	4.17924297205e-16
5.24000000000e-01	1.01814173983e+01	-4.22375604676e-01	6.34256662372e-16
5.25000000000e-01	1.01814136254e+01	-4.22375594084e-01	6.99470002478e-16
5.26000000000e-01	1.01814098327e+01	-4.22375583885e-01	7.84553513846e-16
5.27000000000e-01	1.01814060202e+01	-4.22375574078e-01	3.07089066954e-16
5.28000000000e-01	1.01814021877e+01	-4.22375564664e-01	4.62010029328e-16
5.29000000000e-01	1.01813983353e+01	-4.22375555639e-01	2.07957972643e-16
5.30000000000e-01	1.01813944627e+01	-4.22375547005e-01	3.38191023888e-16
5.31000000000e-01	1.01813905700e+01	-4.22375538759e-01	3.84126688569e-16
5.32000000000e-01	1.01813866569e+01	-4.22375530900e-01	5.04627385341e-16
5.33000000000e-01	1.01813827235e+01	-4.22375523428e-01	4.40908570549e-16
5.34000000000e-01	1.01813787695e+01	-4.22375516341e-01	5.28631277314e-16
5.35000000000e-01	1.01813747950e+01	-4.22375509638e-01	4.41354982581e-16
5.36000000000e-01	1.01813707998e+01	-4.22375503317e-01	3.79978275932e-16
5.37000000000e-01	1.01813667837e+01	-4.22375497378e-01	3.62744645104e-16
5.38000000000e-01	1.01813627468e+01	-4.22375491820e-01	3.11536076586e-16
5.39000000000e-01	1.01813586889e+01	-4.22375486640e-01	4.51134532635e-16
5.40000000000e-01	1.01813546098e+01	-4.22375481837e-01	5.72033195400e-16
5.41000000000e-01	1.01813505096e+01	-4.22375477411e-01	3.43335104521e-16
5.42000000000e-01	1.01813463881e+01	-4.22375473359e-01	6.99168691280e-16
5.43000000000e-01	1.01813422452e+01	-4.22375469680e-01	5.49215361177e-16
5.44000000000e-01	1.01813380807e+01	-4.22375466373e-01	4.40080310431e-16
5.45000000000e-01	1.01813338947e+01	-4.22375463435e-01	2.28016514820e-16
5.46000000000e-01	1.01813296869e+01	-4.22375460866e-01	6.26694064848e-16
5.47000000000e-01	1.01813254573e+01	-4.22375458663e-01	2.86204983425e-16
5.48000000000e-01	1.01813212057e+01	-4.22375456825e-01	3.26927538708e-16
5.49000000000e-01	1.01813169321e+01	-4.22375455350e-01	5.18632983799e-16
5.50000000000e-01	1.01813126364e+01	-4.22375454237e-01	4.86616171934e-16
5.51000000000e-01	1.01813083184e+01	-4.22375453483e-01	5.63186401323e-16
5.52000000000e-01	1.01813039780e+01	-4.22375453087e-01	6.11370178611e-16
5.53000000000e-01	1.01812996152e+01	-4.22375453046e-01	4.45643169003e-16
5.54000000000e-01	1.01812952297e+01	-4.22375453358e-01	4.93415872283e-16
5.55000000000e-01	1.01812908216e+01	-4.22375454023e-01	5.75360817220e-16
5.56000000000e-01	1.01812863906e+01	-4.22375455037e-01	4.80464723995e-16
5.57000000000e-01	1.01812819367e+01	-4.22375456398e-01	3.00466548774e-16
5.58000000000e-01	1.01812774598e+01	-4.22375458104e-01	4.51696667781e-16
5.59000000000e-01	1.01812729597e+01	-4.22375460153e-01	5.22753056928e-16
5.60000000000e-01	1.01812684363e+01	-4.22375462543e-01	3.80972631005e-16
5.61000000000e-01	1.01812638895e+01	-4.22375465271e-01	4.61167006113e-16
5.62000000000e-01	1.01812593192e+01	-4.22375468334e-01	6.02919847840e-16
5.63000000000e-01	1.01812547253e+01	-4.22375471731e-01	5.23151102573e-16
5.64000000000e-01	1.01812501077e+01	-4.22375475459e-01	3.90080343115e-16
5.65000000000e-01	1.01812454662e+01	-4.22375479516e-01	4.86143509792e-16
5.66000000000e-01	1.01812408007e+01	-4.22375483898e-01	3.16928362318e-16
5.67000000000e-01	1.01812361111e+01	-4.22375488602e-01	3.31718392353e-16
5.68000000000e-01	1.01812313973e+01	-4.22375493628e-01	3.63530603599e-16
5.69000000000e-01	1.01812266591e+01	-4.22375498970e-01	3.43100167625e-16
5.70000000000e-01	1.01812218964e+01	-4.22375504627e-01	5.37275018936e-16
