# mu [eV]     Omega/c [1/micrones]    Im(epsi1)     Eq(det).Opt det con kz, R=0.5 \mum, Re(epsi1)=3.90, kz = 0.1000 1/\mum, solve_det_conkz_vs_mu.py
3.000000000e-01	1.896730956e-01	-2.718711600e-02	1.615989080e-13
3.001000000e-01	1.897047291e-01	-2.717771975e-02	1.170194641e-12
3.003000000e-01	1.897679803e-01	-2.715894881e-02	3.434322628e-14
3.004000000e-01	1.897995979e-01	-2.714957412e-02	4.452672340e-13
3.005000000e-01	1.898312102e-01	-2.714020659e-02	3.193811134e-14
3.006000000e-01	1.898628171e-01	-2.713084622e-02	1.088238116e-12
3.009000000e-01	1.899576061e-01	-2.710280801e-02	4.206205303e-13
3.010000000e-01	1.899891919e-01	-2.709347621e-02	2.279222367e-13
3.011000000e-01	1.900207723e-01	-2.708415152e-02	4.276886729e-14
3.012000000e-01	1.900523474e-01	-2.707483396e-02	2.951469713e-13
3.013000000e-01	1.900839173e-01	-2.706552349e-02	5.420917751e-13
3.015000000e-01	1.901470411e-01	-2.704692385e-02	2.837323183e-13
3.016000000e-01	1.901785950e-01	-2.703763466e-02	3.165380418e-13
3.017000000e-01	1.902101437e-01	-2.702835253e-02	3.631750083e-13
3.018000000e-01	1.902416871e-01	-2.701907748e-02	5.700888293e-13
3.019000000e-01	1.902732252e-01	-2.700980948e-02	4.509862952e-13
3.020000000e-01	1.903047580e-01	-2.700054853e-02	1.254817177e-13
3.021000000e-01	1.903362856e-01	-2.699129462e-02	8.510125384e-14
3.022000000e-01	1.903678079e-01	-2.698204775e-02	3.444389101e-13
3.023000000e-01	1.903993249e-01	-2.697280791e-02	3.230812757e-13
3.024000000e-01	1.904308366e-01	-2.696357508e-02	1.730361296e-13
3.025000000e-01	1.904623431e-01	-2.695434926e-02	1.808517020e-13
3.026000000e-01	1.904938443e-01	-2.694513044e-02	3.019710889e-13
3.027000000e-01	1.905253403e-01	-2.693591862e-02	7.894662844e-14
3.028000000e-01	1.905568310e-01	-2.692671379e-02	7.634237381e-14
3.029000000e-01	1.905883164e-01	-2.691751594e-02	1.333742191e-13
3.030000000e-01	1.906197966e-01	-2.690832506e-02	3.286886924e-13
3.031000000e-01	1.906512716e-01	-2.689914114e-02	1.473905192e-13
3.032000000e-01	1.906827413e-01	-2.688996417e-02	5.696383480e-14
3.033000000e-01	1.907142057e-01	-2.688079416e-02	2.117430112e-13
3.034000000e-01	1.907456649e-01	-2.687163109e-02	3.865481789e-13
3.035000000e-01	1.907771189e-01	-2.686247495e-02	4.060252050e-13
3.036000000e-01	1.908085676e-01	-2.685332573e-02	1.598242195e-13
3.037000000e-01	1.908400111e-01	-2.684418343e-02	1.886465608e-13
3.038000000e-01	1.908714494e-01	-2.683504804e-02	1.676841085e-13
3.039000000e-01	1.909028824e-01	-2.682591956e-02	9.164424588e-14
3.040000000e-01	1.909343103e-01	-2.681679797e-02	1.501071306e-13
3.041000000e-01	1.909657328e-01	-2.680768326e-02	1.555589347e-13
3.042000000e-01	1.909971502e-01	-2.679857544e-02	1.927128224e-13
3.043000000e-01	1.910285624e-01	-2.678947448e-02	1.087342084e-13
3.044000000e-01	1.910599693e-01	-2.678038039e-02	3.623076154e-13
3.045000000e-01	1.910913710e-01	-2.677129316e-02	1.613240972e-13
3.046000000e-01	1.911227675e-01	-2.676221277e-02	5.418161011e-14
3.047000000e-01	1.911541588e-01	-2.675313923e-02	2.073176933e-13
3.048000000e-01	1.911855449e-01	-2.674407252e-02	5.261979114e-14
3.049000000e-01	1.912169258e-01	-2.673501264e-02	3.656996210e-13
3.050000000e-01	1.912483015e-01	-2.672595957e-02	3.453954376e-13
3.051000000e-01	1.912796720e-01	-2.671691332e-02	1.595787127e-14
3.052000000e-01	1.913110373e-01	-2.670787387e-02	1.273099441e-13
3.054000000e-01	1.913737523e-01	-2.668981534e-02	7.309442467e-14
3.055000000e-01	1.914051021e-01	-2.668079626e-02	2.658221449e-13
3.057000000e-01	1.914677860e-01	-2.666277840e-02	2.489932881e-14
3.058000000e-01	1.914991201e-01	-2.665377961e-02	2.639326369e-13
3.059000000e-01	1.915304491e-01	-2.664478757e-02	2.769049761e-13
3.060000000e-01	1.915617730e-01	-2.663580228e-02	7.388026846e-14
3.061000000e-01	1.915930916e-01	-2.662682372e-02	3.720168139e-13
3.062000000e-01	1.916244051e-01	-2.661785190e-02	2.439712580e-13
3.063000000e-01	1.916557134e-01	-2.660888679e-02	2.153356599e-13
3.064000000e-01	1.916870166e-01	-2.659992840e-02	1.123937681e-13
3.065000000e-01	1.917183145e-01	-2.659097671e-02	3.816242438e-13
3.067000000e-01	1.917808950e-01	-2.657309343e-02	2.526376676e-13
3.068000000e-01	1.918121775e-01	-2.656416182e-02	1.199242795e-13
3.069000000e-01	1.918434549e-01	-2.655523688e-02	3.826535173e-13
3.071000000e-01	1.919059942e-01	-2.653740702e-02	1.458924162e-13
3.072000000e-01	1.919372561e-01	-2.652850207e-02	6.143091433e-13
3.073000000e-01	1.919685129e-01	-2.651960377e-02	5.882860915e-13
3.074000000e-01	1.919997645e-01	-2.651071212e-02	1.823669122e-13
3.075000000e-01	1.920310110e-01	-2.650182709e-02	4.892115014e-13
3.076000000e-01	1.920622523e-01	-2.649294869e-02	2.756700987e-13
3.077000000e-01	1.920934886e-01	-2.648407691e-02	3.595599004e-13
3.078000000e-01	1.921247197e-01	-2.647521175e-02	2.234792021e-13
3.079000000e-01	1.921559456e-01	-2.646635318e-02	5.569171705e-13
3.080000000e-01	1.921871665e-01	-2.645750122e-02	4.055271863e-13
3.081000000e-01	1.922183822e-01	-2.644865584e-02	1.739613884e-13
3.082000000e-01	1.922495928e-01	-2.643981704e-02	3.151273204e-13
3.083000000e-01	1.922807983e-01	-2.643098483e-02	2.497154756e-13
3.084000000e-01	1.923119987e-01	-2.642215918e-02	1.758846114e-13
3.085000000e-01	1.923431939e-01	-2.641334009e-02	2.948429326e-13
3.086000000e-01	1.923743841e-01	-2.640452755e-02	7.587188531e-14
3.087000000e-01	1.924055691e-01	-2.639572156e-02	8.245697702e-14
3.088000000e-01	1.924367490e-01	-2.638692211e-02	2.500561692e-13
3.089000000e-01	1.924679239e-01	-2.637812920e-02	1.124864928e-13
3.090000000e-01	1.924990936e-01	-2.636934281e-02	1.637962375e-13
3.091000000e-01	1.925302582e-01	-2.636056293e-02	2.529328406e-14
3.092000000e-01	1.925614178e-01	-2.635178957e-02	6.956618765e-14
3.093000000e-01	1.925925722e-01	-2.634302271e-02	1.980783618e-13
3.094000000e-01	1.926237215e-01	-2.633426235e-02	3.719736983e-13
3.095000000e-01	1.926548658e-01	-2.632550848e-02	1.611979160e-13
3.096000000e-01	1.926860050e-01	-2.631676109e-02	4.369013409e-13
3.097000000e-01	1.927171391e-01	-2.630802018e-02	1.324997292e-13
3.098000000e-01	1.927482681e-01	-2.629928574e-02	2.568066058e-13
3.099000000e-01	1.927793920e-01	-2.629055775e-02	1.982160901e-13
3.100000000e-01	1.928105109e-01	-2.628183623e-02	1.141118805e-12
3.102000000e-01	1.928727334e-01	-2.626441251e-02	4.804853010e-14
3.103000000e-01	1.929038370e-01	-2.625571030e-02	2.454134671e-13
3.104000000e-01	1.929349356e-01	-2.624701452e-02	7.216522656e-13
3.105000000e-01	1.929660291e-01	-2.623832516e-02	1.426067520e-13
3.106000000e-01	1.929971176e-01	-2.622964222e-02	2.826348457e-13
3.107000000e-01	1.930282010e-01	-2.622096568e-02	3.171566325e-14
3.108000000e-01	1.930592793e-01	-2.621229554e-02	2.140019424e-13
3.109000000e-01	1.930903526e-01	-2.620363179e-02	2.973640746e-13
3.110000000e-01	1.931214208e-01	-2.619497442e-02	1.713863567e-13
3.111000000e-01	1.931524840e-01	-2.618632343e-02	1.516844579e-13
3.112000000e-01	1.931835422e-01	-2.617767882e-02	3.811365148e-13
3.113000000e-01	1.932145952e-01	-2.616904057e-02	2.735737123e-13
3.114000000e-01	1.932456433e-01	-2.616040867e-02	2.106891811e-13
3.115000000e-01	1.932766863e-01	-2.615178313e-02	1.639744689e-13
3.116000000e-01	1.933077243e-01	-2.614316393e-02	2.613622025e-13
3.117000000e-01	1.933387572e-01	-2.613455106e-02	3.349992890e-13
3.118000000e-01	1.933697851e-01	-2.612594453e-02	2.836795124e-13
3.119000000e-01	1.934008080e-01	-2.611734432e-02	3.864815298e-13
3.120000000e-01	1.934318259e-01	-2.610875042e-02	1.216015811e-13
3.121000000e-01	1.934628387e-01	-2.610016284e-02	1.019660781e-13
3.122000000e-01	1.934938465e-01	-2.609158156e-02	2.599669474e-13
3.123000000e-01	1.935248493e-01	-2.608300657e-02	6.978329995e-14
3.124000000e-01	1.935558470e-01	-2.607443787e-02	1.640638624e-13
3.125000000e-01	1.935868398e-01	-2.606587546e-02	2.828976958e-13
3.126000000e-01	1.936178275e-01	-2.605731932e-02	2.177237514e-14
3.127000000e-01	1.936488103e-01	-2.604876944e-02	6.921539989e-13
3.128000000e-01	1.936797880e-01	-2.604022583e-02	3.159724315e-13
3.129000000e-01	1.937107607e-01	-2.603168848e-02	2.104705857e-13
3.130000000e-01	1.937417284e-01	-2.602315737e-02	2.736461339e-13
3.131000000e-01	1.937726911e-01	-2.601463251e-02	3.803750243e-14
3.132000000e-01	1.938036488e-01	-2.600611388e-02	2.166026989e-13
3.133000000e-01	1.938346015e-01	-2.599760148e-02	3.054893713e-13
3.134000000e-01	1.938655492e-01	-2.598909530e-02	9.725687767e-13
3.135000000e-01	1.938964920e-01	-2.598059534e-02	2.471944788e-13
3.136000000e-01	1.939274297e-01	-2.597210158e-02	1.414608354e-13
3.137000000e-01	1.939583625e-01	-2.596361403e-02	4.588776733e-13
3.138000000e-01	1.939892902e-01	-2.595513267e-02	2.438165443e-13
3.140000000e-01	1.940511308e-01	-2.593818851e-02	4.682901205e-14
3.141000000e-01	1.940820437e-01	-2.592972569e-02	6.069911261e-14
3.142000000e-01	1.941129515e-01	-2.592126905e-02	2.825893526e-13
3.143000000e-01	1.941438544e-01	-2.591281856e-02	4.653936775e-14
3.144000000e-01	1.941747523e-01	-2.590437423e-02	1.523631207e-13
3.145000000e-01	1.942056452e-01	-2.589593605e-02	1.747128110e-13
3.146000000e-01	1.942365332e-01	-2.588750401e-02	3.007653192e-13
3.147000000e-01	1.942674162e-01	-2.587907811e-02	8.250198654e-13
3.148000000e-01	1.942982943e-01	-2.587065834e-02	1.693715783e-13
3.149000000e-01	1.943291674e-01	-2.586224468e-02	4.668474440e-13
3.150000000e-01	1.943600355e-01	-2.585383715e-02	2.952729045e-13
3.151000000e-01	1.943908987e-01	-2.584543572e-02	1.014603834e-13
3.152000000e-01	1.944217570e-01	-2.583704040e-02	6.437643904e-13
3.153000000e-01	1.944526102e-01	-2.582865117e-02	2.566778464e-13
3.154000000e-01	1.944834586e-01	-2.582026803e-02	6.839076751e-13
3.155000000e-01	1.945143020e-01	-2.581189098e-02	2.311854298e-13
3.156000000e-01	1.945451404e-01	-2.580352000e-02	2.726096193e-13
3.157000000e-01	1.945759739e-01	-2.579515509e-02	9.735348434e-14
3.158000000e-01	1.946068025e-01	-2.578679624e-02	2.612507462e-13
3.159000000e-01	1.946376262e-01	-2.577844346e-02	5.006379616e-13
3.160000000e-01	1.946684449e-01	-2.577009672e-02	2.432061868e-13
3.161000000e-01	1.946992587e-01	-2.576175603e-02	3.361339576e-13
3.163000000e-01	1.947608714e-01	-2.574509275e-02	2.243550718e-13
3.164000000e-01	1.947916704e-01	-2.573677015e-02	3.249604054e-13
3.166000000e-01	1.948532537e-01	-2.572014301e-02	1.289205360e-13
3.167000000e-01	1.948840379e-01	-2.571183845e-02	1.355486891e-13
3.168000000e-01	1.949148173e-01	-2.570353989e-02	4.671484091e-13
3.169000000e-01	1.949455917e-01	-2.569524732e-02	3.256483996e-13
3.170000000e-01	1.949763612e-01	-2.568696074e-02	3.641065479e-13
3.171000000e-01	1.950071258e-01	-2.567868013e-02	6.660256928e-13
3.172000000e-01	1.950378855e-01	-2.567040551e-02	2.472091573e-13
3.173000000e-01	1.950686403e-01	-2.566213685e-02	2.136403621e-13
3.174000000e-01	1.950993902e-01	-2.565387415e-02	2.197777976e-13
3.175000000e-01	1.951301352e-01	-2.564561741e-02	1.227552388e-13
3.176000000e-01	1.951608753e-01	-2.563736661e-02	4.240000668e-13
3.177000000e-01	1.951916105e-01	-2.562912176e-02	3.272013330e-13
3.178000000e-01	1.952223408e-01	-2.562088284e-02	1.036648172e-13
3.179000000e-01	1.952530663e-01	-2.561264986e-02	3.221774778e-13
3.180000000e-01	1.952837868e-01	-2.560442280e-02	1.432815726e-13
3.181000000e-01	1.953145025e-01	-2.559620165e-02	1.530800033e-13
3.182000000e-01	1.953452133e-01	-2.558798642e-02	3.420852725e-13
3.183000000e-01	1.953759192e-01	-2.557977709e-02	2.707866175e-13
3.184000000e-01	1.954066202e-01	-2.557157366e-02	3.865840950e-13
3.185000000e-01	1.954373163e-01	-2.556337612e-02	2.014092162e-13
3.186000000e-01	1.954680076e-01	-2.555518447e-02	1.953416244e-13
3.187000000e-01	1.954986940e-01	-2.554699869e-02	1.843475750e-13
3.188000000e-01	1.955293755e-01	-2.553881879e-02	1.194132314e-13
3.189000000e-01	1.955600522e-01	-2.553064476e-02	7.329508989e-13
3.190000000e-01	1.955907240e-01	-2.552247659e-02	6.126060409e-13
3.191000000e-01	1.956213910e-01	-2.551431428e-02	7.119746338e-14
3.193000000e-01	1.956827103e-01	-2.549800719e-02	1.043517098e-13
3.194000000e-01	1.957133627e-01	-2.548986240e-02	7.546662707e-13
3.195000000e-01	1.957440102e-01	-2.548172344e-02	7.111612157e-13
3.196000000e-01	1.957746529e-01	-2.547359031e-02	5.038883474e-13
3.198000000e-01	1.958359237e-01	-2.545734149e-02	4.470608308e-13
3.199000000e-01	1.958665518e-01	-2.544922580e-02	1.799481822e-13
3.201000000e-01	1.959277936e-01	-2.543301180e-02	2.759730467e-13
3.202000000e-01	1.959584072e-01	-2.542491348e-02	3.148975004e-13
3.203000000e-01	1.959890160e-01	-2.541682095e-02	1.664202357e-13
3.204000000e-01	1.960196200e-01	-2.540873419e-02	1.209308647e-13
3.205000000e-01	1.960502191e-01	-2.540065320e-02	1.508040087e-13
3.206000000e-01	1.960808134e-01	-2.539257798e-02	2.765035961e-13
3.208000000e-01	1.961419876e-01	-2.537644479e-02	2.764777918e-14
3.209000000e-01	1.961725674e-01	-2.536838682e-02	2.613864229e-13
3.210000000e-01	1.962031424e-01	-2.536033459e-02	1.917265246e-13
3.212000000e-01	1.962642780e-01	-2.534424732e-02	4.198096545e-14
3.213000000e-01	1.962948386e-01	-2.533621227e-02	6.472169181e-14
3.215000000e-01	1.963559453e-01	-2.532015930e-02	3.288040595e-13
3.216000000e-01	1.963864915e-01	-2.531214138e-02	6.978530953e-14
3.217000000e-01	1.964170328e-01	-2.530412915e-02	3.129881493e-13
3.218000000e-01	1.964475694e-01	-2.529612262e-02	1.129845733e-13
3.219000000e-01	1.964781011e-01	-2.528812177e-02	2.018745052e-13
3.221000000e-01	1.965391503e-01	-2.527213710e-02	4.622359978e-13
3.222000000e-01	1.965696676e-01	-2.526415327e-02	1.911410655e-13
3.224000000e-01	1.966306880e-01	-2.524820259e-02	2.485207766e-13
3.225000000e-01	1.966611910e-01	-2.524023573e-02	1.355431306e-13
3.226000000e-01	1.966916893e-01	-2.523227451e-02	8.926192148e-13
3.227000000e-01	1.967221827e-01	-2.522431893e-02	1.719925740e-13
3.229000000e-01	1.967831553e-01	-2.520842466e-02	5.088860321e-13
3.231000000e-01	1.968441088e-01	-2.519255287e-02	8.555851861e-14
3.232000000e-01	1.968745784e-01	-2.518462539e-02	2.247578724e-13
3.233000000e-01	1.969050432e-01	-2.517670352e-02	4.788573283e-13
3.234000000e-01	1.969355032e-01	-2.516878724e-02	3.346605139e-13
3.235000000e-01	1.969659585e-01	-2.516087655e-02	7.537777504e-14
3.236000000e-01	1.969964090e-01	-2.515297145e-02	4.145869582e-13
3.239000000e-01	1.970877321e-01	-2.512928960e-02	2.413556079e-13
3.240000000e-01	1.971181636e-01	-2.512140678e-02	4.025883018e-13
3.241000000e-01	1.971485904e-01	-2.511352952e-02	9.405198181e-14
3.242000000e-01	1.971790124e-01	-2.510565781e-02	4.224151739e-13
3.243000000e-01	1.972094297e-01	-2.509779164e-02	5.860001402e-13
3.245000000e-01	1.972702500e-01	-2.508207592e-02	3.367929263e-13
3.246000000e-01	1.973006530e-01	-2.507422636e-02	1.256382937e-14
3.248000000e-01	1.973614449e-01	-2.505854379e-02	1.142057770e-13
3.249000000e-01	1.973918337e-01	-2.505071077e-02	2.079528547e-13
3.250000000e-01	1.974222179e-01	-2.504288326e-02	1.329254187e-13
3.251000000e-01	1.974525972e-01	-2.503506125e-02	1.069455317e-13
3.252000000e-01	1.974829719e-01	-2.502724473e-02	1.429999646e-13
3.253000000e-01	1.975133418e-01	-2.501943370e-02	3.531958491e-13
3.254000000e-01	1.975437071e-01	-2.501162815e-02	1.296999444e-13
3.255000000e-01	1.975740676e-01	-2.500382807e-02	2.493177226e-13
3.256000000e-01	1.976044233e-01	-2.499603347e-02	3.279931724e-13
3.257000000e-01	1.976347744e-01	-2.498824434e-02	1.871293420e-13
3.259000000e-01	1.976954624e-01	-2.497268243e-02	4.783127710e-13
3.260000000e-01	1.977257994e-01	-2.496490966e-02	8.448101564e-14
3.261000000e-01	1.977561316e-01	-2.495714233e-02	1.584916434e-13
3.262000000e-01	1.977864591e-01	-2.494938043e-02	2.679211167e-14
3.263000000e-01	1.978167819e-01	-2.494162397e-02	2.876544077e-13
3.264000000e-01	1.978471001e-01	-2.493387293e-02	1.441919898e-13
3.265000000e-01	1.978774135e-01	-2.492612731e-02	4.535950886e-13
3.266000000e-01	1.979077222e-01	-2.491838710e-02	3.468807092e-13
3.267000000e-01	1.979380263e-01	-2.491065231e-02	2.810294140e-14
3.268000000e-01	1.979683256e-01	-2.490292292e-02	1.467724212e-13
3.269000000e-01	1.979986203e-01	-2.489519893e-02	6.812887203e-15
3.270000000e-01	1.980289103e-01	-2.488748032e-02	1.509629123e-13
3.271000000e-01	1.980591956e-01	-2.487976711e-02	1.308890099e-14
3.272000000e-01	1.980894762e-01	-2.487205928e-02	9.363277463e-14
3.273000000e-01	1.981197521e-01	-2.486435682e-02	5.526270004e-14
3.274000000e-01	1.981500233e-01	-2.485665973e-02	1.049697495e-13
3.275000000e-01	1.981802899e-01	-2.484896801e-02	9.764698746e-14
3.276000000e-01	1.982105518e-01	-2.484128165e-02	8.573115351e-14
3.277000000e-01	1.982408090e-01	-2.483360064e-02	3.744662794e-13
3.278000000e-01	1.982710616e-01	-2.482592498e-02	3.870069913e-13
3.279000000e-01	1.983013095e-01	-2.481825466e-02	5.583215242e-14
3.280000000e-01	1.983315527e-01	-2.481058968e-02	3.933204412e-13
3.281000000e-01	1.983617913e-01	-2.480293003e-02	5.731660323e-13
3.282000000e-01	1.983920252e-01	-2.479527571e-02	1.420683370e-13
3.283000000e-01	1.984222544e-01	-2.478762671e-02	2.635563891e-13
3.284000000e-01	1.984524790e-01	-2.477998302e-02	2.875012450e-13
3.285000000e-01	1.984826990e-01	-2.477234464e-02	2.676573026e-13
3.286000000e-01	1.985129143e-01	-2.476471157e-02	3.155546611e-13
3.287000000e-01	1.985431249e-01	-2.475708380e-02	9.269099661e-14
3.288000000e-01	1.985733309e-01	-2.474946132e-02	5.255445438e-13
3.289000000e-01	1.986035322e-01	-2.474184413e-02	3.067396957e-14
3.290000000e-01	1.986337289e-01	-2.473423222e-02	2.201417034e-13
3.291000000e-01	1.986639210e-01	-2.472662559e-02	3.635606119e-13
3.292000000e-01	1.986941084e-01	-2.471902423e-02	6.125763807e-13
3.293000000e-01	1.987242911e-01	-2.471142814e-02	3.350719824e-13
3.294000000e-01	1.987544693e-01	-2.470383731e-02	2.225541455e-13
3.295000000e-01	1.987846428e-01	-2.469625173e-02	1.596364638e-13
3.297000000e-01	1.988449759e-01	-2.468109633e-02	3.165899588e-13
3.298000000e-01	1.988751355e-01	-2.467352649e-02	7.424400013e-14
3.300000000e-01	1.989354409e-01	-2.465840252e-02	7.531701894e-13
3.302000000e-01	1.989957278e-01	-2.464329943e-02	2.465172526e-13
3.303000000e-01	1.990258643e-01	-2.463575571e-02	2.340193460e-13
3.304000000e-01	1.990559962e-01	-2.462821720e-02	9.890155846e-13
3.305000000e-01	1.990861235e-01	-2.462068389e-02	4.754386345e-13
3.306000000e-01	1.991162461e-01	-2.461315578e-02	4.089159124e-13
3.307000000e-01	1.991463642e-01	-2.460563286e-02	9.257875369e-14
3.308000000e-01	1.991764777e-01	-2.459811513e-02	6.573585774e-14
3.309000000e-01	1.992065865e-01	-2.459060258e-02	3.492388374e-13
3.310000000e-01	1.992366908e-01	-2.458309521e-02	4.479329798e-13
3.311000000e-01	1.992667904e-01	-2.457559300e-02	2.487260391e-13
3.312000000e-01	1.992968855e-01	-2.456809597e-02	2.309857037e-13
3.313000000e-01	1.993269760e-01	-2.456060409e-02	5.069940075e-13
3.314000000e-01	1.993570618e-01	-2.455311737e-02	1.301370974e-13
3.316000000e-01	1.994172198e-01	-2.453815937e-02	1.622091509e-13
3.317000000e-01	1.994472919e-01	-2.453068808e-02	5.758982778e-14
3.318000000e-01	1.994773594e-01	-2.452322193e-02	1.078535293e-13
3.319000000e-01	1.995074223e-01	-2.451576091e-02	7.835224778e-14
3.320000000e-01	1.995374807e-01	-2.450830501e-02	5.403290007e-14
3.321000000e-01	1.995675344e-01	-2.450085423e-02	1.526831265e-13
3.322000000e-01	1.995975836e-01	-2.449340856e-02	1.411017800e-13
3.323000000e-01	1.996276283e-01	-2.448596800e-02	6.720110884e-14
3.324000000e-01	1.996576683e-01	-2.447853255e-02	3.004896520e-14
3.325000000e-01	1.996877038e-01	-2.447110219e-02	6.382263288e-14
3.326000000e-01	1.997177347e-01	-2.446367693e-02	1.800378609e-13
3.327000000e-01	1.997477610e-01	-2.445625675e-02	3.755798144e-14
3.328000000e-01	1.997777828e-01	-2.444884166e-02	2.178474268e-13
3.329000000e-01	1.998078000e-01	-2.444143165e-02	1.469676055e-13
3.330000000e-01	1.998378126e-01	-2.443402670e-02	5.185800399e-13
3.331000000e-01	1.998678207e-01	-2.442662683e-02	2.074117734e-13
3.332000000e-01	1.998978243e-01	-2.441923202e-02	1.221692419e-13
3.333000000e-01	1.999278233e-01	-2.441184226e-02	1.823096911e-12
3.335000000e-01	1.999878076e-01	-2.439707790e-02	1.900624546e-13
3.337000000e-01	2.000477737e-01	-2.438233371e-02	3.234988151e-13
