# mu [eV]     Omega/c [1/micrones]    Im(epsi1)     Eq(det).Opt det con kz, R=0.5 \mum, Re(epsi1)=3.90, kz = 0.1400 1/\mum, solve_det_conkz_vs_mu.py
3.040000000e-01	2.696583736e-01	-2.937650970e-02	1.104398267e-11
3.050000000e-01	2.701040210e-01	-2.925892755e-02	3.353285560e-12
3.060000000e-01	2.705489311e-01	-2.914227477e-02	1.670454534e-12
3.070000000e-01	2.709931077e-01	-2.902654084e-02	8.931028732e-12
3.090000000e-01	2.718792744e-01	-2.879778829e-02	3.463098321e-12
3.120000000e-01	2.732031109e-01	-2.846129683e-02	4.909326200e-12
3.130000000e-01	2.736429601e-01	-2.835086375e-02	2.975089875e-13
3.160000000e-01	2.749582662e-01	-2.802462381e-02	2.497710487e-12
3.180000000e-01	2.758316360e-01	-2.781125468e-02	3.691456011e-12
3.200000000e-01	2.767022358e-01	-2.760110150e-02	1.202674101e-11
3.210000000e-01	2.771365051e-01	-2.749720918e-02	1.197760255e-12
3.240000000e-01	2.784352289e-01	-2.719016796e-02	2.173685091e-12
3.250000000e-01	2.788667859e-01	-2.708933868e-02	9.890386572e-13
3.260000000e-01	2.792976728e-01	-2.698925483e-02	5.839709873e-12
3.280000000e-01	2.801574481e-01	-2.679129197e-02	5.285821782e-13
3.290000000e-01	2.805863426e-01	-2.669339746e-02	3.164913061e-12
3.300000000e-01	2.810145791e-01	-2.659621743e-02	7.797273738e-12
3.310000000e-01	2.814421606e-01	-2.649974438e-02	2.994215745e-12
3.330000000e-01	2.822953702e-01	-2.630888984e-02	1.786860946e-12
3.340000000e-01	2.827210042e-01	-2.621449388e-02	7.492564286e-12
3.360000000e-01	2.835703453e-01	-2.602772914e-02	3.538655721e-12
3.380000000e-01	2.844171360e-01	-2.584362116e-02	3.617002504e-12
3.390000000e-01	2.848395821e-01	-2.575254649e-02	6.035374705e-12
3.400000000e-01	2.852613990e-01	-2.566211584e-02	2.966364052e-12
3.410000000e-01	2.856825897e-01	-2.557232267e-02	3.226728748e-12
3.420000000e-01	2.861031567e-01	-2.548316051e-02	2.296727647e-12
3.440000000e-01	2.869424309e-01	-2.530670385e-02	2.399330870e-12
3.460000000e-01	2.877792434e-01	-2.513269588e-02	2.729766974e-12
3.470000000e-01	2.881967331e-01	-2.504659490e-02	1.166048488e-12
3.480000000e-01	2.886136154e-01	-2.496108793e-02	3.540462967e-12
3.490000000e-01	2.890298928e-01	-2.487616908e-02	3.029515100e-12
3.500000000e-01	2.894455680e-01	-2.479183253e-02	5.669440189e-12
3.510000000e-01	2.898606435e-01	-2.470807255e-02	1.603019774e-12
3.520000000e-01	2.902751219e-01	-2.462488347e-02	6.397430535e-12
3.530000000e-01	2.906890058e-01	-2.454225969e-02	5.397613362e-12
3.540000000e-01	2.911022976e-01	-2.446019568e-02	5.031131385e-13
3.550000000e-01	2.915150000e-01	-2.437868599e-02	3.138266098e-12
3.560000000e-01	2.919271153e-01	-2.429772524e-02	5.223480768e-12
3.570000000e-01	2.923386460e-01	-2.421730809e-02	4.918132275e-12
3.590000000e-01	2.931599637e-01	-2.405808370e-02	1.099462244e-12
3.600000000e-01	2.935697554e-01	-2.397926614e-02	2.355649017e-12
3.610000000e-01	2.939789724e-01	-2.390097157e-02	1.035153077e-12
3.620000000e-01	2.943876169e-01	-2.382319499e-02	5.600733085e-12
3.630000000e-01	2.947956913e-01	-2.374593148e-02	2.093510103e-12
3.650000000e-01	2.956101395e-01	-2.359292422e-02	1.886138496e-12
3.660000000e-01	2.960165179e-01	-2.351717089e-02	1.177850441e-12
3.670000000e-01	2.964223355e-01	-2.344191149e-02	4.140365628e-12
3.680000000e-01	2.968275947e-01	-2.336714138e-02	9.301711390e-13
3.690000000e-01	2.972322977e-01	-2.329285596e-02	3.435135752e-12
3.700000000e-01	2.976364469e-01	-2.321905072e-02	1.116992543e-13
3.710000000e-01	2.980400444e-01	-2.314572119e-02	1.220091432e-12
3.730000000e-01	2.988455934e-01	-2.300047160e-02	3.778683129e-12
3.760000000e-01	3.000498348e-01	-2.278605623e-02	1.440606885e-12
3.770000000e-01	3.004501688e-01	-2.271548994e-02	4.420937554e-12
3.780000000e-01	3.008499664e-01	-2.264536952e-02	4.614483177e-12
3.810000000e-01	3.020461626e-01	-2.243764303e-02	3.759035529e-12
3.830000000e-01	3.028409837e-01	-2.230131479e-02	1.194951223e-12
3.840000000e-01	3.032376076e-01	-2.223378586e-02	4.100806681e-12
3.850000000e-01	3.036337098e-01	-2.216667534e-02	4.897152593e-13
3.860000000e-01	3.040292923e-01	-2.209997948e-02	5.074178811e-12
3.880000000e-01	3.048189064e-01	-2.196781701e-02	7.364636737e-13
3.890000000e-01	3.052129419e-01	-2.190234312e-02	5.232172542e-13
3.930000000e-01	3.067839871e-01	-2.164441370e-02	1.888322534e-12
3.950000000e-01	3.075664786e-01	-2.151778022e-02	7.549672968e-13
3.970000000e-01	3.083469700e-01	-2.139266491e-02	1.930549085e-12
3.990000000e-01	3.091254764e-01	-2.126904155e-02	1.830120560e-12
4.010000000e-01	3.099020126e-01	-2.114688449e-02	3.155463578e-12
4.030000000e-01	3.106765934e-01	-2.102616866e-02	2.752916609e-12
4.040000000e-01	3.110631552e-01	-2.096634352e-02	2.147259425e-12
4.050000000e-01	3.114492335e-01	-2.090686954e-02	7.432296007e-13
4.060000000e-01	3.118348302e-01	-2.084774373e-02	1.771298538e-12
4.080000000e-01	3.126045858e-01	-2.073052489e-02	3.010611128e-12
4.100000000e-01	3.133724363e-01	-2.061466378e-02	2.512386987e-12
4.120000000e-01	3.141383955e-01	-2.050013773e-02	2.250214395e-12
4.130000000e-01	3.145206702e-01	-2.044336839e-02	3.146790042e-12
4.150000000e-01	3.152838183e-01	-2.033080343e-02	1.355693554e-12
4.160000000e-01	3.156646951e-01	-2.027500244e-02	1.510776840e-12
4.170000000e-01	3.160451093e-01	-2.021951891e-02	8.223567387e-13
4.180000000e-01	3.164250625e-01	-2.016435022e-02	3.671112007e-12
4.190000000e-01	3.168045565e-01	-2.010949379e-02	3.147731071e-12
4.200000000e-01	3.171835928e-01	-2.005494705e-02	2.204110918e-12
4.210000000e-01	3.175621731e-01	-2.000070749e-02	2.870099868e-12
4.220000000e-01	3.179402990e-01	-1.994677258e-02	5.348659654e-13
4.240000000e-01	3.186951942e-01	-1.983980686e-02	2.278303453e-12
4.260000000e-01	3.194482912e-01	-1.973403037e-02	2.996831273e-13
4.270000000e-01	3.198241692e-01	-1.968158210e-02	1.912691118e-12
4.280000000e-01	3.201996025e-01	-1.962942401e-02	4.755807852e-12
4.290000000e-01	3.205745925e-01	-1.957755376e-02	1.707818057e-12
4.310000000e-01	3.213232490e-01	-1.947466762e-02	2.148716046e-12
4.320000000e-01	3.216969185e-01	-1.942364719e-02	1.101285963e-13
4.330000000e-01	3.220701509e-01	-1.937290555e-02	3.095481899e-12
4.340000000e-01	3.224429477e-01	-1.932244047e-02	2.720353343e-13
4.350000000e-01	3.228153104e-01	-1.927224978e-02	4.917879431e-12
4.370000000e-01	3.235587395e-01	-1.917268293e-02	2.734192408e-12
4.380000000e-01	3.239298089e-01	-1.912330250e-02	2.260037871e-12
4.390000000e-01	3.243004501e-01	-1.907418793e-02	1.684403405e-13
4.420000000e-01	3.254098196e-01	-1.892841874e-02	3.476363534e-12
4.430000000e-01	3.257787628e-01	-1.888034706e-02	2.354865135e-12
4.440000000e-01	3.261472851e-01	-1.883253108e-02	3.364954699e-13
4.460000000e-01	3.268830727e-01	-1.873765828e-02	1.341430935e-13
4.480000000e-01	3.276171936e-01	-1.864378481e-02	1.648653305e-12
4.490000000e-01	3.279836325e-01	-1.859721803e-02	1.900595631e-12
4.500000000e-01	3.283496589e-01	-1.855089540e-02	2.953793745e-12
4.520000000e-01	3.290804798e-01	-1.845897512e-02	1.388785148e-12
4.530000000e-01	3.294452770e-01	-1.841337381e-02	5.055258372e-13
4.540000000e-01	3.298096672e-01	-1.836800931e-02	1.021293582e-12
4.560000000e-01	3.305372318e-01	-1.827798361e-02	3.074752894e-12
4.580000000e-01	3.312631843e-01	-1.818888393e-02	1.786503432e-12
4.610000000e-01	3.323491135e-01	-1.805694058e-02	4.645557411e-12
4.620000000e-01	3.327102953e-01	-1.801340768e-02	4.044933443e-13
4.630000000e-01	3.330710818e-01	-1.797009613e-02	1.765367307e-12
4.640000000e-01	3.334314744e-01	-1.792700428e-02	3.722932742e-12
4.650000000e-01	3.337914745e-01	-1.788413052e-02	2.643738895e-12
4.660000000e-01	3.341510831e-01	-1.784147324e-02	2.362420128e-12
4.670000000e-01	3.345103017e-01	-1.779903085e-02	1.397591480e-12
4.680000000e-01	3.348691314e-01	-1.775680178e-02	5.022664432e-13
4.690000000e-01	3.352275735e-01	-1.771478447e-02	1.073370348e-12
4.700000000e-01	3.355856292e-01	-1.767297736e-02	1.183451564e-12
4.710000000e-01	3.359432998e-01	-1.763137894e-02	2.029325766e-12
4.720000000e-01	3.363005866e-01	-1.758998769e-02	1.465440723e-12
4.730000000e-01	3.366574906e-01	-1.754880211e-02	2.225932223e-12
4.740000000e-01	3.370140132e-01	-1.750782070e-02	4.462281416e-14
4.750000000e-01	3.373701555e-01	-1.746704199e-02	2.203236672e-12
4.770000000e-01	3.380813042e-01	-1.738608688e-02	1.241633430e-12
4.780000000e-01	3.384363129e-01	-1.734590759e-02	1.380690361e-12
4.790000000e-01	3.387909462e-01	-1.730592525e-02	1.136940142e-12
4.810000000e-01	3.394990909e-01	-1.722654580e-02	3.203882453e-13
4.830000000e-01	3.402057478e-01	-1.714793745e-02	5.398091517e-13
4.840000000e-01	3.405585211e-01	-1.710891903e-02	2.884335539e-12
4.850000000e-01	3.409109259e-01	-1.707008931e-02	1.450497416e-12
4.870000000e-01	3.416146346e-01	-1.699299070e-02	1.453687080e-12
4.890000000e-01	3.423168827e-01	-1.691663112e-02	1.030632376e-12
4.910000000e-01	3.430176794e-01	-1.684100027e-02	6.035384594e-13
4.920000000e-01	3.433675362e-01	-1.680345495e-02	4.523955193e-13
4.930000000e-01	3.437170334e-01	-1.676608804e-02	1.002615972e-12
4.940000000e-01	3.440661722e-01	-1.672889830e-02	2.003492221e-12
4.950000000e-01	3.444149536e-01	-1.669188450e-02	1.108778738e-12
4.970000000e-01	3.451114485e-01	-1.661837988e-02	9.573260690e-13
4.980000000e-01	3.454591643e-01	-1.658188668e-02	2.978991825e-13
4.990000000e-01	3.458065269e-01	-1.654556462e-02	7.268155677e-13
5.030000000e-01	3.471924679e-01	-1.640196469e-02	2.605572764e-12
5.040000000e-01	3.475380810e-01	-1.636648105e-02	2.936142146e-13
5.060000000e-01	3.482282679e-01	-1.629600551e-02	1.311643409e-12
5.070000000e-01	3.485728438e-01	-1.626101140e-02	1.737042690e-12
5.090000000e-01	3.492609653e-01	-1.619150505e-02	1.630555510e-12
5.100000000e-01	3.496045131e-01	-1.615699066e-02	2.769923326e-13
5.110000000e-01	3.499477201e-01	-1.612263403e-02	7.556387596e-13
5.120000000e-01	3.502905875e-01	-1.608843411e-02	6.799109292e-14
5.130000000e-01	3.506331163e-01	-1.605438987e-02	5.795703623e-13
5.140000000e-01	3.509753073e-01	-1.602050026e-02	8.327914444e-13
5.150000000e-01	3.513171616e-01	-1.598676427e-02	3.216353435e-12
5.160000000e-01	3.516586802e-01	-1.595318086e-02	6.067526208e-13
5.170000000e-01	3.519998640e-01	-1.591974904e-02	1.711782668e-12
5.180000000e-01	3.523407141e-01	-1.588646781e-02	3.072024869e-13
5.190000000e-01	3.526812314e-01	-1.585333617e-02	2.286377892e-12
5.200000000e-01	3.530214168e-01	-1.582035314e-02	3.997512024e-13
5.210000000e-01	3.533612713e-01	-1.578751775e-02	3.650501567e-13
5.230000000e-01	3.540399915e-01	-1.572228604e-02	2.888759762e-12
5.250000000e-01	3.547173995e-01	-1.565763339e-02	1.782957637e-13
5.270000000e-01	3.553935028e-01	-1.559355231e-02	1.160707669e-12
5.280000000e-01	3.557310675e-01	-1.556172380e-02	3.317165817e-12
5.290000000e-01	3.560683088e-01	-1.553003544e-02	1.415782977e-12
5.300000000e-01	3.564052277e-01	-1.549848630e-02	1.444314920e-12
5.320000000e-01	3.570781016e-01	-1.543580217e-02	2.542329922e-13
5.330000000e-01	3.574140585e-01	-1.540466540e-02	2.937396545e-13
5.350000000e-01	3.580850166e-01	-1.534279811e-02	4.452037864e-12
5.360000000e-01	3.584200196e-01	-1.531206586e-02	1.083892377e-13
5.380000000e-01	3.590890779e-01	-1.525099990e-02	1.639902715e-12
5.410000000e-01	3.600903096e-01	-1.516038475e-02	3.438018459e-14
5.420000000e-01	3.604234287e-01	-1.513043875e-02	1.245383091e-12
5.440000000e-01	3.610887350e-01	-1.507093044e-02	9.186692162e-13
5.450000000e-01	3.614209239e-01	-1.504136654e-02	1.943067255e-12
5.480000000e-01	3.624156437e-01	-1.495342636e-02	2.145668342e-12
5.490000000e-01	3.627466041e-01	-1.492436089e-02	1.019106464e-12
5.500000000e-01	3.630772596e-01	-1.489541810e-02	1.148050271e-12
5.510000000e-01	3.634076108e-01	-1.486659724e-02	4.003468949e-13
5.520000000e-01	3.637376588e-01	-1.483789754e-02	3.661096382e-13
5.530000000e-01	3.640674042e-01	-1.480931827e-02	1.527910997e-12
5.550000000e-01	3.647259907e-01	-1.475251805e-02	2.366737638e-12
5.560000000e-01	3.650548334e-01	-1.472429563e-02	3.496971193e-12
5.570000000e-01	3.653833769e-01	-1.469619071e-02	3.540171562e-12
5.580000000e-01	3.657116220e-01	-1.466820258e-02	1.025711675e-12
5.590000000e-01	3.660395693e-01	-1.464033051e-02	2.213009345e-12
5.610000000e-01	3.666945743e-01	-1.458493177e-02	1.010252802e-12
5.620000000e-01	3.670216335e-01	-1.455740370e-02	1.229920162e-12
5.630000000e-01	3.673483982e-01	-1.452998891e-02	1.405711370e-12
5.640000000e-01	3.676748692e-01	-1.450268672e-02	1.801080803e-12
5.650000000e-01	3.680010473e-01	-1.447549645e-02	1.263334828e-12
5.670000000e-01	3.686525279e-01	-1.442144897e-02	1.027770870e-12
5.680000000e-01	3.689778319e-01	-1.439459044e-02	9.160666989e-13
5.690000000e-01	3.693028460e-01	-1.436784117e-02	1.321455491e-12
5.720000000e-01	3.702761572e-01	-1.428824241e-02	4.239777402e-13
5.730000000e-01	3.706000197e-01	-1.426192371e-02	2.410144101e-12
5.740000000e-01	3.709235962e-01	-1.423571105e-02	1.069732567e-12
5.760000000e-01	3.715698939e-01	-1.418360138e-02	9.793741165e-13
5.770000000e-01	3.718926167e-01	-1.415770313e-02	1.686422030e-13
5.780000000e-01	3.722150564e-01	-1.413190844e-02	8.352343774e-14
5.790000000e-01	3.725372138e-01	-1.410621672e-02	1.764226071e-12
5.800000000e-01	3.728590896e-01	-1.408062735e-02	5.891157305e-13
5.820000000e-01	3.735019993e-01	-1.402975331e-02	1.137779572e-12
5.830000000e-01	3.738230346e-01	-1.400446744e-02	5.523527430e-13
5.840000000e-01	3.741437913e-01	-1.397928157e-02	3.795665885e-13
5.860000000e-01	3.747844712e-01	-1.392920747e-02	5.869028454e-13
5.870000000e-01	3.751043960e-01	-1.390431809e-02	1.945681350e-12
5.880000000e-01	3.754240449e-01	-1.387952642e-02	1.542754458e-12
5.890000000e-01	3.757434187e-01	-1.385483187e-02	2.059692702e-12
5.900000000e-01	3.760625180e-01	-1.383023389e-02	2.975610459e-12
5.910000000e-01	3.763813435e-01	-1.380573192e-02	6.583956261e-13
5.920000000e-01	3.766998959e-01	-1.378132543e-02	1.360592452e-12
5.930000000e-01	3.770181760e-01	-1.375701384e-02	3.731055099e-13
5.950000000e-01	3.776539218e-01	-1.370867327e-02	2.505563024e-12
5.960000000e-01	3.779713889e-01	-1.368464321e-02	1.222135347e-12
5.980000000e-01	3.786055148e-01	-1.363686087e-02	9.178171625e-13
5.990000000e-01	3.789221749e-01	-1.361310754e-02	6.846054144e-13
6.000000000e-01	3.792385675e-01	-1.358944542e-02	6.504833799e-13
6.010000000e-01	3.795546931e-01	-1.356587399e-02	1.027764223e-12
6.020000000e-01	3.798705524e-01	-1.354239274e-02	1.254234030e-12
6.040000000e-01	3.805014749e-01	-1.349569874e-02	1.914031004e-12
6.060000000e-01	3.811313402e-01	-1.344935941e-02	3.303564309e-13
6.070000000e-01	3.814458780e-01	-1.342632151e-02	1.296576194e-12
6.090000000e-01	3.820741673e-01	-1.338050678e-02	1.625710974e-13
6.100000000e-01	3.823879200e-01	-1.335772899e-02	2.183018034e-12
6.110000000e-01	3.827014123e-01	-1.333503695e-02	8.301349953e-13
6.120000000e-01	3.830146449e-01	-1.331243016e-02	1.516671577e-12
6.140000000e-01	3.836403332e-01	-1.326747052e-02	1.262668648e-12
6.160000000e-01	3.842649900e-01	-1.322284633e-02	8.164434472e-13
6.170000000e-01	3.845769332e-01	-1.320065888e-02	1.758327241e-12
6.180000000e-01	3.848886204e-01	-1.317855392e-02	8.821778337e-13
6.190000000e-01	3.852000522e-01	-1.315653100e-02	8.131583067e-13
6.200000000e-01	3.855112293e-01	-1.313458966e-02	1.273487433e-12
6.220000000e-01	3.861328217e-01	-1.309094997e-02	6.679083545e-13
6.230000000e-01	3.864432382e-01	-1.306925074e-02	1.640365453e-12
6.250000000e-01	3.870633149e-01	-1.302609132e-02	8.911857025e-13
6.260000000e-01	3.873729763e-01	-1.300463027e-02	1.093539924e-12
6.270000000e-01	3.876823872e-01	-1.298324776e-02	5.729000484e-13
6.280000000e-01	3.879915483e-01	-1.296194336e-02	2.502442437e-13
6.290000000e-01	3.883004600e-01	-1.294071666e-02	8.074805368e-13
6.300000000e-01	3.886091230e-01	-1.291956723e-02	1.696169655e-12
6.310000000e-01	3.889175379e-01	-1.289849466e-02	1.806377342e-12
6.320000000e-01	3.892257053e-01	-1.287749855e-02	1.466426761e-12
6.330000000e-01	3.895336258e-01	-1.285657847e-02	4.439113061e-13
6.340000000e-01	3.898412999e-01	-1.283573403e-02	8.178773074e-13
6.350000000e-01	3.901487283e-01	-1.281496482e-02	3.333227816e-14
6.360000000e-01	3.904559115e-01	-1.279427044e-02	4.597241364e-13
6.370000000e-01	3.907628500e-01	-1.277365049e-02	7.492355352e-13
6.390000000e-01	3.913759956e-01	-1.273263232e-02	2.321423750e-12
6.400000000e-01	3.916822038e-01	-1.271223332e-02	3.906985776e-13
6.410000000e-01	3.919881697e-01	-1.269190719e-02	5.569112628e-13
6.420000000e-01	3.922938938e-01	-1.267165354e-02	4.223226169e-13
6.430000000e-01	3.925993767e-01	-1.265147200e-02	2.391115654e-12
6.440000000e-01	3.929046190e-01	-1.263136218e-02	1.067689389e-12
6.460000000e-01	3.935143840e-01	-1.259135623e-02	1.270003117e-12
6.470000000e-01	3.938189077e-01	-1.257145934e-02	1.900191709e-12
6.480000000e-01	3.941231931e-01	-1.255163270e-02	7.468638221e-13
6.490000000e-01	3.944272406e-01	-1.253187592e-02	8.055433658e-13
6.500000000e-01	3.947310509e-01	-1.251218865e-02	6.152579046e-13
6.510000000e-01	3.950346243e-01	-1.249257053e-02	1.189762926e-12
6.520000000e-01	3.953379616e-01	-1.247302120e-02	1.988408276e-13
6.530000000e-01	3.956410632e-01	-1.245354030e-02	7.504088823e-13
6.540000000e-01	3.959439297e-01	-1.243412748e-02	1.014394335e-13
6.550000000e-01	3.962465616e-01	-1.241478239e-02	4.065795361e-13
6.560000000e-01	3.965489595e-01	-1.239550467e-02	1.514605493e-12
6.570000000e-01	3.968511239e-01	-1.237629399e-02	1.128699442e-12
6.580000000e-01	3.971530552e-01	-1.235714999e-02	1.890598470e-12
6.600000000e-01	3.977562212e-01	-1.231906070e-02	3.201264395e-13
6.610000000e-01	3.980574568e-01	-1.230011472e-02	4.223107169e-13
6.620000000e-01	3.983584615e-01	-1.228123408e-02	1.095567091e-12
6.630000000e-01	3.986592359e-01	-1.226241844e-02	2.530548093e-13
6.640000000e-01	3.989597805e-01	-1.224366747e-02	6.155112996e-13
6.650000000e-01	3.992600958e-01	-1.222498084e-02	1.012765450e-12
6.660000000e-01	3.995601823e-01	-1.220635822e-02	1.595373997e-12
6.670000000e-01	3.998600405e-01	-1.218779930e-02	1.736031473e-12
6.680000000e-01	4.001596710e-01	-1.216930375e-02	9.473418988e-13
6.700000000e-01	4.007582506e-01	-1.213250147e-02	8.790045838e-13
6.710000000e-01	4.010572009e-01	-1.211419411e-02	2.751674840e-13
6.720000000e-01	4.013559254e-01	-1.209594886e-02	5.220606500e-13
6.750000000e-01	4.022507495e-01	-1.204158261e-02	7.684064349e-13
6.760000000e-01	4.025485761e-01	-1.202358267e-02	8.480104331e-13
6.770000000e-01	4.028461795e-01	-1.200564330e-02	9.462925054e-13
6.780000000e-01	4.031435601e-01	-1.198776419e-02	6.920894630e-13
6.790000000e-01	4.034407185e-01	-1.196994505e-02	1.382355762e-12
6.800000000e-01	4.037376552e-01	-1.195218557e-02	7.952134060e-13
6.810000000e-01	4.040343705e-01	-1.193448546e-02	7.531959553e-13
6.820000000e-01	4.043308651e-01	-1.191684444e-02	1.681668446e-12
6.830000000e-01	4.046271395e-01	-1.189926220e-02	6.298163066e-13
6.840000000e-01	4.049231940e-01	-1.188173845e-02	7.635087006e-13
6.850000000e-01	4.052190291e-01	-1.186427292e-02	6.655698760e-13
6.870000000e-01	4.058100434e-01	-1.182951533e-02	1.412244456e-12
6.880000000e-01	4.061052235e-01	-1.181222271e-02	1.155678078e-12
6.890000000e-01	4.064001861e-01	-1.179498717e-02	8.377886346e-13
6.900000000e-01	4.066949318e-01	-1.177780842e-02	1.118634085e-12
6.910000000e-01	4.069894610e-01	-1.176068619e-02	3.975639953e-13
6.920000000e-01	4.072837743e-01	-1.174362020e-02	8.464174089e-13
6.930000000e-01	4.075778719e-01	-1.172661018e-02	7.342284843e-13
6.940000000e-01	4.078717546e-01	-1.170965587e-02	1.165248785e-12
6.960000000e-01	4.084588764e-01	-1.167591325e-02	1.175199868e-12
7.000000000e-01	4.096305596e-01	-1.160908462e-02	3.924394989e-13
7.010000000e-01	4.099229496e-01	-1.159251272e-02	1.619588504e-12
7.020000000e-01	4.102151282e-01	-1.157599441e-02	3.278928952e-13
7.030000000e-01	4.105070959e-01	-1.155952943e-02	7.024962894e-13
7.040000000e-01	4.107988531e-01	-1.154311752e-02	1.017613002e-12
7.060000000e-01	4.113817377e-01	-1.151045191e-02	1.796102369e-13
7.070000000e-01	4.116728660e-01	-1.149419770e-02	5.016311438e-13
7.080000000e-01	4.119637857e-01	-1.147799557e-02	5.756063227e-13
7.090000000e-01	4.122544970e-01	-1.146184525e-02	1.120100949e-12
