# mu [eV]     Omega/c [1/micrones]    Im(epsi1)     Eq(det).Opt det con kz, R=0.5 \mum, Re(epsi1)=3.90, kz = 0.0000 1/\mum, solve_det_conkz_vs_mu.py
3.000000000e-01	2.321350251e-01	-2.825804208e-02	7.456921880e-14
3.001000000e-01	2.321738442e-01	-2.824721722e-02	7.324686138e-13
3.002000000e-01	2.322126567e-01	-2.823640092e-02	8.722508847e-13
3.003000000e-01	2.322514627e-01	-2.822559317e-02	1.332075659e-13
3.004000000e-01	2.322902622e-01	-2.821479397e-02	1.388335426e-12
3.005000000e-01	2.323290552e-01	-2.820400329e-02	4.203390876e-13
3.006000000e-01	2.323678416e-01	-2.819322113e-02	6.088579614e-14
3.007000000e-01	2.324066216e-01	-2.818244748e-02	4.474788008e-13
3.008000000e-01	2.324453950e-01	-2.817168233e-02	4.118541023e-13
3.009000000e-01	2.324841619e-01	-2.816092568e-02	3.569096672e-13
3.010000000e-01	2.325229224e-01	-2.815017750e-02	1.305885636e-13
3.011000000e-01	2.325616763e-01	-2.813943780e-02	9.113492122e-16
3.012000000e-01	2.326004237e-01	-2.812870656e-02	7.850622230e-13
3.013000000e-01	2.326391646e-01	-2.811798377e-02	2.338258816e-13
3.014000000e-01	2.326778991e-01	-2.810726942e-02	4.485548787e-13
3.015000000e-01	2.327166270e-01	-2.809656351e-02	1.864154230e-13
3.016000000e-01	2.327553485e-01	-2.808586602e-02	1.638724927e-13
3.017000000e-01	2.327940635e-01	-2.807517695e-02	4.144298494e-13
3.020000000e-01	2.329101696e-01	-2.804316011e-02	9.141246172e-14
3.021000000e-01	2.329488587e-01	-2.803250460e-02	3.033875460e-13
3.022000000e-01	2.329875414e-01	-2.802185745e-02	9.812297010e-14
3.023000000e-01	2.330262176e-01	-2.801121866e-02	7.331803221e-13
3.024000000e-01	2.330648873e-01	-2.800058821e-02	1.505062875e-13
3.025000000e-01	2.331035505e-01	-2.798996611e-02	9.589508890e-14
3.026000000e-01	2.331422074e-01	-2.797935233e-02	3.620934090e-13
3.027000000e-01	2.331808577e-01	-2.796874687e-02	1.773513421e-13
3.028000000e-01	2.332195016e-01	-2.795814972e-02	2.103922996e-13
3.030000000e-01	2.332967702e-01	-2.793698031e-02	5.436491356e-13
3.031000000e-01	2.333353948e-01	-2.792640803e-02	5.832928487e-13
3.032000000e-01	2.333740129e-01	-2.791584402e-02	2.282451765e-13
3.033000000e-01	2.334126247e-01	-2.790528828e-02	1.923298160e-13
3.034000000e-01	2.334512300e-01	-2.789474079e-02	1.467923154e-13
3.035000000e-01	2.334898289e-01	-2.788420154e-02	4.427994245e-13
3.036000000e-01	2.335284214e-01	-2.787367053e-02	5.636851902e-13
3.037000000e-01	2.335670074e-01	-2.786314774e-02	1.053432701e-12
3.038000000e-01	2.336055871e-01	-2.785263317e-02	7.483742641e-13
3.039000000e-01	2.336441603e-01	-2.784212680e-02	9.621388721e-14
3.041000000e-01	2.337212875e-01	-2.782113865e-02	7.918500628e-14
3.042000000e-01	2.337598416e-01	-2.781065685e-02	4.540461606e-13
3.044000000e-01	2.338369304e-01	-2.778971774e-02	4.578027363e-13
3.045000000e-01	2.338754653e-01	-2.777926042e-02	3.244495591e-13
3.046000000e-01	2.339139937e-01	-2.776881124e-02	1.399568900e-13
3.047000000e-01	2.339525158e-01	-2.775837019e-02	1.568765083e-13
3.048000000e-01	2.339910315e-01	-2.774793727e-02	3.927152032e-13
3.049000000e-01	2.340295408e-01	-2.773751246e-02	2.788532720e-13
3.050000000e-01	2.340680437e-01	-2.772709575e-02	4.807135702e-13
3.051000000e-01	2.341065402e-01	-2.771668714e-02	2.439055857e-13
3.052000000e-01	2.341450304e-01	-2.770628662e-02	3.259900192e-14
3.053000000e-01	2.341835142e-01	-2.769589418e-02	5.809318832e-13
3.054000000e-01	2.342219917e-01	-2.768550980e-02	3.273374688e-13
3.055000000e-01	2.342604628e-01	-2.767513349e-02	3.015791607e-13
3.056000000e-01	2.342989275e-01	-2.766476522e-02	2.833251136e-13
3.057000000e-01	2.343373859e-01	-2.765440500e-02	5.711042361e-13
3.058000000e-01	2.343758379e-01	-2.764405281e-02	2.972744098e-13
3.059000000e-01	2.344142836e-01	-2.763370864e-02	3.539510865e-13
3.060000000e-01	2.344527230e-01	-2.762337249e-02	2.600443585e-13
3.061000000e-01	2.344911560e-01	-2.761304434e-02	5.193776682e-13
3.062000000e-01	2.345295826e-01	-2.760272419e-02	1.135021527e-12
3.063000000e-01	2.345680030e-01	-2.759241202e-02	6.932926187e-13
3.064000000e-01	2.346064169e-01	-2.758210784e-02	4.820331078e-13
3.065000000e-01	2.346448246e-01	-2.757181162e-02	8.244027690e-14
3.066000000e-01	2.346832260e-01	-2.756152337e-02	2.725616158e-13
3.067000000e-01	2.347216210e-01	-2.755124307e-02	4.524765387e-13
3.068000000e-01	2.347600097e-01	-2.754097070e-02	1.287280679e-13
3.069000000e-01	2.347983920e-01	-2.753070628e-02	2.506207219e-13
3.070000000e-01	2.348367681e-01	-2.752044978e-02	3.056538212e-13
3.072000000e-01	2.349135013e-01	-2.749996051e-02	4.733498632e-14
3.073000000e-01	2.349518584e-01	-2.748972774e-02	3.814007843e-13
3.074000000e-01	2.349902093e-01	-2.747950285e-02	5.033131162e-13
3.075000000e-01	2.350285538e-01	-2.746928584e-02	2.253008493e-12
3.076000000e-01	2.350668921e-01	-2.745907670e-02	2.900625999e-13
3.077000000e-01	2.351052240e-01	-2.744887543e-02	8.420815258e-14
3.078000000e-01	2.351435497e-01	-2.743868201e-02	3.619754121e-13
3.079000000e-01	2.351818691e-01	-2.742849644e-02	3.262147635e-13
3.080000000e-01	2.352201822e-01	-2.741831870e-02	1.534109133e-13
3.081000000e-01	2.352584890e-01	-2.740814879e-02	3.258303240e-13
3.082000000e-01	2.352967895e-01	-2.739798671e-02	3.563995182e-13
3.083000000e-01	2.353350838e-01	-2.738783243e-02	1.617679298e-13
3.085000000e-01	2.354116535e-01	-2.736754727e-02	1.675523845e-13
3.086000000e-01	2.354499290e-01	-2.735741638e-02	4.149844756e-13
3.087000000e-01	2.354881982e-01	-2.734729326e-02	5.413624182e-13
3.088000000e-01	2.355264611e-01	-2.733717790e-02	4.270442512e-13
3.089000000e-01	2.355647178e-01	-2.732707031e-02	2.907186705e-13
3.090000000e-01	2.356029682e-01	-2.731697046e-02	5.588395190e-14
3.091000000e-01	2.356412124e-01	-2.730687836e-02	4.838871990e-13
3.092000000e-01	2.356794504e-01	-2.729679399e-02	6.661647445e-13
3.093000000e-01	2.357176821e-01	-2.728671735e-02	1.874531834e-13
3.094000000e-01	2.357559075e-01	-2.727664842e-02	2.904985753e-13
3.095000000e-01	2.357941267e-01	-2.726658719e-02	2.770789873e-14
3.096000000e-01	2.358323397e-01	-2.725653367e-02	4.055636496e-13
3.097000000e-01	2.358705465e-01	-2.724648784e-02	1.970609435e-13
3.098000000e-01	2.359087470e-01	-2.723644969e-02	5.823327613e-13
3.099000000e-01	2.359469413e-01	-2.722641921e-02	9.922127932e-14
3.100000000e-01	2.359851294e-01	-2.721639639e-02	3.467913468e-13
3.101000000e-01	2.360233112e-01	-2.720638124e-02	1.297180757e-13
3.102000000e-01	2.360614869e-01	-2.719637373e-02	6.160381719e-13
3.103000000e-01	2.360996563e-01	-2.718637386e-02	4.216131937e-13
3.104000000e-01	2.361378195e-01	-2.717638162e-02	6.842223826e-13
3.105000000e-01	2.361759765e-01	-2.716639700e-02	2.588288501e-13
3.106000000e-01	2.362141273e-01	-2.715642000e-02	1.556555434e-13
3.107000000e-01	2.362522719e-01	-2.714645060e-02	2.587339814e-13
3.108000000e-01	2.362904103e-01	-2.713648880e-02	3.890812732e-13
3.109000000e-01	2.363285425e-01	-2.712653458e-02	4.441076045e-13
3.110000000e-01	2.363666685e-01	-2.711658795e-02	7.343314985e-14
3.111000000e-01	2.364047883e-01	-2.710664889e-02	1.981187583e-13
3.112000000e-01	2.364429020e-01	-2.709671739e-02	1.705676982e-13
3.113000000e-01	2.364810094e-01	-2.708679345e-02	2.321114182e-13
3.114000000e-01	2.365191107e-01	-2.707687706e-02	4.444968393e-13
3.115000000e-01	2.365572058e-01	-2.706696820e-02	6.395503688e-13
3.116000000e-01	2.365952947e-01	-2.705706688e-02	1.944190403e-13
3.117000000e-01	2.366333775e-01	-2.704717307e-02	7.722237971e-13
3.118000000e-01	2.366714541e-01	-2.703728678e-02	5.931336974e-13
3.119000000e-01	2.367095245e-01	-2.702740800e-02	4.223056140e-13
3.120000000e-01	2.367475887e-01	-2.701753671e-02	1.124382105e-13
3.121000000e-01	2.367856468e-01	-2.700767291e-02	2.811315048e-13
3.122000000e-01	2.368236988e-01	-2.699781659e-02	5.858221589e-14
3.123000000e-01	2.368617445e-01	-2.698796775e-02	6.676710578e-14
3.124000000e-01	2.368997842e-01	-2.697812637e-02	2.659111042e-13
3.125000000e-01	2.369378177e-01	-2.696829244e-02	1.747574490e-13
3.126000000e-01	2.369758450e-01	-2.695846596e-02	3.000192552e-14
3.127000000e-01	2.370138662e-01	-2.694864692e-02	4.506345021e-13
3.128000000e-01	2.370518812e-01	-2.693883532e-02	2.279039230e-13
3.129000000e-01	2.370898902e-01	-2.692903114e-02	7.945440135e-13
3.130000000e-01	2.371278930e-01	-2.691923437e-02	2.986021543e-13
3.131000000e-01	2.371658896e-01	-2.690944501e-02	5.973881238e-14
3.133000000e-01	2.372418645e-01	-2.688988847e-02	3.756512352e-13
3.134000000e-01	2.372798428e-01	-2.688012129e-02	6.159368431e-13
3.135000000e-01	2.373178150e-01	-2.687036147e-02	9.753240535e-14
3.136000000e-01	2.373557810e-01	-2.686060903e-02	3.236872506e-13
3.137000000e-01	2.373937410e-01	-2.685086394e-02	1.317817239e-13
3.138000000e-01	2.374316948e-01	-2.684112620e-02	3.148804532e-13
3.139000000e-01	2.374696425e-01	-2.683139580e-02	4.447770645e-13
3.140000000e-01	2.375075841e-01	-2.682167274e-02	6.519480581e-14
3.141000000e-01	2.375455196e-01	-2.681195701e-02	8.823670785e-13
3.142000000e-01	2.375834491e-01	-2.680224859e-02	4.004258015e-13
3.143000000e-01	2.376213724e-01	-2.679254748e-02	2.080537696e-13
3.144000000e-01	2.376592896e-01	-2.678285368e-02	1.094450343e-13
3.145000000e-01	2.376972007e-01	-2.677316717e-02	5.263519907e-13
3.146000000e-01	2.377351058e-01	-2.676348795e-02	4.674182683e-13
3.147000000e-01	2.377730048e-01	-2.675381600e-02	2.649563747e-13
3.148000000e-01	2.378108976e-01	-2.674415133e-02	2.498473620e-13
3.149000000e-01	2.378487844e-01	-2.673449392e-02	4.550637766e-13
3.150000000e-01	2.378866652e-01	-2.672484376e-02	1.754840742e-13
3.151000000e-01	2.379245398e-01	-2.671520085e-02	3.744873008e-13
3.152000000e-01	2.379624084e-01	-2.670556518e-02	3.350173745e-13
3.153000000e-01	2.380002710e-01	-2.669593674e-02	2.544224266e-13
3.154000000e-01	2.380381274e-01	-2.668631553e-02	4.991661962e-13
3.155000000e-01	2.380759778e-01	-2.667670153e-02	5.130624206e-13
3.156000000e-01	2.381138222e-01	-2.666709473e-02	5.541310581e-13
3.157000000e-01	2.381516604e-01	-2.665749514e-02	3.936863822e-12
3.158000000e-01	2.381894927e-01	-2.664790274e-02	2.882510810e-13
3.159000000e-01	2.382273189e-01	-2.663831752e-02	2.293147391e-13
3.160000000e-01	2.382651390e-01	-2.662873948e-02	2.981660807e-13
3.161000000e-01	2.383029531e-01	-2.661916860e-02	1.215719214e-13
3.162000000e-01	2.383407612e-01	-2.660960489e-02	1.634458730e-13
3.163000000e-01	2.383785632e-01	-2.660004833e-02	4.568313146e-13
3.164000000e-01	2.384163592e-01	-2.659049891e-02	4.242611828e-13
3.165000000e-01	2.384541491e-01	-2.658095664e-02	9.051829856e-13
3.166000000e-01	2.384919330e-01	-2.657142149e-02	2.947711608e-13
3.167000000e-01	2.385297109e-01	-2.656189346e-02	2.050469194e-13
3.168000000e-01	2.385674828e-01	-2.655237255e-02	7.545277770e-13
3.169000000e-01	2.386052486e-01	-2.654285874e-02	2.069667363e-13
3.170000000e-01	2.386430085e-01	-2.653335204e-02	7.975084308e-13
3.171000000e-01	2.386807623e-01	-2.652385242e-02	6.876317209e-13
3.172000000e-01	2.387185101e-01	-2.651435989e-02	2.973135622e-13
3.173000000e-01	2.387562519e-01	-2.650487443e-02	2.951671534e-13
3.174000000e-01	2.387939877e-01	-2.649539604e-02	7.056574591e-13
3.175000000e-01	2.388317175e-01	-2.648592471e-02	2.874464144e-13
3.176000000e-01	2.388694413e-01	-2.647646044e-02	3.949802385e-13
3.177000000e-01	2.389071591e-01	-2.646700321e-02	2.214171540e-13
3.178000000e-01	2.389448708e-01	-2.645755302e-02	3.323764241e-14
3.179000000e-01	2.389825766e-01	-2.644810985e-02	7.320019042e-14
3.180000000e-01	2.390202765e-01	-2.643867371e-02	2.401080583e-13
3.182000000e-01	2.390956581e-01	-2.641982247e-02	8.267500501e-14
3.183000000e-01	2.391333400e-01	-2.641040735e-02	2.546059984e-13
3.184000000e-01	2.391710159e-01	-2.640099922e-02	6.064494841e-13
3.185000000e-01	2.392086858e-01	-2.639159808e-02	2.333277924e-13
3.186000000e-01	2.392463497e-01	-2.638220392e-02	5.704964369e-13
3.187000000e-01	2.392840077e-01	-2.637281672e-02	1.530357419e-13
3.188000000e-01	2.393216597e-01	-2.636343649e-02	4.233592484e-13
3.189000000e-01	2.393593057e-01	-2.635406321e-02	1.636170335e-13
3.190000000e-01	2.393969458e-01	-2.634469688e-02	4.287202208e-13
3.192000000e-01	2.394722080e-01	-2.632598503e-02	2.627992351e-13
3.193000000e-01	2.395098302e-01	-2.631663949e-02	4.834497749e-13
3.194000000e-01	2.395474465e-01	-2.630730088e-02	9.272511701e-14
3.195000000e-01	2.395850568e-01	-2.629796917e-02	1.124883978e-13
3.196000000e-01	2.396226612e-01	-2.628864436e-02	1.309578970e-13
3.197000000e-01	2.396602596e-01	-2.627932645e-02	1.825652235e-13
3.198000000e-01	2.396978521e-01	-2.627001543e-02	4.683439300e-15
3.199000000e-01	2.397354386e-01	-2.626071129e-02	3.138970961e-13
3.200000000e-01	2.397730192e-01	-2.625141402e-02	4.529968995e-14
3.202000000e-01	2.398481627e-01	-2.623284007e-02	7.188306549e-15
3.203000000e-01	2.398857255e-01	-2.622356337e-02	2.674306998e-13
3.204000000e-01	2.399232824e-01	-2.621429352e-02	2.595394742e-13
3.205000000e-01	2.399608334e-01	-2.620503051e-02	1.741059565e-13
3.206000000e-01	2.399983784e-01	-2.619577432e-02	3.443045175e-13
3.207000000e-01	2.400359176e-01	-2.618652495e-02	2.755466093e-13
3.208000000e-01	2.400734508e-01	-2.617728240e-02	1.050375123e-13
3.209000000e-01	2.401109782e-01	-2.616804666e-02	6.217167215e-13
3.210000000e-01	2.401484996e-01	-2.615881772e-02	4.190840915e-13
3.211000000e-01	2.401860151e-01	-2.614959556e-02	4.617181120e-13
3.213000000e-01	2.402610285e-01	-2.613117161e-02	2.030870170e-13
3.214000000e-01	2.402985263e-01	-2.612196979e-02	2.399828200e-13
3.216000000e-01	2.403735043e-01	-2.610358643e-02	6.149967036e-13
3.217000000e-01	2.404109845e-01	-2.609440488e-02	2.036724310e-13
3.218000000e-01	2.404484587e-01	-2.608523008e-02	1.822587696e-13
3.219000000e-01	2.404859271e-01	-2.607606200e-02	2.435681276e-13
3.220000000e-01	2.405233897e-01	-2.606690066e-02	1.419442990e-13
3.221000000e-01	2.405608463e-01	-2.605774603e-02	3.203553304e-13
3.222000000e-01	2.405982971e-01	-2.604859812e-02	5.485696944e-13
3.223000000e-01	2.406357420e-01	-2.603945691e-02	1.870344583e-13
3.224000000e-01	2.406731810e-01	-2.603032240e-02	8.892787655e-13
3.225000000e-01	2.407106142e-01	-2.602119459e-02	4.903207123e-13
3.226000000e-01	2.407480415e-01	-2.601207345e-02	2.802496854e-13
3.228000000e-01	2.408228785e-01	-2.599385122e-02	3.781088915e-13
3.229000000e-01	2.408602883e-01	-2.598475010e-02	2.822446173e-13
3.230000000e-01	2.408976922e-01	-2.597565563e-02	2.667537037e-13
3.231000000e-01	2.409350902e-01	-2.596656782e-02	5.157037213e-13
3.232000000e-01	2.409724824e-01	-2.595748664e-02	1.138832476e-13
3.233000000e-01	2.410098688e-01	-2.594841210e-02	2.130103872e-13
3.234000000e-01	2.410472493e-01	-2.593934419e-02	3.619637407e-13
3.236000000e-01	2.411219928e-01	-2.592122823e-02	6.823835752e-14
3.237000000e-01	2.411593558e-01	-2.591218016e-02	4.612801081e-13
3.238000000e-01	2.411967130e-01	-2.590313869e-02	5.902798524e-13
3.239000000e-01	2.412340643e-01	-2.589410382e-02	4.328743637e-13
3.240000000e-01	2.412714098e-01	-2.588507553e-02	7.807933844e-13
3.241000000e-01	2.413087495e-01	-2.587605382e-02	3.958025193e-13
3.242000000e-01	2.413460834e-01	-2.586703868e-02	2.974331033e-13
3.243000000e-01	2.413834115e-01	-2.585803011e-02	6.692896536e-14
3.244000000e-01	2.414207338e-01	-2.584902809e-02	1.030012348e-12
3.245000000e-01	2.414580502e-01	-2.584003263e-02	7.664573212e-14
3.246000000e-01	2.414953608e-01	-2.583104371e-02	3.795280758e-13
3.247000000e-01	2.415326657e-01	-2.582206133e-02	9.760210790e-13
3.248000000e-01	2.415699647e-01	-2.581308547e-02	1.324632329e-13
3.249000000e-01	2.416072579e-01	-2.580411615e-02	5.652656904e-14
3.250000000e-01	2.416445454e-01	-2.579515333e-02	3.694362490e-13
3.251000000e-01	2.416818270e-01	-2.578619703e-02	3.084122949e-13
3.252000000e-01	2.417191029e-01	-2.577724723e-02	2.672188301e-13
3.254000000e-01	2.417936372e-01	-2.575936712e-02	3.034690966e-13
3.255000000e-01	2.418308957e-01	-2.575043679e-02	2.053916030e-13
3.256000000e-01	2.418681484e-01	-2.574151293e-02	1.218772977e-13
3.257000000e-01	2.419053953e-01	-2.573259554e-02	1.826448029e-13
3.258000000e-01	2.419426365e-01	-2.572368462e-02	4.772146844e-13
3.259000000e-01	2.419798718e-01	-2.571478015e-02	1.690867579e-13
3.260000000e-01	2.420171014e-01	-2.570588213e-02	1.170024234e-12
3.261000000e-01	2.420543253e-01	-2.569699055e-02	3.980973051e-13
3.262000000e-01	2.420915434e-01	-2.568810540e-02	5.648877779e-13
3.263000000e-01	2.421287557e-01	-2.567922669e-02	1.660825082e-13
3.264000000e-01	2.421659622e-01	-2.567035439e-02	1.998277949e-13
3.266000000e-01	2.422403580e-01	-2.565262904e-02	7.006440908e-14
3.267000000e-01	2.422775473e-01	-2.564377596e-02	1.430346322e-12
3.268000000e-01	2.423147309e-01	-2.563492929e-02	1.110851747e-13
3.269000000e-01	2.423519087e-01	-2.562608900e-02	6.753110614e-14
3.270000000e-01	2.423890807e-01	-2.561725509e-02	1.702696297e-13
3.271000000e-01	2.424262470e-01	-2.560842755e-02	4.025538661e-13
3.272000000e-01	2.424634076e-01	-2.559960639e-02	1.090492970e-13
3.273000000e-01	2.425005624e-01	-2.559079158e-02	6.424871266e-14
3.274000000e-01	2.425377115e-01	-2.558198313e-02	4.296696814e-13
3.275000000e-01	2.425748549e-01	-2.557318102e-02	1.025323338e-13
3.276000000e-01	2.426119925e-01	-2.556438526e-02	1.876714014e-13
3.277000000e-01	2.426491244e-01	-2.555559583e-02	2.058423209e-13
3.278000000e-01	2.426862506e-01	-2.554681273e-02	1.733529848e-13
3.279000000e-01	2.427233711e-01	-2.553803595e-02	7.206945083e-13
3.280000000e-01	2.427604858e-01	-2.552926548e-02	5.291688115e-13
3.281000000e-01	2.427975949e-01	-2.552050132e-02	6.512523953e-13
3.282000000e-01	2.428346982e-01	-2.551174347e-02	2.641659289e-13
3.283000000e-01	2.428717958e-01	-2.550299190e-02	4.725190082e-13
3.284000000e-01	2.429088877e-01	-2.549424663e-02	1.829971451e-13
3.285000000e-01	2.429459739e-01	-2.548550764e-02	3.658634290e-13
3.286000000e-01	2.429830544e-01	-2.547677492e-02	9.655371887e-13
3.288000000e-01	2.430571983e-01	-2.545932828e-02	8.407089808e-13
3.290000000e-01	2.431313194e-01	-2.544190667e-02	1.003279318e-13
3.291000000e-01	2.431683714e-01	-2.543320523e-02	2.001027501e-13
3.292000000e-01	2.432054178e-01	-2.542451002e-02	4.682269576e-12
3.293000000e-01	2.432424584e-01	-2.541582105e-02	4.154073834e-14
3.294000000e-01	2.432794934e-01	-2.540713830e-02	1.458891396e-13
3.295000000e-01	2.433165227e-01	-2.539846176e-02	4.106017836e-13
3.296000000e-01	2.433535463e-01	-2.538979143e-02	1.971869161e-12
3.297000000e-01	2.433905642e-01	-2.538112731e-02	3.044505642e-13
3.298000000e-01	2.434275765e-01	-2.537246938e-02	3.070014446e-13
3.299000000e-01	2.434645831e-01	-2.536381765e-02	1.227772802e-13
3.300000000e-01	2.435015841e-01	-2.535517210e-02	2.666756445e-13
3.302000000e-01	2.435755689e-01	-2.533789952e-02	2.746575403e-13
3.303000000e-01	2.436125529e-01	-2.532927249e-02	2.328690058e-13
3.304000000e-01	2.436495312e-01	-2.532065161e-02	2.161924756e-13
3.305000000e-01	2.436865038e-01	-2.531203688e-02	2.545216107e-13
3.306000000e-01	2.437234708e-01	-2.530342830e-02	3.447295549e-13
3.307000000e-01	2.437604322e-01	-2.529482586e-02	4.772012534e-13
3.308000000e-01	2.437973879e-01	-2.528622955e-02	5.742549399e-13
3.309000000e-01	2.438343379e-01	-2.527763937e-02	2.368778971e-13
3.310000000e-01	2.438712824e-01	-2.526905531e-02	1.597064732e-13
3.311000000e-01	2.439082211e-01	-2.526047736e-02	2.049007068e-13
3.312000000e-01	2.439451543e-01	-2.525190552e-02	5.886518015e-13
3.313000000e-01	2.439820818e-01	-2.524333978e-02	4.779526472e-13
3.314000000e-01	2.440190037e-01	-2.523478014e-02	3.948518132e-13
3.316000000e-01	2.440928306e-01	-2.521767911e-02	3.777607978e-13
3.317000000e-01	2.441297356e-01	-2.520913772e-02	2.029395077e-13
3.318000000e-01	2.441666349e-01	-2.520060239e-02	1.508009342e-13
3.319000000e-01	2.442035287e-01	-2.519207313e-02	9.410621100e-14
3.320000000e-01	2.442404169e-01	-2.518354992e-02	1.466911344e-13
3.321000000e-01	2.442772994e-01	-2.517503277e-02	3.958325254e-13
3.322000000e-01	2.443141763e-01	-2.516652166e-02	9.045805600e-13
3.323000000e-01	2.443510477e-01	-2.515801659e-02	1.598170389e-13
3.324000000e-01	2.443879134e-01	-2.514951755e-02	5.083054207e-13
3.325000000e-01	2.444247735e-01	-2.514102454e-02	8.037424128e-13
