# Im(epsi1)     Re(omega/c)      Im(omega/c)      Eq(det).Opt det CON kz, R=0.5 \mum, mu_c=0.3, Re(epsi1)=3.90solve_det_conkz_vs_kz.py
0.000000000e+00	1.896481257e-01	-5.242202524e-04	1.448541031e-11
-1.000000000e-04	1.896481314e-01	-5.222919852e-04	8.015129076e-12
-2.000000000e-04	1.896481371e-01	-5.203637177e-04	2.059167877e-11
-3.000000000e-04	1.896481426e-01	-5.184354499e-04	1.200545340e-11
-4.000000000e-04	1.896481482e-01	-5.165071820e-04	2.039619272e-11
-5.000000000e-04	1.896481536e-01	-5.145789138e-04	2.338234117e-11
-6.000000000e-04	1.896481590e-01	-5.126506454e-04	1.603490844e-11
-7.000000000e-04	1.896481644e-01	-5.107223767e-04	1.551575986e-11
-8.000000000e-04	1.896481696e-01	-5.087941079e-04	6.730520490e-12
-9.000000000e-04	1.896481749e-01	-5.068658388e-04	3.185760913e-11
-1.000000000e-03	1.896481800e-01	-5.049375695e-04	2.123163138e-11
-1.100000000e-03	1.896481851e-01	-5.030093000e-04	3.086944500e-11
-1.200000000e-03	1.896481902e-01	-5.010810303e-04	1.101351346e-11
-1.300000000e-03	1.896481952e-01	-4.991527604e-04	4.413738756e-11
-1.400000000e-03	1.896482001e-01	-4.972244903e-04	3.648159855e-11
-1.500000000e-03	1.896482050e-01	-4.952962200e-04	7.243586666e-12
-1.600000000e-03	1.896482098e-01	-4.933679495e-04	9.453780605e-12
-1.700000000e-03	1.896482146e-01	-4.914396788e-04	5.562744518e-12
-1.800000000e-03	1.896482193e-01	-4.895114079e-04	2.237441796e-11
-1.900000000e-03	1.896482239e-01	-4.875831369e-04	1.973482342e-11
-2.000000000e-03	1.896482285e-01	-4.856548656e-04	1.095820548e-11
-2.100000000e-03	1.896482330e-01	-4.837265942e-04	2.690858027e-11
-2.200000000e-03	1.896482375e-01	-4.817983226e-04	1.022894489e-11
-2.300000000e-03	1.896482419e-01	-4.798700508e-04	1.051657619e-11
-2.400000000e-03	1.896482462e-01	-4.779417789e-04	2.207960772e-11
-2.500000000e-03	1.896482505e-01	-4.760135067e-04	1.999415384e-10
-2.600000000e-03	1.896482547e-01	-4.740852345e-04	9.880007231e-12
-2.700000000e-03	1.896482589e-01	-4.721569620e-04	1.324415227e-11
-2.800000000e-03	1.896482630e-01	-4.702286894e-04	8.453901505e-12
-2.900000000e-03	1.896482671e-01	-4.683004167e-04	9.430599305e-12
-3.000000000e-03	1.896482710e-01	-4.663721437e-04	1.013571211e-11
-3.100000000e-03	1.896482750e-01	-4.644438707e-04	8.395260132e-12
-3.200000000e-03	1.896482789e-01	-4.625155975e-04	6.382977452e-12
-3.300000000e-03	1.896482827e-01	-4.605873241e-04	3.340214879e-11
-3.400000000e-03	1.896482864e-01	-4.586590506e-04	1.242593587e-11
-3.500000000e-03	1.896482901e-01	-4.567307770e-04	1.226909275e-11
-3.600000000e-03	1.896482938e-01	-4.548025032e-04	1.787771699e-11
-3.700000000e-03	1.896482973e-01	-4.528742293e-04	2.370255761e-11
-3.800000000e-03	1.896483009e-01	-4.509459553e-04	1.261046875e-11
-3.900000000e-03	1.896483043e-01	-4.490176812e-04	1.432541981e-11
-4.000000000e-03	1.896483077e-01	-4.470894069e-04	9.948410066e-12
-4.100000000e-03	1.896483111e-01	-4.451611325e-04	2.002393631e-11
-4.200000000e-03	1.896483144e-01	-4.432328580e-04	6.351690495e-12
-4.300000000e-03	1.896483176e-01	-4.413045834e-04	1.422270307e-11
-4.400000000e-03	1.896483208e-01	-4.393763086e-04	9.510522196e-11
-4.500000000e-03	1.896483239e-01	-4.374480338e-04	1.563018666e-11
-4.600000000e-03	1.896483269e-01	-4.355197588e-04	1.136600503e-11
-4.700000000e-03	1.896483299e-01	-4.335914837e-04	5.863183661e-11
-4.800000000e-03	1.896483329e-01	-4.316632086e-04	1.239398200e-11
-4.900000000e-03	1.896483357e-01	-4.297349334e-04	1.055558728e-11
-5.000000000e-03	1.896483386e-01	-4.278066580e-04	6.594899792e-11
-5.100000000e-03	1.896483413e-01	-4.258783826e-04	5.490690137e-12
-5.200000000e-03	1.896483440e-01	-4.239501071e-04	8.659722979e-12
-5.300000000e-03	1.896483466e-01	-4.220218315e-04	6.891957977e-12
-5.400000000e-03	1.896483492e-01	-4.200935558e-04	9.140694966e-12
-5.500000000e-03	1.896483518e-01	-4.181652800e-04	1.116255772e-11
-5.600000000e-03	1.896483542e-01	-4.162370042e-04	1.553918230e-11
-5.700000000e-03	1.896483566e-01	-4.143087283e-04	7.349671280e-12
-5.800000000e-03	1.896483590e-01	-4.123804523e-04	1.960308439e-11
-5.900000000e-03	1.896483613e-01	-4.104521762e-04	9.588923286e-12
-6.000000000e-03	1.896483635e-01	-4.085239001e-04	7.883122757e-12
-6.100000000e-03	1.896483657e-01	-4.065956239e-04	2.623157799e-11
-6.200000000e-03	1.896483678e-01	-4.046673477e-04	8.573258606e-12
-6.300000000e-03	1.896483698e-01	-4.027390714e-04	1.582495427e-11
-6.400000000e-03	1.896483718e-01	-4.008107951e-04	1.160008652e-11
-6.500000000e-03	1.896483738e-01	-3.988825187e-04	1.054051537e-11
-6.600000000e-03	1.896483756e-01	-3.969542423e-04	1.264792945e-11
-6.700000000e-03	1.896483774e-01	-3.950259658e-04	7.452492952e-12
-6.800000000e-03	1.896483792e-01	-3.930976893e-04	3.213764948e-11
-6.900000000e-03	1.896483809e-01	-3.911694128e-04	2.921312968e-11
-7.000000000e-03	1.896483825e-01	-3.892411362e-04	1.065530295e-11
-7.100000000e-03	1.896483841e-01	-3.873128596e-04	1.239092781e-11
-7.200000000e-03	1.896483857e-01	-3.853845829e-04	7.946928778e-12
-7.300000000e-03	1.896483871e-01	-3.834563063e-04	1.426585794e-11
-7.400000000e-03	1.896483885e-01	-3.815280296e-04	2.382012985e-11
-7.500000000e-03	1.896483899e-01	-3.795997529e-04	1.765064610e-11
-7.600000000e-03	1.896483912e-01	-3.776714762e-04	1.199995421e-11
-7.700000000e-03	1.896483924e-01	-3.757431994e-04	1.183440680e-11
-7.800000000e-03	1.896483936e-01	-3.738149227e-04	5.439916416e-12
-7.900000000e-03	1.896483947e-01	-3.718866459e-04	6.100878867e-12
-8.000000000e-03	1.896483957e-01	-3.699583692e-04	1.650287966e-11
-8.100000000e-03	1.896483967e-01	-3.680300924e-04	1.126681241e-11
-8.200000000e-03	1.896483977e-01	-3.661018157e-04	2.719514785e-11
-8.300000000e-03	1.896483985e-01	-3.641735389e-04	3.162179460e-11
-8.400000000e-03	1.896483994e-01	-3.622452622e-04	1.654723851e-11
-8.500000000e-03	1.896484001e-01	-3.603169855e-04	8.516235689e-12
-8.600000000e-03	1.896484008e-01	-3.583887087e-04	1.183599590e-11
-8.700000000e-03	1.896484015e-01	-3.564604320e-04	1.392483414e-11
-8.800000000e-03	1.896484020e-01	-3.545321554e-04	1.022014217e-11
-8.900000000e-03	1.896484026e-01	-3.526038787e-04	1.575614831e-11
-9.000000000e-03	1.896484030e-01	-3.506756021e-04	5.819845961e-12
-9.100000000e-03	1.896484034e-01	-3.487473255e-04	6.186951248e-12
-9.200000000e-03	1.896484038e-01	-3.468190489e-04	9.437330876e-12
-9.300000000e-03	1.896484041e-01	-3.448907724e-04	2.735368839e-11
-9.400000000e-03	1.896484043e-01	-3.429624959e-04	1.015203135e-11
-9.500000000e-03	1.896484045e-01	-3.410342194e-04	8.116790438e-12
-9.600000000e-03	1.896484046e-01	-3.391059430e-04	1.384187563e-11
-9.700000000e-03	1.896484047e-01	-3.371776667e-04	2.040270114e-11
-9.800000000e-03	1.896484046e-01	-3.352493904e-04	1.342333150e-11
-9.900000000e-03	1.896484046e-01	-3.333211141e-04	5.765262544e-12
-1.000000000e-02	1.896484045e-01	-3.313928379e-04	7.726280889e-12
-1.010000000e-02	1.896484043e-01	-3.294645618e-04	6.704035498e-12
-1.020000000e-02	1.896484040e-01	-3.275362857e-04	2.679253119e-11
-1.030000000e-02	1.896484037e-01	-3.256080097e-04	1.957161437e-11
-1.040000000e-02	1.896484034e-01	-3.236797337e-04	6.938684445e-12
-1.050000000e-02	1.896484030e-01	-3.217514578e-04	1.596800776e-11
-1.060000000e-02	1.896484025e-01	-3.198231820e-04	3.420400566e-11
-1.070000000e-02	1.896484020e-01	-3.178949063e-04	1.030957116e-10
-1.080000000e-02	1.896484014e-01	-3.159666307e-04	1.016457109e-11
-1.090000000e-02	1.896484007e-01	-3.140383551e-04	1.010326975e-11
-1.100000000e-02	1.896484000e-01	-3.121100796e-04	2.180697105e-11
-1.110000000e-02	1.896483992e-01	-3.101818042e-04	1.709182737e-11
-1.120000000e-02	1.896483984e-01	-3.082535289e-04	3.765885529e-11
-1.130000000e-02	1.896483975e-01	-3.063252537e-04	1.238638996e-11
-1.140000000e-02	1.896483966e-01	-3.043969786e-04	2.162778453e-11
-1.150000000e-02	1.896483956e-01	-3.024687036e-04	7.300079369e-12
-1.160000000e-02	1.896483945e-01	-3.005404287e-04	1.769996501e-11
-1.170000000e-02	1.896483934e-01	-2.986121539e-04	1.271656157e-11
-1.180000000e-02	1.896483922e-01	-2.966838792e-04	5.732665752e-12
-1.190000000e-02	1.896483910e-01	-2.947556046e-04	9.646252644e-12
-1.200000000e-02	1.896483897e-01	-2.928273302e-04	7.061344991e-11
-1.210000000e-02	1.896483883e-01	-2.908990558e-04	1.207846386e-11
-1.220000000e-02	1.896483869e-01	-2.889707816e-04	5.453445859e-11
-1.230000000e-02	1.896483855e-01	-2.870425075e-04	7.804028484e-12
-1.240000000e-02	1.896483839e-01	-2.851142336e-04	1.643786774e-11
-1.250000000e-02	1.896483823e-01	-2.831859597e-04	1.050498574e-11
-1.260000000e-02	1.896483807e-01	-2.812576860e-04	1.040115018e-11
-1.270000000e-02	1.896483790e-01	-2.793294125e-04	2.345874532e-11
-1.280000000e-02	1.896483772e-01	-2.774011390e-04	2.393836842e-11
-1.290000000e-02	1.896483754e-01	-2.754728657e-04	2.233238722e-11
-1.300000000e-02	1.896483735e-01	-2.735445926e-04	8.828452783e-12
-1.310000000e-02	1.896483715e-01	-2.716163196e-04	1.629974321e-11
-1.320000000e-02	1.896483695e-01	-2.696880468e-04	2.216497103e-11
-1.330000000e-02	1.896483675e-01	-2.677597741e-04	5.862459962e-12
-1.340000000e-02	1.896483654e-01	-2.658315016e-04	2.237817631e-11
-1.350000000e-02	1.896483632e-01	-2.639032292e-04	9.923181076e-12
-1.360000000e-02	1.896483610e-01	-2.619749570e-04	1.035558620e-11
-1.370000000e-02	1.896483587e-01	-2.600466849e-04	5.639664407e-12
-1.380000000e-02	1.896483563e-01	-2.581184131e-04	1.552223889e-11
-1.390000000e-02	1.896483539e-01	-2.561901414e-04	6.720624359e-12
-1.400000000e-02	1.896483514e-01	-2.542618698e-04	3.902711169e-11
-1.410000000e-02	1.896483489e-01	-2.523335985e-04	1.018882420e-11
-1.420000000e-02	1.896483463e-01	-2.504053273e-04	5.737719744e-12
-1.430000000e-02	1.896483436e-01	-2.484770563e-04	8.823760795e-11
-1.440000000e-02	1.896483409e-01	-2.465487856e-04	8.275613431e-12
-1.450000000e-02	1.896483382e-01	-2.446205150e-04	6.634011100e-12
-1.460000000e-02	1.896483353e-01	-2.426922446e-04	8.110080224e-12
-1.470000000e-02	1.896483325e-01	-2.407639743e-04	1.906256549e-11
-1.480000000e-02	1.896483295e-01	-2.388357043e-04	5.803467167e-12
-1.490000000e-02	1.896483265e-01	-2.369074345e-04	3.052775405e-11
-1.500000000e-02	1.896483235e-01	-2.349791649e-04	1.021276544e-11
-1.510000000e-02	1.896483203e-01	-2.330508955e-04	1.219320624e-11
-1.520000000e-02	1.896483172e-01	-2.311226263e-04	1.424425086e-11
-1.530000000e-02	1.896483139e-01	-2.291943574e-04	2.082398509e-11
-1.540000000e-02	1.896483106e-01	-2.272660886e-04	2.430758007e-11
-1.550000000e-02	1.896483073e-01	-2.253378201e-04	9.466087328e-12
-1.560000000e-02	1.896483039e-01	-2.234095517e-04	4.396278946e-11
-1.570000000e-02	1.896483004e-01	-2.214812837e-04	9.937786559e-12
-1.580000000e-02	1.896482969e-01	-2.195530158e-04	8.198097189e-12
-1.590000000e-02	1.896482933e-01	-2.176247482e-04	9.497165831e-12
-1.600000000e-02	1.896482896e-01	-2.156964808e-04	6.396407829e-12
-1.610000000e-02	1.896482859e-01	-2.137682136e-04	1.522225751e-11
-1.620000000e-02	1.896482822e-01	-2.118399467e-04	2.096670823e-11
-1.630000000e-02	1.896482783e-01	-2.099116800e-04	1.219743438e-11
-1.640000000e-02	1.896482745e-01	-2.079834136e-04	1.976868496e-11
-1.650000000e-02	1.896482705e-01	-2.060551474e-04	2.231044004e-11
-1.660000000e-02	1.896482665e-01	-2.041268815e-04	7.244902463e-12
-1.670000000e-02	1.896482625e-01	-2.021986159e-04	1.293381438e-11
-1.680000000e-02	1.896482583e-01	-2.002703504e-04	1.772717085e-11
-1.690000000e-02	1.896482542e-01	-1.983420853e-04	1.329743335e-11
-1.700000000e-02	1.896482499e-01	-1.964138204e-04	7.897782743e-12
-1.710000000e-02	1.896482456e-01	-1.944855558e-04	1.742133305e-11
-1.720000000e-02	1.896482413e-01	-1.925572915e-04	2.069772191e-11
-1.730000000e-02	1.896482369e-01	-1.906290274e-04	6.965829003e-12
-1.740000000e-02	1.896482324e-01	-1.887007636e-04	1.040499190e-11
-1.750000000e-02	1.896482279e-01	-1.867725001e-04	1.320392736e-11
-1.760000000e-02	1.896482233e-01	-1.848442369e-04	1.795011995e-11
-1.770000000e-02	1.896482186e-01	-1.829159739e-04	7.946152762e-12
-1.780000000e-02	1.896482139e-01	-1.809877113e-04	8.895179931e-12
-1.790000000e-02	1.896482092e-01	-1.790594489e-04	1.329826372e-11
-1.800000000e-02	1.896482043e-01	-1.771311868e-04	1.145364652e-11
-1.810000000e-02	1.896481995e-01	-1.752029250e-04	2.415520036e-11
-1.820000000e-02	1.896481945e-01	-1.732746636e-04	4.045597990e-11
-1.830000000e-02	1.896481895e-01	-1.713464024e-04	2.268420223e-11
-1.840000000e-02	1.896481845e-01	-1.694181415e-04	1.521779324e-11
-1.850000000e-02	1.896481793e-01	-1.674898810e-04	1.257255464e-11
-1.860000000e-02	1.896481742e-01	-1.655616208e-04	1.059623733e-11
-1.870000000e-02	1.896481689e-01	-1.636333608e-04	1.286595334e-11
-1.880000000e-02	1.896481636e-01	-1.617051012e-04	2.749850846e-11
-1.890000000e-02	1.896481583e-01	-1.597768419e-04	1.680171448e-11
-1.900000000e-02	1.896481529e-01	-1.578485830e-04	1.214027864e-11
-1.910000000e-02	1.896481474e-01	-1.559203243e-04	5.282090735e-12
-1.920000000e-02	1.896481419e-01	-1.539920660e-04	1.356086453e-11
-1.930000000e-02	1.896481363e-01	-1.520638081e-04	1.688860446e-11
-1.940000000e-02	1.896481306e-01	-1.501355504e-04	2.387643094e-11
-1.950000000e-02	1.896481249e-01	-1.482072931e-04	1.650426267e-11
-1.960000000e-02	1.896481192e-01	-1.462790362e-04	1.759866159e-11
-1.970000000e-02	1.896481134e-01	-1.443507796e-04	1.585179108e-11
-1.980000000e-02	1.896481075e-01	-1.424225233e-04	9.582667421e-12
-1.990000000e-02	1.896481015e-01	-1.404942674e-04	1.141501831e-11
-2.000000000e-02	1.896480955e-01	-1.385660118e-04	1.753531037e-11
-2.010000000e-02	1.896480895e-01	-1.366377566e-04	9.331333973e-12
-2.020000000e-02	1.896480834e-01	-1.347095018e-04	2.947677367e-11
-2.030000000e-02	1.896480772e-01	-1.327812473e-04	1.893388584e-11
-2.040000000e-02	1.896480710e-01	-1.308529932e-04	2.822428632e-11
-2.050000000e-02	1.896480647e-01	-1.289247395e-04	1.050130922e-11
-2.060000000e-02	1.896480583e-01	-1.269964861e-04	1.923309126e-11
-2.070000000e-02	1.896480519e-01	-1.250682331e-04	6.749066013e-11
-2.080000000e-02	1.896480454e-01	-1.231399805e-04	1.520383651e-11
-2.090000000e-02	1.896480389e-01	-1.212117283e-04	8.838661362e-12
-2.100000000e-02	1.896480323e-01	-1.192834764e-04	1.993503637e-11
-2.110000000e-02	1.896480257e-01	-1.173552250e-04	2.632589813e-11
-2.120000000e-02	1.896480190e-01	-1.154269739e-04	1.455522104e-11
-2.130000000e-02	1.896480122e-01	-1.134987232e-04	9.399952247e-12
-2.140000000e-02	1.896480054e-01	-1.115704729e-04	8.523536820e-12
-2.150000000e-02	1.896479985e-01	-1.096422230e-04	8.670254180e-12
-2.160000000e-02	1.896479916e-01	-1.077139735e-04	1.124084908e-11
-2.170000000e-02	1.896479846e-01	-1.057857245e-04	5.832783336e-12
-2.180000000e-02	1.896479775e-01	-1.038574758e-04	2.182731233e-11
-2.190000000e-02	1.896479704e-01	-1.019292275e-04	2.828779323e-11
-2.200000000e-02	1.896479632e-01	-1.000009797e-04	1.389193244e-11
-2.210000000e-02	1.896479560e-01	-9.807273226e-05	1.805303898e-11
-2.220000000e-02	1.896479487e-01	-9.614448525e-05	4.142479786e-11
-2.230000000e-02	1.896479414e-01	-9.421623867e-05	5.874954704e-12
-2.240000000e-02	1.896479340e-01	-9.228799251e-05	2.235853761e-11
-2.250000000e-02	1.896479265e-01	-9.035974677e-05	6.267415351e-12
-2.260000000e-02	1.896479190e-01	-8.843150147e-05	8.415010100e-12
-2.270000000e-02	1.896479114e-01	-8.650325660e-05	1.872629339e-11
-2.280000000e-02	1.896479037e-01	-8.457501217e-05	7.835622968e-12
-2.290000000e-02	1.896478960e-01	-8.264676818e-05	2.333431345e-11
-2.300000000e-02	1.896478883e-01	-8.071852464e-05	1.249191260e-11
-2.310000000e-02	1.896478804e-01	-7.879028154e-05	1.080714620e-11
-2.320000000e-02	1.896478726e-01	-7.686203889e-05	1.255929336e-11
-2.330000000e-02	1.896478646e-01	-7.493379669e-05	9.686397818e-12
-2.340000000e-02	1.896478566e-01	-7.300555495e-05	8.273927813e-12
-2.350000000e-02	1.896478486e-01	-7.107731367e-05	2.667761509e-11
-2.360000000e-02	1.896478405e-01	-6.914907285e-05	1.696647967e-11
-2.370000000e-02	1.896478323e-01	-6.722083249e-05	1.359757988e-11
-2.380000000e-02	1.896478241e-01	-6.529259260e-05	1.066647933e-11
-2.390000000e-02	1.896478158e-01	-6.336435318e-05	1.115369064e-11
-2.400000000e-02	1.896478074e-01	-6.143611424e-05	7.576834733e-12
-2.410000000e-02	1.896477990e-01	-5.950787578e-05	4.559951696e-11
-2.420000000e-02	1.896477906e-01	-5.757963778e-05	1.003723133e-11
-2.430000000e-02	1.896477820e-01	-5.565140028e-05	2.125455061e-11
-2.440000000e-02	1.896477734e-01	-5.372316325e-05	7.355138499e-12
-2.450000000e-02	1.896477648e-01	-5.179492671e-05	9.428161060e-12
-2.460000000e-02	1.896477561e-01	-4.986669067e-05	7.333559683e-12
-2.470000000e-02	1.896477473e-01	-4.793845512e-05	1.544568869e-11
-2.480000000e-02	1.896477385e-01	-4.601022008e-05	1.609193027e-11
-2.490000000e-02	1.896477296e-01	-4.408198552e-05	1.814465725e-11
-2.500000000e-02	1.896477207e-01	-4.215375148e-05	7.708463012e-12
-2.510000000e-02	1.896477117e-01	-4.022551793e-05	1.101461875e-11
-2.520000000e-02	1.896477027e-01	-3.829728490e-05	1.458702664e-11
-2.530000000e-02	1.896476935e-01	-3.636905239e-05	4.985509282e-11
-2.540000000e-02	1.896476844e-01	-3.444082038e-05	4.964091634e-11
-2.550000000e-02	1.896476751e-01	-3.251258889e-05	9.093442064e-12
-2.560000000e-02	1.896476659e-01	-3.058435792e-05	5.741849620e-12
-2.570000000e-02	1.896476565e-01	-2.865612748e-05	9.337950687e-12
-2.580000000e-02	1.896476471e-01	-2.672789757e-05	2.835510806e-11
-2.590000000e-02	1.896476376e-01	-2.479966819e-05	1.558759053e-11
-2.600000000e-02	1.896476281e-01	-2.287143933e-05	4.553819171e-11
-2.610000000e-02	1.896476185e-01	-2.094321102e-05	1.355007272e-11
-2.620000000e-02	1.896476089e-01	-1.901498324e-05	2.316180167e-11
-2.630000000e-02	1.896475992e-01	-1.708675601e-05	7.760826897e-12
-2.640000000e-02	1.896475894e-01	-1.515852932e-05	9.002426442e-11
-2.650000000e-02	1.896475796e-01	-1.323030317e-05	1.072927943e-11
-2.660000000e-02	1.896475697e-01	-1.130207758e-05	1.476335690e-11
-2.670000000e-02	1.896475598e-01	-9.373852545e-06	1.484416043e-11
-2.680000000e-02	1.896475498e-01	-7.445628066e-06	1.205701255e-11
-2.690000000e-02	1.896475397e-01	-5.517404149e-06	1.046406023e-11
-2.700000000e-02	1.896475296e-01	-3.589180792e-06	1.474936534e-11
-2.710000000e-02	1.896475195e-01	-1.660957999e-06	3.680409634e-11
-2.720000000e-02	1.896475092e-01	2.672642235e-07	6.738500712e-12
-2.730000000e-02	1.896474989e-01	2.195485876e-06	7.790965108e-12
-2.740000000e-02	1.896474886e-01	4.123706948e-06	9.474142311e-12
-2.750000000e-02	1.896474782e-01	6.051927447e-06	1.140444272e-11
-2.760000000e-02	1.896474677e-01	7.980147367e-06	8.203315892e-12
-2.770000000e-02	1.896474572e-01	9.908366697e-06	1.131217821e-11
-2.780000000e-02	1.896474466e-01	1.183658545e-05	2.137918188e-11
-2.790000000e-02	1.896474360e-01	1.376480361e-05	1.830657439e-11
-2.800000000e-02	1.896474253e-01	1.569302117e-05	2.887612619e-11
-2.810000000e-02	1.896474145e-01	1.762123814e-05	1.295004785e-10
-2.820000000e-02	1.896474037e-01	1.954945452e-05	5.141029468e-11
-2.830000000e-02	1.896473928e-01	2.147767027e-05	2.379742259e-11
-2.840000000e-02	1.896473819e-01	2.340588543e-05	7.218713091e-11
-2.850000000e-02	1.896473709e-01	2.533410000e-05	1.978749875e-11
-2.860000000e-02	1.896473599e-01	2.726231397e-05	1.319388545e-10
-2.870000000e-02	1.896473487e-01	2.919052727e-05	8.307397058e-12
-2.880000000e-02	1.896473376e-01	3.111873999e-05	1.611761614e-11
-2.890000000e-02	1.896473264e-01	3.304695209e-05	1.233687049e-11
-2.900000000e-02	1.896473151e-01	3.497516356e-05	1.983947181e-11
-2.910000000e-02	1.896473037e-01	3.690337441e-05	1.280505664e-11
-2.920000000e-02	1.896472923e-01	3.883158463e-05	9.753115361e-12
-2.930000000e-02	1.896472809e-01	4.075979422e-05	1.097264900e-11
-2.940000000e-02	1.896472693e-01	4.268800317e-05	8.794598258e-12
-2.950000000e-02	1.896472577e-01	4.461621149e-05	1.528750010e-11
-2.960000000e-02	1.896472461e-01	4.654441917e-05	2.254898416e-11
-2.970000000e-02	1.896472344e-01	4.847262619e-05	1.591923704e-11
-2.980000000e-02	1.896472227e-01	5.040083258e-05	1.809181595e-11
-2.990000000e-02	1.896472108e-01	5.232903832e-05	8.766589980e-12
-3.000000000e-02	1.896471990e-01	5.425724340e-05	9.562676574e-12
