# Im(epsi1)     Re(omega/c)      Im(omega/c)      Eq(det).Opt det CON kz, R=0.5 \mum, mu_c=0.3, Re(epsi1)=3.90solve_det_conkz_vs_kz.py
0.000000000e+00	1.896585898e-01	-5.242456714e-04	6.597417768e-12
-1.000000000e-04	1.896585955e-01	-5.223173528e-04	2.886308515e-11
-2.000000000e-04	1.896586012e-01	-5.203890341e-04	1.247196637e-11
-3.000000000e-04	1.896586068e-01	-5.184607151e-04	2.203038583e-11
-4.000000000e-04	1.896586123e-01	-5.165323959e-04	3.193134355e-11
-5.000000000e-04	1.896586177e-01	-5.146040764e-04	1.675421715e-11
-6.000000000e-04	1.896586231e-01	-5.126757567e-04	1.051286752e-11
-7.000000000e-04	1.896586285e-01	-5.107474368e-04	7.357365590e-12
-8.000000000e-04	1.896586338e-01	-5.088191167e-04	5.728686832e-11
-9.000000000e-04	1.896586390e-01	-5.068907964e-04	7.769788347e-12
-1.000000000e-03	1.896586442e-01	-5.049624758e-04	1.464249937e-11
-1.100000000e-03	1.896586493e-01	-5.030341551e-04	1.069733089e-11
-1.200000000e-03	1.896586543e-01	-5.011058341e-04	1.111196415e-11
-1.300000000e-03	1.896586593e-01	-4.991775130e-04	1.535539882e-11
-1.400000000e-03	1.896586642e-01	-4.972491916e-04	6.899443202e-12
-1.500000000e-03	1.896586691e-01	-4.953208700e-04	9.189382479e-11
-1.600000000e-03	1.896586739e-01	-4.933925483e-04	9.473912348e-12
-1.700000000e-03	1.896586787e-01	-4.914642263e-04	1.651749068e-11
-1.800000000e-03	1.896586834e-01	-4.895359042e-04	2.905354962e-11
-1.900000000e-03	1.896586880e-01	-4.876075819e-04	4.332266463e-11
-2.000000000e-03	1.896586926e-01	-4.856792594e-04	1.057814336e-11
-2.100000000e-03	1.896586971e-01	-4.837509367e-04	2.086121612e-11
-2.200000000e-03	1.896587016e-01	-4.818226138e-04	1.381534776e-11
-2.300000000e-03	1.896587060e-01	-4.798942908e-04	2.664963052e-11
-2.400000000e-03	1.896587103e-01	-4.779659676e-04	7.537410820e-12
-2.500000000e-03	1.896587146e-01	-4.760376442e-04	8.797515847e-12
-2.600000000e-03	1.896587189e-01	-4.741093206e-04	1.241679325e-11
-2.700000000e-03	1.896587230e-01	-4.721809969e-04	1.797438998e-11
-2.800000000e-03	1.896587271e-01	-4.702526731e-04	8.850795678e-12
-2.900000000e-03	1.896587312e-01	-4.683243491e-04	2.352197860e-11
-3.000000000e-03	1.896587352e-01	-4.663960249e-04	1.723786210e-11
-3.100000000e-03	1.896587391e-01	-4.644677006e-04	1.981773711e-11
-3.200000000e-03	1.896587430e-01	-4.625393761e-04	3.017146028e-11
-3.300000000e-03	1.896587468e-01	-4.606110515e-04	1.385433933e-11
-3.400000000e-03	1.896587506e-01	-4.586827267e-04	6.498374160e-11
-3.500000000e-03	1.896587543e-01	-4.567544019e-04	1.296989374e-11
-3.600000000e-03	1.896587579e-01	-4.548260768e-04	9.461143563e-12
-3.700000000e-03	1.896587615e-01	-4.528977517e-04	1.170002196e-11
-3.800000000e-03	1.896587650e-01	-4.509694264e-04	1.946798299e-11
-3.900000000e-03	1.896587685e-01	-4.490411010e-04	1.063223920e-11
-4.000000000e-03	1.896587719e-01	-4.471127754e-04	8.140315429e-11
-4.100000000e-03	1.896587752e-01	-4.451844498e-04	1.160954884e-11
-4.200000000e-03	1.896587785e-01	-4.432561240e-04	9.756929471e-12
-4.300000000e-03	1.896587817e-01	-4.413277981e-04	2.413181622e-11
-4.400000000e-03	1.896587849e-01	-4.393994721e-04	1.858934408e-11
-4.500000000e-03	1.896587880e-01	-4.374711460e-04	2.476336667e-11
-4.600000000e-03	1.896587911e-01	-4.355428198e-04	6.243044788e-12
-4.700000000e-03	1.896587941e-01	-4.336144935e-04	1.184547598e-11
-4.800000000e-03	1.896587970e-01	-4.316861671e-04	1.814743218e-11
-4.900000000e-03	1.896587999e-01	-4.297578406e-04	2.590124850e-11
-5.000000000e-03	1.896588027e-01	-4.278295140e-04	7.871954789e-12
-5.100000000e-03	1.896588054e-01	-4.259011873e-04	9.432718124e-12
-5.200000000e-03	1.896588081e-01	-4.239728605e-04	3.730517793e-11
-5.300000000e-03	1.896588108e-01	-4.220445336e-04	8.416957405e-12
-5.400000000e-03	1.896588134e-01	-4.201162067e-04	5.430639537e-11
-5.500000000e-03	1.896588159e-01	-4.181878797e-04	1.151839982e-11
-5.600000000e-03	1.896588184e-01	-4.162595526e-04	7.092367840e-12
-5.700000000e-03	1.896588208e-01	-4.143312254e-04	2.210928352e-11
-5.800000000e-03	1.896588231e-01	-4.124028982e-04	8.041168396e-11
-5.900000000e-03	1.896588254e-01	-4.104745708e-04	1.188825861e-10
-6.000000000e-03	1.896588276e-01	-4.085462435e-04	1.524884141e-11
-6.100000000e-03	1.896588298e-01	-4.066179160e-04	1.300852543e-11
-6.200000000e-03	1.896588319e-01	-4.046895886e-04	1.929209827e-11
-6.300000000e-03	1.896588340e-01	-4.027612610e-04	1.272037975e-11
-6.400000000e-03	1.896588360e-01	-4.008329334e-04	1.075065025e-11
-6.500000000e-03	1.896588379e-01	-3.989046058e-04	1.103329128e-11
-6.600000000e-03	1.896588398e-01	-3.969762781e-04	1.039827329e-11
-6.700000000e-03	1.896588416e-01	-3.950479503e-04	1.419436674e-11
-6.800000000e-03	1.896588433e-01	-3.931196226e-04	1.346739297e-11
-6.900000000e-03	1.896588450e-01	-3.911912948e-04	5.201338553e-12
-7.000000000e-03	1.896588467e-01	-3.892629669e-04	2.020582767e-11
-7.100000000e-03	1.896588483e-01	-3.873346391e-04	1.000485502e-11
-7.200000000e-03	1.896588498e-01	-3.854063112e-04	5.286135329e-12
-7.300000000e-03	1.896588513e-01	-3.834779832e-04	9.732259308e-12
-7.400000000e-03	1.896588527e-01	-3.815496553e-04	1.375119108e-11
-7.500000000e-03	1.896588540e-01	-3.796213273e-04	1.775720986e-11
-7.600000000e-03	1.896588553e-01	-3.776929993e-04	2.828658611e-11
-7.700000000e-03	1.896588565e-01	-3.757646714e-04	1.596037053e-11
-7.800000000e-03	1.896588577e-01	-3.738363433e-04	1.521362331e-11
-7.900000000e-03	1.896588588e-01	-3.719080153e-04	7.647312080e-12
-8.000000000e-03	1.896588599e-01	-3.699796873e-04	1.098081158e-11
-8.100000000e-03	1.896588609e-01	-3.680513593e-04	7.749919218e-12
-8.200000000e-03	1.896588618e-01	-3.661230313e-04	4.008884356e-12
-8.300000000e-03	1.896588627e-01	-3.641947033e-04	2.355923307e-11
-8.400000000e-03	1.896588635e-01	-3.622663753e-04	2.226526277e-11
-8.500000000e-03	1.896588643e-01	-3.603380473e-04	1.335240218e-11
-8.600000000e-03	1.896588650e-01	-3.584097193e-04	1.207509935e-11
-8.700000000e-03	1.896588656e-01	-3.564813914e-04	1.511305654e-11
-8.800000000e-03	1.896588662e-01	-3.545530634e-04	1.283704339e-11
-8.900000000e-03	1.896588667e-01	-3.526247355e-04	9.964014557e-12
-9.000000000e-03	1.896588672e-01	-3.506964076e-04	8.836585861e-12
-9.100000000e-03	1.896588676e-01	-3.487680798e-04	1.662107260e-11
-9.200000000e-03	1.896588679e-01	-3.468397519e-04	6.791409530e-12
-9.300000000e-03	1.896588682e-01	-3.449114242e-04	1.188996964e-11
-9.400000000e-03	1.896588685e-01	-3.429830964e-04	1.229845708e-11
-9.500000000e-03	1.896588686e-01	-3.410547687e-04	5.119599693e-11
-9.600000000e-03	1.896588688e-01	-3.391264410e-04	2.222488223e-11
-9.700000000e-03	1.896588688e-01	-3.371981134e-04	5.443935662e-11
-9.800000000e-03	1.896588688e-01	-3.352697858e-04	1.069110008e-11
-9.900000000e-03	1.896588687e-01	-3.333414583e-04	1.511143975e-11
-1.000000000e-02	1.896588686e-01	-3.314131308e-04	1.225002063e-11
-1.010000000e-02	1.896588684e-01	-3.294848034e-04	2.116190105e-11
-1.020000000e-02	1.896588682e-01	-3.275564760e-04	5.813427391e-10
-1.030000000e-02	1.896588679e-01	-3.256281488e-04	1.162357377e-11
-1.040000000e-02	1.896588675e-01	-3.236998216e-04	2.247330887e-11
-1.050000000e-02	1.896588671e-01	-3.217714945e-04	1.107584567e-11
-1.060000000e-02	1.896588667e-01	-3.198431674e-04	1.669111812e-11
-1.070000000e-02	1.896588661e-01	-3.179148404e-04	3.225859215e-11
-1.080000000e-02	1.896588655e-01	-3.159865135e-04	7.901753606e-12
-1.090000000e-02	1.896588649e-01	-3.140581867e-04	1.317049761e-11
-1.100000000e-02	1.896588642e-01	-3.121298599e-04	1.732020948e-11
-1.110000000e-02	1.896588634e-01	-3.102015333e-04	9.278251968e-12
-1.120000000e-02	1.896588626e-01	-3.082732067e-04	1.951729813e-11
-1.130000000e-02	1.896588617e-01	-3.063448803e-04	1.093185786e-11
-1.140000000e-02	1.896588608e-01	-3.044165539e-04	1.527433676e-11
-1.150000000e-02	1.896588597e-01	-3.024882276e-04	2.207739832e-11
-1.160000000e-02	1.896588587e-01	-3.005599015e-04	9.347073004e-12
-1.170000000e-02	1.896588576e-01	-2.986315754e-04	2.109890447e-11
-1.180000000e-02	1.896588564e-01	-2.967032495e-04	8.182542902e-12
-1.190000000e-02	1.896588552e-01	-2.947749236e-04	1.070517901e-11
-1.200000000e-02	1.896588539e-01	-2.928465979e-04	1.475070602e-11
-1.210000000e-02	1.896588525e-01	-2.909182723e-04	5.911174954e-11
-1.220000000e-02	1.896588511e-01	-2.889899468e-04	7.018620288e-11
-1.230000000e-02	1.896588496e-01	-2.870616215e-04	4.301837673e-12
-1.240000000e-02	1.896588481e-01	-2.851332962e-04	4.467052891e-11
-1.250000000e-02	1.896588465e-01	-2.832049711e-04	1.317909636e-11
-1.260000000e-02	1.896588448e-01	-2.812766462e-04	1.121615944e-11
-1.270000000e-02	1.896588431e-01	-2.793483213e-04	1.421200515e-11
-1.280000000e-02	1.896588414e-01	-2.774199967e-04	2.320426355e-11
-1.290000000e-02	1.896588395e-01	-2.754916721e-04	9.313685206e-11
-1.300000000e-02	1.896588377e-01	-2.735633477e-04	2.254646581e-11
-1.310000000e-02	1.896588357e-01	-2.716350235e-04	1.849922139e-11
-1.320000000e-02	1.896588337e-01	-2.697066994e-04	3.245174868e-11
-1.330000000e-02	1.896588317e-01	-2.677783754e-04	8.078761574e-12
-1.340000000e-02	1.896588295e-01	-2.658500516e-04	6.708436811e-12
-1.350000000e-02	1.896588274e-01	-2.639217280e-04	1.418861091e-11
-1.360000000e-02	1.896588251e-01	-2.619934045e-04	1.342563862e-11
-1.370000000e-02	1.896588228e-01	-2.600650812e-04	8.365121498e-12
-1.380000000e-02	1.896588205e-01	-2.581367581e-04	1.182139637e-11
-1.390000000e-02	1.896588181e-01	-2.562084351e-04	1.855341978e-11
-1.400000000e-02	1.896588156e-01	-2.542801124e-04	2.016798535e-11
-1.410000000e-02	1.896588131e-01	-2.523517897e-04	1.559748761e-11
-1.420000000e-02	1.896588105e-01	-2.504234673e-04	7.795016633e-12
-1.430000000e-02	1.896588078e-01	-2.484951451e-04	4.267199512e-11
-1.440000000e-02	1.896588051e-01	-2.465668230e-04	1.895768214e-11
-1.450000000e-02	1.896588023e-01	-2.446385012e-04	1.300420936e-11
-1.460000000e-02	1.896587995e-01	-2.427101795e-04	7.412783644e-12
-1.470000000e-02	1.896587966e-01	-2.407818580e-04	1.154720780e-11
-1.480000000e-02	1.896587937e-01	-2.388535367e-04	1.717118628e-11
-1.490000000e-02	1.896587907e-01	-2.369252157e-04	1.177969720e-11
-1.500000000e-02	1.896587876e-01	-2.349968948e-04	1.147782086e-11
-1.510000000e-02	1.896587845e-01	-2.330685741e-04	2.095510616e-11
-1.520000000e-02	1.896587813e-01	-2.311402537e-04	1.073413073e-11
-1.530000000e-02	1.896587781e-01	-2.292119335e-04	6.467131025e-11
-1.540000000e-02	1.896587748e-01	-2.272836134e-04	9.287270606e-12
-1.550000000e-02	1.896587715e-01	-2.253552936e-04	1.854115029e-11
-1.560000000e-02	1.896587680e-01	-2.234269741e-04	6.234283284e-11
-1.570000000e-02	1.896587646e-01	-2.214986547e-04	1.748186689e-11
-1.580000000e-02	1.896587610e-01	-2.195703356e-04	1.314246848e-11
-1.590000000e-02	1.896587575e-01	-2.176420167e-04	6.257203838e-12
-1.600000000e-02	1.896587538e-01	-2.157136980e-04	3.030342757e-11
-1.610000000e-02	1.896587501e-01	-2.137853796e-04	7.617046389e-12
-1.620000000e-02	1.896587463e-01	-2.118570615e-04	1.371955633e-11
-1.630000000e-02	1.896587425e-01	-2.099287435e-04	1.823518253e-11
-1.640000000e-02	1.896587386e-01	-2.080004258e-04	1.712096823e-11
-1.650000000e-02	1.896587347e-01	-2.060721084e-04	1.346346173e-11
-1.660000000e-02	1.896587307e-01	-2.041437912e-04	1.519372523e-11
-1.670000000e-02	1.896587266e-01	-2.022154743e-04	1.289727640e-11
-1.680000000e-02	1.896587225e-01	-2.002871576e-04	4.526840240e-11
-1.690000000e-02	1.896587183e-01	-1.983588412e-04	7.332527573e-12
-1.700000000e-02	1.896587141e-01	-1.964305251e-04	2.259947840e-11
-1.710000000e-02	1.896587098e-01	-1.945022092e-04	5.850495351e-12
-1.720000000e-02	1.896587055e-01	-1.925738936e-04	1.015062750e-11
-1.730000000e-02	1.896587010e-01	-1.906455783e-04	1.694036358e-11
-1.740000000e-02	1.896586966e-01	-1.887172632e-04	5.132727359e-12
-1.750000000e-02	1.896586920e-01	-1.867889484e-04	9.129487046e-12
-1.760000000e-02	1.896586875e-01	-1.848606339e-04	1.588729673e-11
-1.770000000e-02	1.896586828e-01	-1.829323197e-04	1.093404120e-11
-1.780000000e-02	1.896586781e-01	-1.810040058e-04	3.600845966e-11
-1.790000000e-02	1.896586733e-01	-1.790756922e-04	2.003529209e-11
-1.800000000e-02	1.896586685e-01	-1.771473789e-04	9.303565882e-12
-1.810000000e-02	1.896586636e-01	-1.752190658e-04	1.706565484e-11
-1.820000000e-02	1.896586587e-01	-1.732907531e-04	3.436729491e-11
-1.830000000e-02	1.896586537e-01	-1.713624407e-04	3.245923276e-11
-1.840000000e-02	1.896586486e-01	-1.694341285e-04	8.327715509e-12
-1.850000000e-02	1.896586435e-01	-1.675058167e-04	3.499160914e-11
-1.860000000e-02	1.896586384e-01	-1.655775052e-04	1.098431635e-11
-1.870000000e-02	1.896586331e-01	-1.636491940e-04	1.787086046e-11
-1.880000000e-02	1.896586278e-01	-1.617208831e-04	1.351540645e-11
-1.890000000e-02	1.896586225e-01	-1.597925726e-04	8.313677667e-12
-1.900000000e-02	1.896586171e-01	-1.578642624e-04	1.241145150e-11
-1.910000000e-02	1.896586116e-01	-1.559359525e-04	7.646418483e-12
-1.920000000e-02	1.896586061e-01	-1.540076429e-04	3.272468286e-11
-1.930000000e-02	1.896586005e-01	-1.520793337e-04	7.959155899e-12
-1.940000000e-02	1.896585948e-01	-1.501510248e-04	2.621104064e-11
-1.950000000e-02	1.896585891e-01	-1.482227162e-04	9.501023101e-12
-1.960000000e-02	1.896585834e-01	-1.462944080e-04	1.994548575e-11
-1.970000000e-02	1.896585775e-01	-1.443661001e-04	8.375639830e-12
-1.980000000e-02	1.896585717e-01	-1.424377926e-04	3.534875066e-11
-1.990000000e-02	1.896585657e-01	-1.405094854e-04	1.437487243e-10
-2.000000000e-02	1.896585597e-01	-1.385811786e-04	1.425768163e-11
-2.010000000e-02	1.896585537e-01	-1.366528722e-04	7.384922110e-12
-2.020000000e-02	1.896585476e-01	-1.347245661e-04	7.667020285e-12
-2.030000000e-02	1.896585414e-01	-1.327962603e-04	3.377919861e-11
-2.040000000e-02	1.896585351e-01	-1.308679550e-04	1.439039051e-11
-2.050000000e-02	1.896585289e-01	-1.289396500e-04	1.315984128e-11
-2.060000000e-02	1.896585225e-01	-1.270113453e-04	1.752958024e-11
-2.070000000e-02	1.896585161e-01	-1.250830411e-04	1.484809011e-11
-2.080000000e-02	1.896585096e-01	-1.231547372e-04	1.113435869e-11
-2.090000000e-02	1.896585031e-01	-1.212264337e-04	4.860474507e-11
-2.100000000e-02	1.896584965e-01	-1.192981306e-04	4.371000907e-11
-2.110000000e-02	1.896584899e-01	-1.173698279e-04	1.265075689e-11
-2.120000000e-02	1.896584832e-01	-1.154415255e-04	2.017640006e-11
-2.130000000e-02	1.896584764e-01	-1.135132236e-04	2.812889455e-11
-2.140000000e-02	1.896584696e-01	-1.115849220e-04	2.499994477e-11
-2.150000000e-02	1.896584627e-01	-1.096566209e-04	1.844942679e-11
-2.160000000e-02	1.896584558e-01	-1.077283201e-04	6.212733736e-12
-2.170000000e-02	1.896584488e-01	-1.058000198e-04	1.009571476e-11
-2.180000000e-02	1.896584417e-01	-1.038717199e-04	2.055361856e-11
-2.190000000e-02	1.896584346e-01	-1.019434203e-04	5.016643117e-12
-2.200000000e-02	1.896584274e-01	-1.000151212e-04	1.233087231e-11
-2.210000000e-02	1.896584202e-01	-9.808682253e-05	1.156454660e-11
-2.220000000e-02	1.896584129e-01	-9.615852426e-05	1.163649886e-11
-2.230000000e-02	1.896584056e-01	-9.423022641e-05	2.707945461e-11
-2.240000000e-02	1.896583982e-01	-9.230192898e-05	7.265072848e-12
-2.250000000e-02	1.896583907e-01	-9.037363199e-05	9.176779431e-12
-2.260000000e-02	1.896583832e-01	-8.844533542e-05	9.250602626e-12
-2.270000000e-02	1.896583756e-01	-8.651703929e-05	5.144296164e-11
-2.280000000e-02	1.896583679e-01	-8.458874360e-05	1.583739487e-11
-2.290000000e-02	1.896583602e-01	-8.266044834e-05	1.234460867e-11
-2.300000000e-02	1.896583525e-01	-8.073215354e-05	1.280084596e-11
-2.310000000e-02	1.896583446e-01	-7.880385917e-05	2.569676099e-11
-2.320000000e-02	1.896583368e-01	-7.687556526e-05	1.076804304e-11
-2.330000000e-02	1.896583288e-01	-7.494727180e-05	1.819715464e-11
-2.340000000e-02	1.896583208e-01	-7.301897880e-05	7.019640188e-12
-2.350000000e-02	1.896583128e-01	-7.109068625e-05	1.129407049e-11
-2.360000000e-02	1.896583047e-01	-6.916239416e-05	9.403370590e-12
-2.370000000e-02	1.896582965e-01	-6.723410254e-05	1.119498743e-11
-2.380000000e-02	1.896582883e-01	-6.530581139e-05	8.849924362e-12
-2.390000000e-02	1.896582800e-01	-6.337752071e-05	1.820215296e-11
-2.400000000e-02	1.896582716e-01	-6.144923050e-05	6.451946716e-11
-2.410000000e-02	1.896582632e-01	-5.952094078e-05	9.861440587e-11
-2.420000000e-02	1.896582548e-01	-5.759265151e-05	1.577886739e-11
-2.430000000e-02	1.896582462e-01	-5.566436274e-05	9.024978428e-12
-2.440000000e-02	1.896582376e-01	-5.373607446e-05	1.617022078e-11
-2.450000000e-02	1.896582290e-01	-5.180778666e-05	8.838917383e-12
-2.460000000e-02	1.896582203e-01	-4.987949936e-05	1.533436948e-11
-2.470000000e-02	1.896582115e-01	-4.795121254e-05	1.536127869e-11
-2.480000000e-02	1.896582027e-01	-4.602292622e-05	2.419657833e-11
-2.490000000e-02	1.896581938e-01	-4.409464041e-05	1.177925927e-11
-2.500000000e-02	1.896581849e-01	-4.216635510e-05	1.353639015e-11
-2.510000000e-02	1.896581759e-01	-4.023807029e-05	6.218441300e-12
-2.520000000e-02	1.896581669e-01	-3.830978600e-05	8.441885592e-12
-2.530000000e-02	1.896581578e-01	-3.638150220e-05	9.155030203e-11
-2.540000000e-02	1.896581486e-01	-3.445321894e-05	2.604112042e-11
-2.550000000e-02	1.896581394e-01	-3.252493621e-05	8.815099986e-11
-2.560000000e-02	1.896581301e-01	-3.059665396e-05	2.032828138e-11
-2.570000000e-02	1.896581207e-01	-2.866837226e-05	1.830518768e-11
-2.580000000e-02	1.896581113e-01	-2.674009108e-05	1.948889164e-11
-2.590000000e-02	1.896581018e-01	-2.481181043e-05	2.748179140e-11
-2.600000000e-02	1.896580923e-01	-2.288353031e-05	1.512588402e-11
-2.610000000e-02	1.896580827e-01	-2.095525076e-05	1.515815395e-10
-2.620000000e-02	1.896580731e-01	-1.902697170e-05	1.367771207e-11
-2.630000000e-02	1.896580634e-01	-1.709869320e-05	1.018585241e-11
-2.640000000e-02	1.896580536e-01	-1.517041525e-05	3.182273600e-11
-2.650000000e-02	1.896580438e-01	-1.324213784e-05	1.727161152e-11
-2.660000000e-02	1.896580339e-01	-1.131386099e-05	5.335964080e-11
-2.670000000e-02	1.896580240e-01	-9.385584683e-06	1.591249578e-11
-2.680000000e-02	1.896580140e-01	-7.457308938e-06	7.042724409e-12
-2.690000000e-02	1.896580040e-01	-5.529033755e-06	2.263998226e-11
-2.700000000e-02	1.896579939e-01	-3.600759154e-06	1.599985966e-10
-2.710000000e-02	1.896579837e-01	-1.672485076e-06	1.809274022e-11
-2.720000000e-02	1.896579735e-01	2.557884096e-07	1.685535415e-11
-2.730000000e-02	1.896579632e-01	2.184061331e-06	2.924240378e-11
-2.740000000e-02	1.896579528e-01	4.112333669e-06	1.596975917e-11
-2.750000000e-02	1.896579424e-01	6.040605428e-06	1.419976998e-11
-2.760000000e-02	1.896579319e-01	7.968876613e-06	6.408418490e-12
-2.770000000e-02	1.896579214e-01	9.897147209e-06	1.585040007e-11
-2.780000000e-02	1.896579108e-01	1.182541722e-05	1.261008028e-11
-2.790000000e-02	1.896579002e-01	1.375368665e-05	1.925644430e-11
-2.800000000e-02	1.896578895e-01	1.568195547e-05	8.463019196e-12
-2.810000000e-02	1.896578787e-01	1.761022371e-05	1.494581196e-11
-2.820000000e-02	1.896578679e-01	1.953849134e-05	1.485810491e-11
-2.830000000e-02	1.896578571e-01	2.146675837e-05	1.535722804e-11
-2.840000000e-02	1.896578461e-01	2.339502480e-05	1.422712812e-11
-2.850000000e-02	1.896578351e-01	2.532329063e-05	1.258890796e-11
-2.860000000e-02	1.896578241e-01	2.725155584e-05	6.545448294e-12
-2.870000000e-02	1.896578130e-01	2.917982044e-05	3.805270723e-11
-2.880000000e-02	1.896578018e-01	3.110808441e-05	1.219515846e-11
-2.890000000e-02	1.896577906e-01	3.303634778e-05	1.182190001e-11
-2.900000000e-02	1.896577793e-01	3.496461052e-05	6.547124420e-12
-2.910000000e-02	1.896577679e-01	3.689287263e-05	9.034071959e-12
-2.920000000e-02	1.896577565e-01	3.882113412e-05	2.133739605e-11
-2.930000000e-02	1.896577451e-01	4.074939497e-05	9.817824492e-12
-2.940000000e-02	1.896577336e-01	4.267765519e-05	1.366754735e-11
-2.950000000e-02	1.896577220e-01	4.460591477e-05	1.462540117e-11
-2.960000000e-02	1.896577103e-01	4.653417371e-05	9.908389091e-12
-2.970000000e-02	1.896576986e-01	4.846243201e-05	1.474449959e-11
-2.980000000e-02	1.896576869e-01	5.039068966e-05	1.116495967e-11
-2.990000000e-02	1.896576751e-01	5.231894666e-05	1.650520399e-11
-3.000000000e-02	1.896576632e-01	5.424720301e-05	3.524828615e-11
