# Im(epsi1)     Re(omega/c)      Im(omega/c)      Eq(det).Opt det CON kz, R=0.5 \mum, mu_c=0.3, Re(epsi1)=3.90solve_det_conkz_vs_kz.py
0.000000000e+00	1.896730855e-01	-5.242723047e-04	4.847048654e-11
-1.000000000e-04	1.896730912e-01	-5.223439149e-04	1.582699615e-11
-2.000000000e-04	1.896730969e-01	-5.204155249e-04	3.310131756e-11
-3.000000000e-04	1.896731024e-01	-5.184871346e-04	1.311063069e-11
-4.000000000e-04	1.896731080e-01	-5.165587442e-04	1.327805518e-11
-5.000000000e-04	1.896731134e-01	-5.146303535e-04	2.056664339e-11
-6.000000000e-04	1.896731188e-01	-5.127019625e-04	9.051369640e-12
-7.000000000e-04	1.896731242e-01	-5.107735714e-04	1.370410157e-11
-8.000000000e-04	1.896731295e-01	-5.088451800e-04	7.882946149e-11
-9.000000000e-04	1.896731347e-01	-5.069167884e-04	1.265208219e-11
-1.000000000e-03	1.896731399e-01	-5.049883966e-04	1.482920652e-11
-1.100000000e-03	1.896731450e-01	-5.030600046e-04	7.402213290e-12
-1.200000000e-03	1.896731500e-01	-5.011316124e-04	1.561016238e-11
-1.300000000e-03	1.896731550e-01	-4.992032200e-04	1.164201600e-11
-1.400000000e-03	1.896731599e-01	-4.972748274e-04	1.483980646e-11
-1.500000000e-03	1.896731648e-01	-4.953464346e-04	1.045946199e-11
-1.600000000e-03	1.896731696e-01	-4.934180416e-04	1.390432382e-11
-1.700000000e-03	1.896731744e-01	-4.914896484e-04	2.175390919e-11
-1.800000000e-03	1.896731791e-01	-4.895612550e-04	2.062319947e-11
-1.900000000e-03	1.896731837e-01	-4.876328614e-04	1.109159225e-11
-2.000000000e-03	1.896731883e-01	-4.857044677e-04	5.956911056e-12
-2.100000000e-03	1.896731928e-01	-4.837760737e-04	3.425809648e-11
-2.200000000e-03	1.896731973e-01	-4.818476796e-04	7.198955947e-12
-2.300000000e-03	1.896732017e-01	-4.799192853e-04	9.949797770e-12
-2.400000000e-03	1.896732060e-01	-4.779908909e-04	3.398722448e-11
-2.500000000e-03	1.896732103e-01	-4.760624962e-04	3.159763377e-11
-2.600000000e-03	1.896732146e-01	-4.741341014e-04	6.222327393e-12
-2.700000000e-03	1.896732187e-01	-4.722057065e-04	1.009173868e-10
-2.800000000e-03	1.896732228e-01	-4.702773114e-04	1.395907902e-11
-2.900000000e-03	1.896732269e-01	-4.683489161e-04	1.115401240e-11
-3.000000000e-03	1.896732309e-01	-4.664205207e-04	1.155036798e-11
-3.100000000e-03	1.896732348e-01	-4.644921251e-04	8.214288876e-12
-3.200000000e-03	1.896732387e-01	-4.625637294e-04	9.720678526e-12
-3.300000000e-03	1.896732425e-01	-4.606353335e-04	7.743428854e-12
-3.400000000e-03	1.896732463e-01	-4.587069375e-04	1.608897963e-11
-3.500000000e-03	1.896732500e-01	-4.567785414e-04	1.012513464e-11
-3.600000000e-03	1.896732536e-01	-4.548501451e-04	9.072398126e-12
-3.700000000e-03	1.896732572e-01	-4.529217487e-04	1.369808700e-11
-3.800000000e-03	1.896732607e-01	-4.509933522e-04	9.385460330e-11
-3.900000000e-03	1.896732642e-01	-4.490649555e-04	1.010524694e-11
-4.000000000e-03	1.896732676e-01	-4.471365587e-04	2.473096256e-11
-4.100000000e-03	1.896732709e-01	-4.452081618e-04	1.587565987e-11
-4.200000000e-03	1.896732742e-01	-4.432797648e-04	4.295156366e-12
-4.300000000e-03	1.896732774e-01	-4.413513677e-04	1.295289832e-11
-4.400000000e-03	1.896732806e-01	-4.394229704e-04	1.893922027e-11
-4.500000000e-03	1.896732837e-01	-4.374945731e-04	9.309135357e-12
-4.600000000e-03	1.896732868e-01	-4.355661756e-04	2.576049025e-11
-4.700000000e-03	1.896732898e-01	-4.336377781e-04	9.339880711e-12
-4.800000000e-03	1.896732927e-01	-4.317093804e-04	1.228897713e-11
-4.900000000e-03	1.896732956e-01	-4.297809826e-04	2.978474013e-11
-5.000000000e-03	1.896732984e-01	-4.278525848e-04	6.338434498e-12
-5.100000000e-03	1.896733011e-01	-4.259241868e-04	1.529893479e-11
-5.200000000e-03	1.896733038e-01	-4.239957888e-04	1.452414807e-11
-5.300000000e-03	1.896733065e-01	-4.220673907e-04	2.001298969e-11
-5.400000000e-03	1.896733091e-01	-4.201389925e-04	3.192541305e-11
-5.500000000e-03	1.896733116e-01	-4.182105942e-04	2.614374014e-11
-5.600000000e-03	1.896733141e-01	-4.162821959e-04	1.684627735e-11
-5.700000000e-03	1.896733165e-01	-4.143537975e-04	1.586448036e-11
-5.800000000e-03	1.896733188e-01	-4.124253990e-04	1.322892772e-11
-5.900000000e-03	1.896733211e-01	-4.104970004e-04	1.284800765e-11
-6.000000000e-03	1.896733233e-01	-4.085686018e-04	1.444065326e-11
-6.100000000e-03	1.896733255e-01	-4.066402031e-04	1.497412533e-11
-6.200000000e-03	1.896733276e-01	-4.047118044e-04	8.546114449e-12
-6.300000000e-03	1.896733297e-01	-4.027834056e-04	4.069399274e-11
-6.400000000e-03	1.896733317e-01	-4.008550067e-04	1.179242087e-11
-6.500000000e-03	1.896733336e-01	-3.989266078e-04	1.519031917e-11
-6.600000000e-03	1.896733355e-01	-3.969982089e-04	1.151347426e-11
-6.700000000e-03	1.896733373e-01	-3.950698099e-04	9.762612086e-12
-6.800000000e-03	1.896733391e-01	-3.931414109e-04	1.790391927e-11
-6.900000000e-03	1.896733408e-01	-3.912130118e-04	1.552905862e-11
-7.000000000e-03	1.896733424e-01	-3.892846128e-04	9.812083528e-12
-7.100000000e-03	1.896733440e-01	-3.873562136e-04	1.496647032e-11
-7.200000000e-03	1.896733455e-01	-3.854278145e-04	1.438793806e-11
-7.300000000e-03	1.896733470e-01	-3.834994153e-04	1.266312564e-11
-7.400000000e-03	1.896733484e-01	-3.815710161e-04	2.177316069e-11
-7.500000000e-03	1.896733497e-01	-3.796426169e-04	1.186936158e-11
-7.600000000e-03	1.896733510e-01	-3.777142177e-04	7.227661601e-12
-7.700000000e-03	1.896733522e-01	-3.757858184e-04	1.310500854e-11
-7.800000000e-03	1.896733534e-01	-3.738574192e-04	1.064955124e-11
-7.900000000e-03	1.896733545e-01	-3.719290199e-04	1.986886965e-11
-8.000000000e-03	1.896733556e-01	-3.700006206e-04	6.344731389e-11
-8.100000000e-03	1.896733566e-01	-3.680722214e-04	1.163999657e-11
-8.200000000e-03	1.896733575e-01	-3.661438221e-04	1.935625405e-11
-8.300000000e-03	1.896733584e-01	-3.642154229e-04	1.938319931e-11
-8.400000000e-03	1.896733592e-01	-3.622870236e-04	6.270808846e-12
-8.500000000e-03	1.896733600e-01	-3.603586244e-04	1.649411428e-11
-8.600000000e-03	1.896733607e-01	-3.584302252e-04	1.736478665e-11
-8.700000000e-03	1.896733613e-01	-3.565018260e-04	1.130332794e-11
-8.800000000e-03	1.896733619e-01	-3.545734268e-04	1.284495929e-11
-8.900000000e-03	1.896733624e-01	-3.526450276e-04	7.804747109e-12
-9.000000000e-03	1.896733629e-01	-3.507166285e-04	8.367765865e-12
-9.100000000e-03	1.896733633e-01	-3.487882294e-04	4.067531493e-11
-9.200000000e-03	1.896733636e-01	-3.468598303e-04	5.880610792e-11
-9.300000000e-03	1.896733639e-01	-3.449314312e-04	1.114120990e-11
-9.400000000e-03	1.896733642e-01	-3.430030322e-04	2.909505251e-11
-9.500000000e-03	1.896733643e-01	-3.410746333e-04	6.627009086e-12
-9.600000000e-03	1.896733645e-01	-3.391462344e-04	6.993989742e-12
-9.700000000e-03	1.896733645e-01	-3.372178355e-04	2.781992391e-11
-9.800000000e-03	1.896733645e-01	-3.352894367e-04	1.694991727e-11
-9.900000000e-03	1.896733644e-01	-3.333610379e-04	1.048560583e-11
-1.000000000e-02	1.896733643e-01	-3.314326392e-04	1.549827207e-11
-1.010000000e-02	1.896733641e-01	-3.295042405e-04	4.026185147e-11
-1.020000000e-02	1.896733639e-01	-3.275758419e-04	1.914327351e-11
-1.030000000e-02	1.896733636e-01	-3.256474434e-04	1.398346759e-11
-1.040000000e-02	1.896733633e-01	-3.237190450e-04	2.052878592e-11
-1.050000000e-02	1.896733628e-01	-3.217906466e-04	7.231322782e-12
-1.060000000e-02	1.896733624e-01	-3.198622483e-04	3.943313700e-11
-1.070000000e-02	1.896733618e-01	-3.179338500e-04	5.783490973e-12
-1.080000000e-02	1.896733612e-01	-3.160054518e-04	1.422548017e-11
-1.090000000e-02	1.896733606e-01	-3.140770538e-04	1.708246640e-11
-1.100000000e-02	1.896733599e-01	-3.121486558e-04	7.169965536e-11
-1.110000000e-02	1.896733591e-01	-3.102202579e-04	8.798543097e-12
-1.120000000e-02	1.896733583e-01	-3.082918601e-04	1.645917870e-11
-1.130000000e-02	1.896733574e-01	-3.063634624e-04	7.210525016e-12
-1.140000000e-02	1.896733565e-01	-3.044350647e-04	2.742573570e-11
-1.150000000e-02	1.896733555e-01	-3.025066672e-04	7.930684201e-12
-1.160000000e-02	1.896733544e-01	-3.005782698e-04	8.533683646e-12
-1.170000000e-02	1.896733533e-01	-2.986498725e-04	2.785375146e-11
-1.180000000e-02	1.896733521e-01	-2.967214753e-04	1.039968496e-11
-1.190000000e-02	1.896733509e-01	-2.947930782e-04	5.293306888e-11
-1.200000000e-02	1.896733496e-01	-2.928646812e-04	1.192257887e-11
-1.210000000e-02	1.896733482e-01	-2.909362844e-04	2.707417726e-11
-1.220000000e-02	1.896733468e-01	-2.890078877e-04	2.349783839e-11
-1.230000000e-02	1.896733453e-01	-2.870794911e-04	1.385398236e-11
-1.240000000e-02	1.896733438e-01	-2.851510946e-04	7.119883075e-11
-1.250000000e-02	1.896733422e-01	-2.832226982e-04	9.097717838e-12
-1.260000000e-02	1.896733406e-01	-2.812943020e-04	7.738143474e-12
-1.270000000e-02	1.896733388e-01	-2.793659059e-04	7.965159990e-12
-1.280000000e-02	1.896733371e-01	-2.774375100e-04	1.645602535e-10
-1.290000000e-02	1.896733353e-01	-2.755091142e-04	8.404183749e-12
-1.300000000e-02	1.896733334e-01	-2.735807186e-04	2.336848101e-11
-1.310000000e-02	1.896733314e-01	-2.716523231e-04	1.519890363e-11
-1.320000000e-02	1.896733294e-01	-2.697239277e-04	6.146794561e-12
-1.330000000e-02	1.896733274e-01	-2.677955325e-04	7.102015204e-12
-1.340000000e-02	1.896733252e-01	-2.658671375e-04	9.078692695e-12
-1.350000000e-02	1.896733231e-01	-2.639387426e-04	1.055770869e-11
-1.360000000e-02	1.896733208e-01	-2.620103479e-04	1.698645927e-11
-1.370000000e-02	1.896733185e-01	-2.600819533e-04	2.003642356e-11
-1.380000000e-02	1.896733162e-01	-2.581535589e-04	5.792032392e-11
-1.390000000e-02	1.896733138e-01	-2.562251647e-04	7.273408744e-12
-1.400000000e-02	1.896733113e-01	-2.542967707e-04	1.270326101e-11
-1.410000000e-02	1.896733088e-01	-2.523683768e-04	1.988248736e-11
-1.420000000e-02	1.896733062e-01	-2.504399832e-04	1.013579150e-11
-1.430000000e-02	1.896733035e-01	-2.485115897e-04	1.217825654e-11
-1.440000000e-02	1.896733008e-01	-2.465831964e-04	1.268807501e-11
-1.450000000e-02	1.896732981e-01	-2.446548033e-04	1.432141355e-11
-1.460000000e-02	1.896732952e-01	-2.427264103e-04	7.497006586e-12
-1.470000000e-02	1.896732924e-01	-2.407980176e-04	1.144285755e-11
-1.480000000e-02	1.896732894e-01	-2.388696251e-04	1.101892613e-11
-1.490000000e-02	1.896732864e-01	-2.369412328e-04	1.901912947e-11
-1.500000000e-02	1.896732834e-01	-2.350128406e-04	9.127513864e-12
-1.510000000e-02	1.896732802e-01	-2.330844487e-04	2.533780899e-11
-1.520000000e-02	1.896732771e-01	-2.311560570e-04	1.467207094e-11
-1.530000000e-02	1.896732738e-01	-2.292276656e-04	2.053817983e-11
-1.540000000e-02	1.896732705e-01	-2.272992743e-04	1.559600869e-11
-1.550000000e-02	1.896732672e-01	-2.253708832e-04	1.655463392e-11
-1.560000000e-02	1.896732638e-01	-2.234424924e-04	2.229039440e-11
-1.570000000e-02	1.896732603e-01	-2.215141018e-04	2.324123871e-11
-1.580000000e-02	1.896732568e-01	-2.195857114e-04	1.264324713e-11
-1.590000000e-02	1.896732532e-01	-2.176573213e-04	2.946714986e-11
-1.600000000e-02	1.896732495e-01	-2.157289314e-04	1.006777963e-11
-1.610000000e-02	1.896732458e-01	-2.138005417e-04	1.050538457e-11
-1.620000000e-02	1.896732421e-01	-2.118721523e-04	1.360459713e-11
-1.630000000e-02	1.896732382e-01	-2.099437631e-04	1.105885444e-11
-1.640000000e-02	1.896732344e-01	-2.080153742e-04	1.257748463e-11
-1.650000000e-02	1.896732304e-01	-2.060869855e-04	2.964899012e-11
-1.660000000e-02	1.896732264e-01	-2.041585971e-04	1.032417998e-11
-1.670000000e-02	1.896732224e-01	-2.022302089e-04	8.706911482e-12
-1.680000000e-02	1.896732182e-01	-2.003018210e-04	7.175199012e-12
-1.690000000e-02	1.896732141e-01	-1.983734333e-04	1.231537611e-11
-1.700000000e-02	1.896732098e-01	-1.964450459e-04	4.693846703e-11
-1.710000000e-02	1.896732055e-01	-1.945166588e-04	1.435946222e-11
-1.720000000e-02	1.896732012e-01	-1.925882719e-04	1.533506641e-11
-1.730000000e-02	1.896731968e-01	-1.906598854e-04	8.944016760e-12
-1.740000000e-02	1.896731923e-01	-1.887314990e-04	9.566498551e-12
-1.750000000e-02	1.896731878e-01	-1.868031130e-04	1.885812783e-11
-1.760000000e-02	1.896731832e-01	-1.848747273e-04	1.472479598e-11
-1.770000000e-02	1.896731785e-01	-1.829463418e-04	1.337871662e-11
-1.780000000e-02	1.896731738e-01	-1.810179567e-04	2.767473847e-11
-1.790000000e-02	1.896731691e-01	-1.790895718e-04	7.394454154e-12
-1.800000000e-02	1.896731642e-01	-1.771611872e-04	4.970823475e-12
-1.810000000e-02	1.896731594e-01	-1.752328029e-04	1.429303875e-11
-1.820000000e-02	1.896731544e-01	-1.733044189e-04	1.322863178e-11
-1.830000000e-02	1.896731494e-01	-1.713760352e-04	6.853495255e-12
-1.840000000e-02	1.896731444e-01	-1.694476519e-04	5.188326873e-11
-1.850000000e-02	1.896731393e-01	-1.675192688e-04	1.342328198e-11
-1.860000000e-02	1.896731341e-01	-1.655908860e-04	7.900549623e-12
-1.870000000e-02	1.896731288e-01	-1.636625036e-04	9.398521602e-12
-1.880000000e-02	1.896731236e-01	-1.617341215e-04	1.197794787e-11
-1.890000000e-02	1.896731182e-01	-1.598057397e-04	2.628193879e-11
-1.900000000e-02	1.896731128e-01	-1.578773582e-04	1.046910114e-11
-1.910000000e-02	1.896731073e-01	-1.559489771e-04	1.546306615e-11
-1.920000000e-02	1.896731018e-01	-1.540205962e-04	2.079820791e-11
-1.930000000e-02	1.896730962e-01	-1.520922158e-04	6.715147572e-12
-1.940000000e-02	1.896730906e-01	-1.501638356e-04	1.103014020e-11
-1.950000000e-02	1.896730849e-01	-1.482354558e-04	1.327010982e-11
-1.960000000e-02	1.896730791e-01	-1.463070763e-04	1.193577051e-11
-1.970000000e-02	1.896730733e-01	-1.443786972e-04	4.934609087e-12
-1.980000000e-02	1.896730674e-01	-1.424503184e-04	1.543867077e-10
-1.990000000e-02	1.896730615e-01	-1.405219400e-04	5.402573021e-12
-2.000000000e-02	1.896730555e-01	-1.385935619e-04	1.861470851e-11
-2.010000000e-02	1.896730494e-01	-1.366651842e-04	4.798205051e-11
-2.020000000e-02	1.896730433e-01	-1.347368069e-04	1.060506531e-11
-2.030000000e-02	1.896730371e-01	-1.328084299e-04	1.202500161e-11
-2.040000000e-02	1.896730309e-01	-1.308800533e-04	9.239813166e-12
-2.050000000e-02	1.896730246e-01	-1.289516770e-04	5.617526787e-12
-2.060000000e-02	1.896730182e-01	-1.270233011e-04	1.073197320e-11
-2.070000000e-02	1.896730118e-01	-1.250949256e-04	2.517208479e-11
-2.080000000e-02	1.896730054e-01	-1.231665505e-04	1.104342195e-11
-2.090000000e-02	1.896729988e-01	-1.212381758e-04	1.277738377e-11
-2.100000000e-02	1.896729923e-01	-1.193098014e-04	7.582905974e-12
-2.110000000e-02	1.896729856e-01	-1.173814274e-04	1.065576296e-11
-2.120000000e-02	1.896729789e-01	-1.154530538e-04	1.637308222e-11
-2.130000000e-02	1.896729721e-01	-1.135246806e-04	9.792887256e-12
-2.140000000e-02	1.896729653e-01	-1.115963078e-04	2.306531525e-11
-2.150000000e-02	1.896729584e-01	-1.096679354e-04	7.610259761e-12
-2.160000000e-02	1.896729515e-01	-1.077395634e-04	7.862434983e-12
-2.170000000e-02	1.896729445e-01	-1.058111918e-04	1.563951630e-11
-2.180000000e-02	1.896729375e-01	-1.038828207e-04	1.212841046e-11
-2.190000000e-02	1.896729303e-01	-1.019544499e-04	7.060968836e-12
-2.200000000e-02	1.896729232e-01	-1.000260795e-04	8.500367529e-12
-2.210000000e-02	1.896729159e-01	-9.809770957e-05	3.525129734e-11
-2.220000000e-02	1.896729086e-01	-9.616934005e-05	8.403570019e-12
-2.230000000e-02	1.896729013e-01	-9.424097095e-05	1.374613836e-11
-2.240000000e-02	1.896728939e-01	-9.231260227e-05	1.007478930e-11
-2.250000000e-02	1.896728864e-01	-9.038423402e-05	1.363770007e-11
-2.260000000e-02	1.896728789e-01	-8.845586620e-05	1.343876390e-11
-2.270000000e-02	1.896728713e-01	-8.652749883e-05	3.467581670e-10
-2.280000000e-02	1.896728637e-01	-8.459913188e-05	8.463127400e-12
-2.290000000e-02	1.896728560e-01	-8.267076538e-05	5.816309860e-12
-2.300000000e-02	1.896728482e-01	-8.074239932e-05	1.204684670e-11
-2.310000000e-02	1.896728404e-01	-7.881403370e-05	7.354745071e-12
-2.320000000e-02	1.896728325e-01	-7.688566853e-05	3.414310157e-11
-2.330000000e-02	1.896728246e-01	-7.495730383e-05	8.687460036e-12
-2.340000000e-02	1.896728166e-01	-7.302893957e-05	1.009882621e-11
-2.350000000e-02	1.896728085e-01	-7.110057577e-05	9.210682530e-12
-2.360000000e-02	1.896728004e-01	-6.917221243e-05	1.483247465e-11
-2.370000000e-02	1.896727922e-01	-6.724384956e-05	1.160767999e-11
-2.380000000e-02	1.896727840e-01	-6.531548716e-05	2.763991525e-11
-2.390000000e-02	1.896727757e-01	-6.338712522e-05	9.107820779e-12
-2.400000000e-02	1.896727674e-01	-6.145876376e-05	1.474951114e-11
-2.410000000e-02	1.896727590e-01	-5.953040278e-05	1.045987596e-11
-2.420000000e-02	1.896727505e-01	-5.760204227e-05	1.119355612e-11
-2.430000000e-02	1.896727420e-01	-5.567368225e-05	1.517304804e-11
-2.440000000e-02	1.896727334e-01	-5.374532271e-05	9.236233931e-12
-2.450000000e-02	1.896727247e-01	-5.181696366e-05	2.826883202e-11
-2.460000000e-02	1.896727160e-01	-4.988860510e-05	2.093784685e-11
-2.470000000e-02	1.896727073e-01	-4.796024704e-05	3.575567282e-11
-2.480000000e-02	1.896726985e-01	-4.603188947e-05	5.586500302e-12
-2.490000000e-02	1.896726896e-01	-4.410353241e-05	4.032135715e-11
-2.500000000e-02	1.896726807e-01	-4.217517584e-05	1.149629637e-11
-2.510000000e-02	1.896726717e-01	-4.024681978e-05	1.483670935e-11
-2.520000000e-02	1.896726626e-01	-3.831846424e-05	2.576686546e-11
-2.530000000e-02	1.896726535e-01	-3.639010920e-05	1.644422478e-11
-2.540000000e-02	1.896726443e-01	-3.446175468e-05	1.403271904e-11
-2.550000000e-02	1.896726351e-01	-3.253340068e-05	6.890207629e-12
-2.560000000e-02	1.896726258e-01	-3.060504719e-05	1.017916131e-11
-2.570000000e-02	1.896726165e-01	-2.867669423e-05	1.046797156e-11
-2.580000000e-02	1.896726071e-01	-2.674834180e-05	8.487060849e-12
-2.590000000e-02	1.896725976e-01	-2.481998990e-05	6.971265227e-12
-2.600000000e-02	1.896725881e-01	-2.289163853e-05	4.329320191e-12
-2.610000000e-02	1.896725785e-01	-2.096328770e-05	1.151677110e-11
-2.620000000e-02	1.896725688e-01	-1.903493741e-05	2.857914800e-11
-2.630000000e-02	1.896725591e-01	-1.710658766e-05	8.714209792e-12
-2.640000000e-02	1.896725494e-01	-1.517823845e-05	9.506273767e-12
-2.650000000e-02	1.896725396e-01	-1.324988979e-05	1.064791541e-11
-2.660000000e-02	1.896725297e-01	-1.132154168e-05	1.759807527e-11
-2.670000000e-02	1.896725198e-01	-9.393194131e-06	1.433673931e-11
-2.680000000e-02	1.896725098e-01	-7.464847134e-06	7.755827588e-12
-2.690000000e-02	1.896724997e-01	-5.536500694e-06	4.726091593e-11
-2.700000000e-02	1.896724896e-01	-3.608154823e-06	9.412689386e-12
-2.710000000e-02	1.896724794e-01	-1.679809512e-06	6.445106824e-11
-2.720000000e-02	1.896724692e-01	2.485352254e-07	7.678190342e-12
-2.730000000e-02	1.896724589e-01	2.176879393e-06	7.851175657e-12
-2.740000000e-02	1.896724486e-01	4.105222985e-06	1.626426430e-11
-2.750000000e-02	1.896724382e-01	6.033566003e-06	2.061696096e-11
-2.760000000e-02	1.896724277e-01	7.961908436e-06	4.028255894e-11
-2.770000000e-02	1.896724172e-01	9.890250288e-06	1.134751331e-11
-2.780000000e-02	1.896724066e-01	1.181859155e-05	1.251653320e-11
-2.790000000e-02	1.896723960e-01	1.374693223e-05	1.127495354e-11
-2.800000000e-02	1.896723853e-01	1.567527231e-05	1.871001681e-11
-2.810000000e-02	1.896723745e-01	1.760361180e-05	6.459035514e-12
-2.820000000e-02	1.896723637e-01	1.953195068e-05	1.061279056e-11
-2.830000000e-02	1.896723528e-01	2.146028897e-05	1.200631723e-11
-2.840000000e-02	1.896723419e-01	2.338862665e-05	1.239710091e-11
-2.850000000e-02	1.896723309e-01	2.531696373e-05	1.174004862e-11
-2.860000000e-02	1.896723198e-01	2.724530019e-05	1.292439917e-11
-2.870000000e-02	1.896723087e-01	2.917363604e-05	1.103070650e-11
-2.880000000e-02	1.896722976e-01	3.110197128e-05	1.158924173e-11
-2.890000000e-02	1.896722863e-01	3.303030589e-05	3.340715956e-11
-2.900000000e-02	1.896722750e-01	3.495863988e-05	1.677327578e-11
-2.910000000e-02	1.896722637e-01	3.688697325e-05	7.642303454e-12
-2.920000000e-02	1.896722523e-01	3.881530599e-05	1.244519670e-11
-2.930000000e-02	1.896722408e-01	4.074363810e-05	8.336115218e-12
-2.940000000e-02	1.896722293e-01	4.267196957e-05	9.123099869e-12
-2.950000000e-02	1.896722177e-01	4.460030040e-05	3.023687399e-11
-2.960000000e-02	1.896722061e-01	4.652863060e-05	8.287726974e-12
-2.970000000e-02	1.896721944e-01	4.845696015e-05	1.690950450e-11
-2.980000000e-02	1.896721826e-01	5.038528906e-05	4.361949469e-12
-2.990000000e-02	1.896721708e-01	5.231361731e-05	1.842940835e-11
-3.000000000e-02	1.896721589e-01	5.424194492e-05	7.884302252e-12
