# Im(epsi1)     Re(omega/c)      Im(omega/c)      Eq(det).Opt det CON kz, R=0.5 \mum, mu_c=0.3, Re(epsi1)=3.90solve_det_conkz_vs_kz.py
0.000000000e+00	1.896442865e-01	-5.242096244e-04	5.677215799e-12
-1.000000000e-04	1.896442922e-01	-5.222813759e-04	1.037485464e-11
-2.000000000e-04	1.896442978e-01	-5.203531271e-04	1.072939125e-11
-3.000000000e-04	1.896443034e-01	-5.184248782e-04	1.036927203e-11
-4.000000000e-04	1.896443089e-01	-5.164966290e-04	1.503015943e-11
-5.000000000e-04	1.896443144e-01	-5.145683796e-04	7.508099489e-12
-6.000000000e-04	1.896443198e-01	-5.126401299e-04	9.626706002e-12
-7.000000000e-04	1.896443251e-01	-5.107118800e-04	1.725178132e-11
-8.000000000e-04	1.896443304e-01	-5.087836300e-04	1.047035818e-11
-9.000000000e-04	1.896443357e-01	-5.068553797e-04	8.649061195e-12
-1.000000000e-03	1.896443408e-01	-5.049271291e-04	2.409270422e-11
-1.100000000e-03	1.896443459e-01	-5.029988784e-04	1.353616835e-11
-1.200000000e-03	1.896443510e-01	-5.010706275e-04	1.802606511e-11
-1.300000000e-03	1.896443560e-01	-4.991423764e-04	1.603728298e-11
-1.400000000e-03	1.896443609e-01	-4.972141250e-04	9.828714830e-12
-1.500000000e-03	1.896443658e-01	-4.952858735e-04	1.167863290e-10
-1.600000000e-03	1.896443706e-01	-4.933576218e-04	2.537664950e-11
-1.700000000e-03	1.896443754e-01	-4.914293698e-04	6.659688608e-12
-1.800000000e-03	1.896443800e-01	-4.895011177e-04	3.974811675e-11
-1.900000000e-03	1.896443847e-01	-4.875728654e-04	9.007791554e-12
-2.000000000e-03	1.896443893e-01	-4.856446130e-04	1.176466731e-11
-2.100000000e-03	1.896443938e-01	-4.837163603e-04	9.259783358e-12
-2.200000000e-03	1.896443982e-01	-4.817881075e-04	7.683728913e-12
-2.300000000e-03	1.896444027e-01	-4.798598545e-04	1.791150003e-11
-2.400000000e-03	1.896444070e-01	-4.779316013e-04	9.232986467e-12
-2.500000000e-03	1.896444113e-01	-4.760033479e-04	2.827069332e-11
-2.600000000e-03	1.896444155e-01	-4.740750944e-04	1.255457127e-11
-2.700000000e-03	1.896444197e-01	-4.721468408e-04	2.293668643e-11
-2.800000000e-03	1.896444238e-01	-4.702185869e-04	7.608262126e-12
-2.900000000e-03	1.896444278e-01	-4.682903329e-04	2.656601452e-11
-3.000000000e-03	1.896444318e-01	-4.663620788e-04	1.967878852e-11
-3.100000000e-03	1.896444358e-01	-4.644338245e-04	9.370243122e-12
-3.200000000e-03	1.896444396e-01	-4.625055701e-04	1.266231076e-11
-3.300000000e-03	1.896444435e-01	-4.605773155e-04	1.634690169e-11
-3.400000000e-03	1.896444472e-01	-4.586490608e-04	1.896260748e-11
-3.500000000e-03	1.896444509e-01	-4.567208059e-04	1.217505821e-11
-3.600000000e-03	1.896444545e-01	-4.547925509e-04	1.035700026e-11
-3.700000000e-03	1.896444581e-01	-4.528642958e-04	2.789084055e-11
-3.800000000e-03	1.896444617e-01	-4.509360405e-04	2.205314153e-11
-3.900000000e-03	1.896444651e-01	-4.490077851e-04	1.395246321e-11
-4.000000000e-03	1.896444685e-01	-4.470795296e-04	1.303699557e-11
-4.100000000e-03	1.896444719e-01	-4.451512740e-04	1.025668152e-11
-4.200000000e-03	1.896444752e-01	-4.432230183e-04	1.240063033e-11
-4.300000000e-03	1.896444784e-01	-4.412947624e-04	9.912162573e-12
-4.400000000e-03	1.896444815e-01	-4.393665064e-04	1.459121646e-11
-4.500000000e-03	1.896444847e-01	-4.374382504e-04	1.037868953e-11
-4.600000000e-03	1.896444877e-01	-4.355099942e-04	1.774697559e-11
-4.700000000e-03	1.896444907e-01	-4.335817379e-04	1.869519137e-11
-4.800000000e-03	1.896444936e-01	-4.316534815e-04	3.102987048e-11
-4.900000000e-03	1.896444965e-01	-4.297252250e-04	2.090555841e-11
-5.000000000e-03	1.896444993e-01	-4.277969685e-04	3.928553606e-11
-5.100000000e-03	1.896445021e-01	-4.258687118e-04	7.342736325e-12
-5.200000000e-03	1.896445048e-01	-4.239404551e-04	5.169412609e-11
-5.300000000e-03	1.896445074e-01	-4.220121982e-04	8.621701366e-12
-5.400000000e-03	1.896445100e-01	-4.200839413e-04	8.717773162e-12
-5.500000000e-03	1.896445125e-01	-4.181556843e-04	9.231908986e-12
-5.600000000e-03	1.896445150e-01	-4.162274273e-04	3.812775809e-11
-5.700000000e-03	1.896445174e-01	-4.142991701e-04	1.043463845e-11
-5.800000000e-03	1.896445197e-01	-4.123709129e-04	5.868910183e-12
-5.900000000e-03	1.896445220e-01	-4.104426556e-04	5.151874855e-12
-6.000000000e-03	1.896445243e-01	-4.085143983e-04	3.669611183e-11
-6.100000000e-03	1.896445264e-01	-4.065861409e-04	1.003022167e-11
-6.200000000e-03	1.896445285e-01	-4.046578834e-04	1.313942290e-11
-6.300000000e-03	1.896445306e-01	-4.027296259e-04	8.553760748e-12
-6.400000000e-03	1.896445326e-01	-4.008013683e-04	1.070378545e-11
-6.500000000e-03	1.896445345e-01	-3.988731107e-04	1.824888955e-11
-6.600000000e-03	1.896445364e-01	-3.969448531e-04	1.003533479e-11
-6.700000000e-03	1.896445382e-01	-3.950165954e-04	3.812945176e-11
-6.800000000e-03	1.896445400e-01	-3.930883376e-04	8.987778972e-12
-6.900000000e-03	1.896445417e-01	-3.911600799e-04	1.014114883e-11
-7.000000000e-03	1.896445433e-01	-3.892318220e-04	2.279872857e-11
-7.100000000e-03	1.896445449e-01	-3.873035642e-04	3.750646971e-11
-7.200000000e-03	1.896445464e-01	-3.853753063e-04	1.790034987e-11
-7.300000000e-03	1.896445479e-01	-3.834470484e-04	1.846192446e-11
-7.400000000e-03	1.896445493e-01	-3.815187905e-04	6.807118744e-12
-7.500000000e-03	1.896445506e-01	-3.795905326e-04	8.217264868e-12
-7.600000000e-03	1.896445519e-01	-3.776622747e-04	1.070202408e-11
-7.700000000e-03	1.896445532e-01	-3.757340167e-04	1.323254709e-11
-7.800000000e-03	1.896445543e-01	-3.738057587e-04	2.224904315e-11
-7.900000000e-03	1.896445554e-01	-3.718775007e-04	1.007869800e-11
-8.000000000e-03	1.896445565e-01	-3.699492428e-04	3.673860283e-11
-8.100000000e-03	1.896445575e-01	-3.680209848e-04	2.075082396e-11
-8.200000000e-03	1.896445584e-01	-3.660927268e-04	7.124637900e-12
-8.300000000e-03	1.896445593e-01	-3.641644688e-04	2.002170367e-11
-8.400000000e-03	1.896445601e-01	-3.622362108e-04	2.074749378e-11
-8.500000000e-03	1.896445609e-01	-3.603079529e-04	1.927504463e-11
-8.600000000e-03	1.896445616e-01	-3.583796949e-04	1.660690105e-11
-8.700000000e-03	1.896445622e-01	-3.564514370e-04	5.074700181e-11
-8.800000000e-03	1.896445628e-01	-3.545231791e-04	3.597083133e-11
-8.900000000e-03	1.896445633e-01	-3.525949212e-04	7.808758409e-12
-9.000000000e-03	1.896445638e-01	-3.506666634e-04	1.084223943e-11
-9.100000000e-03	1.896445642e-01	-3.487384055e-04	1.321449364e-11
-9.200000000e-03	1.896445646e-01	-3.468101478e-04	1.086688859e-11
-9.300000000e-03	1.896445649e-01	-3.448818900e-04	3.605616982e-11
-9.400000000e-03	1.896445651e-01	-3.429536323e-04	6.372076381e-12
-9.500000000e-03	1.896445653e-01	-3.410253746e-04	1.561727975e-11
-9.600000000e-03	1.896445654e-01	-3.390971170e-04	5.259940536e-12
-9.700000000e-03	1.896445654e-01	-3.371688594e-04	6.652908775e-12
-9.800000000e-03	1.896445654e-01	-3.352406018e-04	4.813422624e-12
-9.900000000e-03	1.896445654e-01	-3.333123443e-04	1.259197900e-11
-1.000000000e-02	1.896445652e-01	-3.313840869e-04	1.034138611e-11
-1.010000000e-02	1.896445651e-01	-3.294558295e-04	1.468555041e-10
-1.020000000e-02	1.896445648e-01	-3.275275722e-04	1.506265611e-11
-1.030000000e-02	1.896445645e-01	-3.255993150e-04	5.524386312e-12
-1.040000000e-02	1.896445642e-01	-3.236710578e-04	1.069510816e-11
-1.050000000e-02	1.896445637e-01	-3.217428007e-04	1.837338183e-11
-1.060000000e-02	1.896445633e-01	-3.198145437e-04	1.817747466e-11
-1.070000000e-02	1.896445627e-01	-3.178862867e-04	2.046696605e-11
-1.080000000e-02	1.896445621e-01	-3.159580298e-04	4.982010098e-12
-1.090000000e-02	1.896445615e-01	-3.140297730e-04	2.364912597e-11
-1.100000000e-02	1.896445608e-01	-3.121015163e-04	3.153032093e-11
-1.110000000e-02	1.896445600e-01	-3.101732597e-04	2.872749850e-11
-1.120000000e-02	1.896445592e-01	-3.082450032e-04	5.632844289e-12
-1.130000000e-02	1.896445583e-01	-3.063167467e-04	1.803038062e-11
-1.140000000e-02	1.896445574e-01	-3.043884904e-04	1.432920614e-11
-1.150000000e-02	1.896445564e-01	-3.024602342e-04	1.158497177e-11
-1.160000000e-02	1.896445553e-01	-3.005319780e-04	1.262284745e-11
-1.170000000e-02	1.896445542e-01	-2.986037220e-04	3.468810041e-11
-1.180000000e-02	1.896445530e-01	-2.966754661e-04	7.576454466e-12
-1.190000000e-02	1.896445518e-01	-2.947472103e-04	4.557957038e-11
-1.200000000e-02	1.896445505e-01	-2.928189546e-04	9.573744802e-12
-1.210000000e-02	1.896445491e-01	-2.908906990e-04	1.674982031e-11
-1.220000000e-02	1.896445477e-01	-2.889624436e-04	1.048566269e-11
-1.230000000e-02	1.896445462e-01	-2.870341883e-04	2.146228439e-11
-1.240000000e-02	1.896445447e-01	-2.851059331e-04	1.539932688e-11
-1.250000000e-02	1.896445431e-01	-2.831776780e-04	2.235597632e-11
-1.260000000e-02	1.896445414e-01	-2.812494231e-04	1.369856658e-11
-1.270000000e-02	1.896445397e-01	-2.793211683e-04	7.806100913e-12
-1.280000000e-02	1.896445380e-01	-2.773929136e-04	8.746600681e-12
-1.290000000e-02	1.896445361e-01	-2.754646591e-04	1.385833185e-11
-1.300000000e-02	1.896445343e-01	-2.735364049e-04	1.260570058e-09
-1.310000000e-02	1.896445323e-01	-2.716081505e-04	9.006526467e-12
-1.320000000e-02	1.896445303e-01	-2.696798964e-04	6.110617478e-12
-1.330000000e-02	1.896445283e-01	-2.677516425e-04	4.823589332e-11
-1.340000000e-02	1.896445261e-01	-2.658233888e-04	1.363690227e-11
-1.350000000e-02	1.896445240e-01	-2.638951352e-04	1.370639476e-11
-1.360000000e-02	1.896445217e-01	-2.619668817e-04	1.637588804e-11
-1.370000000e-02	1.896445194e-01	-2.600386285e-04	2.013363719e-11
-1.380000000e-02	1.896445171e-01	-2.581103754e-04	1.348794807e-11
-1.390000000e-02	1.896445147e-01	-2.561821224e-04	4.061471776e-11
-1.400000000e-02	1.896445122e-01	-2.542538697e-04	1.453343574e-11
-1.410000000e-02	1.896445096e-01	-2.523256171e-04	9.261854508e-12
-1.420000000e-02	1.896445071e-01	-2.503973647e-04	7.792618103e-12
-1.430000000e-02	1.896445044e-01	-2.484691125e-04	1.047912148e-11
-1.440000000e-02	1.896445017e-01	-2.465408605e-04	9.574020624e-12
-1.450000000e-02	1.896444989e-01	-2.446126087e-04	1.178957190e-11
-1.460000000e-02	1.896444961e-01	-2.426843570e-04	9.543602931e-12
-1.470000000e-02	1.896444932e-01	-2.407561056e-04	1.283627172e-11
-1.480000000e-02	1.896444903e-01	-2.388278543e-04	2.215997947e-11
-1.490000000e-02	1.896444873e-01	-2.368996033e-04	7.307285675e-12
-1.500000000e-02	1.896444842e-01	-2.349713525e-04	5.567390383e-12
-1.510000000e-02	1.896444811e-01	-2.330431018e-04	6.766375235e-12
-1.520000000e-02	1.896444779e-01	-2.311148514e-04	1.244089467e-11
-1.530000000e-02	1.896444747e-01	-2.291866012e-04	1.523908769e-11
-1.540000000e-02	1.896444714e-01	-2.272583512e-04	1.883477773e-11
-1.550000000e-02	1.896444680e-01	-2.253301015e-04	2.129549966e-11
-1.560000000e-02	1.896444646e-01	-2.234018519e-04	8.910921574e-12
-1.570000000e-02	1.896444612e-01	-2.214736026e-04	1.266197609e-11
-1.580000000e-02	1.896444576e-01	-2.195453535e-04	8.602268513e-12
-1.590000000e-02	1.896444540e-01	-2.176171047e-04	1.292473273e-11
-1.600000000e-02	1.896444504e-01	-2.156888560e-04	6.399099621e-12
-1.610000000e-02	1.896444467e-01	-2.137606077e-04	9.157096531e-12
-1.620000000e-02	1.896444429e-01	-2.118323595e-04	2.001479118e-11
-1.630000000e-02	1.896444391e-01	-2.099041116e-04	1.968343640e-11
-1.640000000e-02	1.896444352e-01	-2.079758640e-04	1.527379375e-11
-1.650000000e-02	1.896444313e-01	-2.060476166e-04	1.643898101e-11
-1.660000000e-02	1.896444273e-01	-2.041193694e-04	1.228947022e-11
-1.670000000e-02	1.896444232e-01	-2.021911225e-04	3.698784953e-11
-1.680000000e-02	1.896444191e-01	-2.002628759e-04	1.765738029e-11
-1.690000000e-02	1.896444149e-01	-1.983346295e-04	9.290377887e-12
-1.700000000e-02	1.896444107e-01	-1.964063834e-04	7.765369187e-12
-1.710000000e-02	1.896444064e-01	-1.944781376e-04	1.521154366e-11
-1.720000000e-02	1.896444020e-01	-1.925498920e-04	3.649796368e-11
-1.730000000e-02	1.896443976e-01	-1.906216467e-04	1.340577751e-11
-1.740000000e-02	1.896443932e-01	-1.886934017e-04	2.770582134e-11
-1.750000000e-02	1.896443886e-01	-1.867651569e-04	3.049518827e-11
-1.760000000e-02	1.896443840e-01	-1.848369125e-04	5.939224004e-12
-1.770000000e-02	1.896443794e-01	-1.829086683e-04	1.306357731e-11
-1.780000000e-02	1.896443747e-01	-1.809804244e-04	3.021171684e-11
-1.790000000e-02	1.896443699e-01	-1.790521808e-04	1.093378756e-11
-1.800000000e-02	1.896443651e-01	-1.771239375e-04	1.993756530e-11
-1.810000000e-02	1.896443602e-01	-1.751956945e-04	1.168591823e-11
-1.820000000e-02	1.896443553e-01	-1.732674518e-04	2.484115614e-11
-1.830000000e-02	1.896443503e-01	-1.713392094e-04	9.658075622e-12
-1.840000000e-02	1.896443452e-01	-1.694109673e-04	1.025646156e-11
-1.850000000e-02	1.896443401e-01	-1.674827255e-04	2.276942509e-11
-1.860000000e-02	1.896443349e-01	-1.655544841e-04	3.513960035e-11
-1.870000000e-02	1.896443297e-01	-1.636262429e-04	1.131213147e-11
-1.880000000e-02	1.896443244e-01	-1.616980021e-04	1.517758296e-11
-1.890000000e-02	1.896443190e-01	-1.597697616e-04	2.265521549e-11
-1.900000000e-02	1.896443136e-01	-1.578415214e-04	7.253353388e-12
-1.910000000e-02	1.896443082e-01	-1.559132815e-04	1.028935270e-11
-1.920000000e-02	1.896443026e-01	-1.539850420e-04	1.698376463e-11
-1.930000000e-02	1.896442970e-01	-1.520568028e-04	1.199484438e-11
-1.940000000e-02	1.896442914e-01	-1.501285639e-04	8.004212045e-12
-1.950000000e-02	1.896442857e-01	-1.482003254e-04	1.246037946e-11
-1.960000000e-02	1.896442799e-01	-1.462720872e-04	8.985627788e-12
-1.970000000e-02	1.896442741e-01	-1.443438494e-04	2.121043509e-11
-1.980000000e-02	1.896442682e-01	-1.424156119e-04	6.164728916e-12
-1.990000000e-02	1.896442623e-01	-1.404873747e-04	1.391353289e-11
-2.000000000e-02	1.896442563e-01	-1.385591380e-04	8.928811731e-12
-2.010000000e-02	1.896442502e-01	-1.366309015e-04	1.444138414e-11
-2.020000000e-02	1.896442441e-01	-1.347026655e-04	1.102090485e-11
-2.030000000e-02	1.896442379e-01	-1.327744298e-04	8.099410065e-12
-2.040000000e-02	1.896442317e-01	-1.308461944e-04	1.266730463e-11
-2.050000000e-02	1.896442254e-01	-1.289179595e-04	1.083458807e-11
-2.060000000e-02	1.896442191e-01	-1.269897249e-04	1.179247331e-11
-2.070000000e-02	1.896442127e-01	-1.250614906e-04	1.663647113e-11
-2.080000000e-02	1.896442062e-01	-1.231332568e-04	8.091488039e-12
-2.090000000e-02	1.896441997e-01	-1.212050233e-04	9.331852265e-12
-2.100000000e-02	1.896441931e-01	-1.192767903e-04	2.646167985e-11
-2.110000000e-02	1.896441864e-01	-1.173485576e-04	9.816103167e-12
-2.120000000e-02	1.896441797e-01	-1.154203253e-04	1.296093355e-11
-2.130000000e-02	1.896441730e-01	-1.134920934e-04	7.696848314e-12
-2.140000000e-02	1.896441661e-01	-1.115638619e-04	1.854072647e-11
-2.150000000e-02	1.896441593e-01	-1.096356307e-04	1.319096808e-11
-2.160000000e-02	1.896441523e-01	-1.077074000e-04	3.059001447e-11
-2.170000000e-02	1.896441453e-01	-1.057791697e-04	1.508105251e-11
-2.180000000e-02	1.896441383e-01	-1.038509398e-04	1.946167703e-11
-2.190000000e-02	1.896441312e-01	-1.019227103e-04	6.862008043e-12
-2.200000000e-02	1.896441240e-01	-9.999448126e-05	1.547982077e-11
-2.210000000e-02	1.896441168e-01	-9.806625260e-05	8.738895327e-12
-2.220000000e-02	1.896441095e-01	-9.613802436e-05	1.400292530e-11
-2.230000000e-02	1.896441021e-01	-9.420979655e-05	9.879273827e-12
-2.240000000e-02	1.896440947e-01	-9.228156915e-05	1.704973939e-11
-2.250000000e-02	1.896440872e-01	-9.035334219e-05	1.338745663e-11
-2.260000000e-02	1.896440797e-01	-8.842511566e-05	1.582181410e-11
-2.270000000e-02	1.896440721e-01	-8.649688957e-05	8.526230332e-12
-2.280000000e-02	1.896440645e-01	-8.456866391e-05	1.494055201e-11
-2.290000000e-02	1.896440568e-01	-8.264043869e-05	1.448086694e-11
-2.300000000e-02	1.896440490e-01	-8.071221392e-05	2.397631093e-11
-2.310000000e-02	1.896440412e-01	-7.878398960e-05	1.317683639e-11
-2.320000000e-02	1.896440333e-01	-7.685576572e-05	7.260996241e-12
-2.330000000e-02	1.896440254e-01	-7.492754230e-05	5.668661349e-12
-2.340000000e-02	1.896440174e-01	-7.299931933e-05	1.405460040e-11
-2.350000000e-02	1.896440093e-01	-7.107109681e-05	9.576428053e-12
-2.360000000e-02	1.896440012e-01	-6.914287476e-05	1.134584376e-11
-2.370000000e-02	1.896439930e-01	-6.721465318e-05	3.526873655e-11
-2.380000000e-02	1.896439848e-01	-6.528643206e-05	1.797174247e-11
-2.390000000e-02	1.896439765e-01	-6.335821142e-05	8.695549858e-12
-2.400000000e-02	1.896439682e-01	-6.142999125e-05	6.948713629e-12
-2.410000000e-02	1.896439598e-01	-5.950177155e-05	8.326822488e-12
-2.420000000e-02	1.896439513e-01	-5.757355233e-05	2.955855456e-11
-2.430000000e-02	1.896439428e-01	-5.564533359e-05	7.935283750e-12
-2.440000000e-02	1.896439342e-01	-5.371711534e-05	1.353259259e-11
-2.450000000e-02	1.896439255e-01	-5.178889759e-05	8.115874396e-12
-2.460000000e-02	1.896439168e-01	-4.986068031e-05	1.526871852e-11
-2.470000000e-02	1.896439081e-01	-4.793246354e-05	4.820416607e-11
-2.480000000e-02	1.896438993e-01	-4.600424726e-05	1.235791757e-11
-2.490000000e-02	1.896438904e-01	-4.407603148e-05	1.473737718e-11
-2.500000000e-02	1.896438815e-01	-4.214781620e-05	1.534242677e-11
-2.510000000e-02	1.896438725e-01	-4.021960143e-05	6.721302829e-12
-2.520000000e-02	1.896438634e-01	-3.829138718e-05	1.471619265e-11
-2.530000000e-02	1.896438543e-01	-3.636317343e-05	1.428597478e-11
-2.540000000e-02	1.896438451e-01	-3.443496020e-05	2.623096269e-11
-2.550000000e-02	1.896438359e-01	-3.250674749e-05	2.022411657e-11
-2.560000000e-02	1.896438266e-01	-3.057853529e-05	1.288111040e-11
-2.570000000e-02	1.896438172e-01	-2.865032362e-05	7.982608199e-11
-2.580000000e-02	1.896438078e-01	-2.672211247e-05	2.784081882e-11
-2.590000000e-02	1.896437984e-01	-2.479390186e-05	2.195471503e-11
-2.600000000e-02	1.896437889e-01	-2.286569179e-05	1.577374360e-11
-2.610000000e-02	1.896437793e-01	-2.093748225e-05	2.528491254e-11
-2.620000000e-02	1.896437696e-01	-1.900927324e-05	1.991355652e-11
-2.630000000e-02	1.896437599e-01	-1.708106477e-05	2.140321566e-11
-2.640000000e-02	1.896437502e-01	-1.515285686e-05	1.828310188e-11
-2.650000000e-02	1.896437404e-01	-1.322464950e-05	2.701424685e-11
-2.660000000e-02	1.896437305e-01	-1.129644268e-05	8.899695599e-12
-2.670000000e-02	1.896437205e-01	-9.368236408e-06	7.849631159e-12
-2.680000000e-02	1.896437105e-01	-7.440030696e-06	3.557400810e-11
-2.690000000e-02	1.896437005e-01	-5.511825554e-06	1.599688189e-11
-2.700000000e-02	1.896436904e-01	-3.583620969e-06	7.006650058e-12
-2.710000000e-02	1.896436802e-01	-1.655416950e-06	2.018672943e-11
-2.720000000e-02	1.896436700e-01	2.727864954e-07	1.271713668e-11
-2.730000000e-02	1.896436597e-01	2.200989376e-06	1.301300289e-11
-2.740000000e-02	1.896436493e-01	4.129191681e-06	6.848925448e-12
-2.750000000e-02	1.896436389e-01	6.057393403e-06	7.733752880e-12
-2.760000000e-02	1.896436285e-01	7.985594547e-06	1.300482000e-11
-2.770000000e-02	1.896436180e-01	9.913795109e-06	1.183595211e-11
-2.780000000e-02	1.896436074e-01	1.184199509e-05	1.907000623e-11
-2.790000000e-02	1.896435967e-01	1.377019448e-05	8.109901081e-11
-2.800000000e-02	1.896435860e-01	1.569839326e-05	1.854753109e-11
-2.810000000e-02	1.896435753e-01	1.762659145e-05	2.819454865e-11
-2.820000000e-02	1.896435645e-01	1.955478905e-05	2.984141441e-11
-2.830000000e-02	1.896435536e-01	2.148298605e-05	1.950422464e-11
-2.840000000e-02	1.896435426e-01	2.341118244e-05	9.576035870e-12
-2.850000000e-02	1.896435316e-01	2.533937822e-05	7.369290736e-12
-2.860000000e-02	1.896435206e-01	2.726757340e-05	7.965299197e-12
-2.870000000e-02	1.896435095e-01	2.919576796e-05	1.334869232e-11
-2.880000000e-02	1.896434983e-01	3.112396191e-05	8.168151890e-11
-2.890000000e-02	1.896434871e-01	3.305215522e-05	1.195625147e-11
-2.900000000e-02	1.896434758e-01	3.498034793e-05	2.277835668e-11
-2.910000000e-02	1.896434645e-01	3.690854000e-05	9.202853824e-12
-2.920000000e-02	1.896434531e-01	3.883673145e-05	1.252352648e-11
-2.930000000e-02	1.896434416e-01	4.076492226e-05	9.491443334e-12
-2.940000000e-02	1.896434301e-01	4.269311244e-05	2.191355508e-11
-2.950000000e-02	1.896434185e-01	4.462130199e-05	1.305476213e-11
-2.960000000e-02	1.896434068e-01	4.654949089e-05	8.961794548e-12
-2.970000000e-02	1.896433951e-01	4.847767915e-05	1.175894775e-11
-2.980000000e-02	1.896433834e-01	5.040586677e-05	1.173082611e-11
-2.990000000e-02	1.896433716e-01	5.233405373e-05	8.017579522e-12
-3.000000000e-02	1.896433597e-01	5.426224004e-05	1.266198339e-11
