# Im(epsi1)     Re(omega/c)      Im(omega/c)      Eq(det).Opt det CON kz, R=0.5 \mum, mu_c=0.3, Re(epsi1)=3.90solve_det_conkz_vs_kz.py
0.000000000e+00	1.896508079e-01	-5.242272628e-04	1.224456204e-11
-1.000000000e-04	1.896508136e-01	-5.222989824e-04	5.541551482e-11
-2.000000000e-04	1.896508193e-01	-5.203707018e-04	1.235666687e-11
-3.000000000e-04	1.896508248e-01	-5.184424209e-04	1.533550464e-11
-4.000000000e-04	1.896508304e-01	-5.165141399e-04	5.474813666e-12
-5.000000000e-04	1.896508358e-01	-5.145858585e-04	2.333940836e-11
-6.000000000e-04	1.896508412e-01	-5.126575770e-04	8.761602634e-12
-7.000000000e-04	1.896508466e-01	-5.107292952e-04	6.799757689e-11
-8.000000000e-04	1.896508519e-01	-5.088010133e-04	6.310712971e-12
-9.000000000e-04	1.896508571e-01	-5.068727311e-04	1.071874297e-11
-1.000000000e-03	1.896508622e-01	-5.049444486e-04	2.223551972e-11
-1.100000000e-03	1.896508674e-01	-5.030161660e-04	6.599423342e-12
-1.200000000e-03	1.896508724e-01	-5.010878832e-04	4.955589158e-11
-1.300000000e-03	1.896508774e-01	-4.991596002e-04	9.824549445e-12
-1.400000000e-03	1.896508823e-01	-4.972313169e-04	1.123149307e-11
-1.500000000e-03	1.896508872e-01	-4.953030335e-04	1.148639449e-11
-1.600000000e-03	1.896508920e-01	-4.933747499e-04	1.301979564e-11
-1.700000000e-03	1.896508968e-01	-4.914464661e-04	1.120976828e-11
-1.800000000e-03	1.896509015e-01	-4.895181821e-04	9.219593499e-12
-1.900000000e-03	1.896509061e-01	-4.875898979e-04	3.026311933e-11
-2.000000000e-03	1.896509107e-01	-4.856616135e-04	1.665872667e-11
-2.100000000e-03	1.896509152e-01	-4.837333289e-04	1.010309652e-11
-2.200000000e-03	1.896509197e-01	-4.818050442e-04	4.367022886e-11
-2.300000000e-03	1.896509241e-01	-4.798767593e-04	1.168926549e-11
-2.400000000e-03	1.896509284e-01	-4.779484742e-04	7.571277362e-12
-2.500000000e-03	1.896509327e-01	-4.760201890e-04	1.734707825e-11
-2.600000000e-03	1.896509369e-01	-4.740919036e-04	6.980170705e-12
-2.700000000e-03	1.896509411e-01	-4.721636180e-04	2.287964180e-11
-2.800000000e-03	1.896509452e-01	-4.702353323e-04	1.649199100e-11
-2.900000000e-03	1.896509493e-01	-4.683070464e-04	3.412234928e-11
-3.000000000e-03	1.896509533e-01	-4.663787604e-04	3.371967934e-11
-3.100000000e-03	1.896509572e-01	-4.644504742e-04	7.889804879e-12
-3.200000000e-03	1.896509611e-01	-4.625221879e-04	2.182250430e-11
-3.300000000e-03	1.896509649e-01	-4.605939014e-04	8.209934145e-12
-3.400000000e-03	1.896509686e-01	-4.586656148e-04	6.622090430e-12
-3.500000000e-03	1.896509723e-01	-4.567373280e-04	8.313615706e-12
-3.600000000e-03	1.896509760e-01	-4.548090411e-04	1.524005221e-11
-3.700000000e-03	1.896509796e-01	-4.528807541e-04	1.825775614e-11
-3.800000000e-03	1.896509831e-01	-4.509524669e-04	1.007206126e-11
-3.900000000e-03	1.896509865e-01	-4.490241797e-04	1.245707933e-11
-4.000000000e-03	1.896509900e-01	-4.470958923e-04	8.355468219e-12
-4.100000000e-03	1.896509933e-01	-4.451676047e-04	2.221336460e-11
-4.200000000e-03	1.896509966e-01	-4.432393171e-04	5.922134598e-12
-4.300000000e-03	1.896509998e-01	-4.413110294e-04	1.531826342e-11
-4.400000000e-03	1.896510030e-01	-4.393827415e-04	8.958995654e-12
-4.500000000e-03	1.896510061e-01	-4.374544535e-04	1.337059362e-11
-4.600000000e-03	1.896510091e-01	-4.355261654e-04	1.157906092e-11
-4.700000000e-03	1.896510121e-01	-4.335978773e-04	1.853692502e-11
-4.800000000e-03	1.896510151e-01	-4.316695890e-04	2.189230735e-11
-4.900000000e-03	1.896510179e-01	-4.297413006e-04	8.271710180e-12
-5.000000000e-03	1.896510208e-01	-4.278130121e-04	8.852995820e-12
-5.100000000e-03	1.896510235e-01	-4.258847236e-04	1.479166400e-11
-5.200000000e-03	1.896510262e-01	-4.239564349e-04	1.000055377e-11
-5.300000000e-03	1.896510289e-01	-4.220281462e-04	3.621413287e-11
-5.400000000e-03	1.896510314e-01	-4.200998574e-04	6.831498423e-12
-5.500000000e-03	1.896510340e-01	-4.181715685e-04	7.823246538e-12
-5.600000000e-03	1.896510364e-01	-4.162432795e-04	9.890893945e-12
-5.700000000e-03	1.896510388e-01	-4.143149905e-04	1.660926732e-11
-5.800000000e-03	1.896510412e-01	-4.123867014e-04	4.718895335e-12
-5.900000000e-03	1.896510435e-01	-4.104584122e-04	3.498972238e-11
-6.000000000e-03	1.896510457e-01	-4.085301230e-04	1.059563327e-11
-6.100000000e-03	1.896510479e-01	-4.066018337e-04	8.911300907e-11
-6.200000000e-03	1.896510500e-01	-4.046735443e-04	1.057914386e-11
-6.300000000e-03	1.896510520e-01	-4.027452549e-04	7.771385483e-12
-6.400000000e-03	1.896510540e-01	-4.008169655e-04	1.623232672e-11
-6.500000000e-03	1.896510560e-01	-3.988886760e-04	7.964873658e-12
-6.600000000e-03	1.896510578e-01	-3.969603864e-04	8.295602983e-12
-6.700000000e-03	1.896510597e-01	-3.950320968e-04	1.008014761e-11
-6.800000000e-03	1.896510614e-01	-3.931038072e-04	2.755997099e-11
-6.900000000e-03	1.896510631e-01	-3.911755175e-04	4.192300003e-11
-7.000000000e-03	1.896510648e-01	-3.892472278e-04	9.450938044e-12
-7.100000000e-03	1.896510663e-01	-3.873189381e-04	7.409432802e-12
-7.200000000e-03	1.896510679e-01	-3.853906483e-04	9.657436591e-12
-7.300000000e-03	1.896510693e-01	-3.834623585e-04	8.772354954e-12
-7.400000000e-03	1.896510707e-01	-3.815340687e-04	1.270537022e-10
-7.500000000e-03	1.896510721e-01	-3.796057789e-04	1.733579103e-11
-7.600000000e-03	1.896510734e-01	-3.776774890e-04	1.030917198e-11
-7.700000000e-03	1.896510746e-01	-3.757491992e-04	7.529622885e-12
-7.800000000e-03	1.896510758e-01	-3.738209093e-04	1.786507663e-10
-7.900000000e-03	1.896510769e-01	-3.718926194e-04	1.921808635e-11
-8.000000000e-03	1.896510779e-01	-3.699643295e-04	2.064278066e-11
-8.100000000e-03	1.896510789e-01	-3.680360397e-04	1.101424660e-11
-8.200000000e-03	1.896510799e-01	-3.661077498e-04	9.970791511e-12
-8.300000000e-03	1.896510808e-01	-3.641794599e-04	6.231811412e-12
-8.400000000e-03	1.896510816e-01	-3.622511701e-04	1.129531337e-11
-8.500000000e-03	1.896510823e-01	-3.603228802e-04	1.595209815e-11
-8.600000000e-03	1.896510830e-01	-3.583945904e-04	1.770290063e-11
-8.700000000e-03	1.896510837e-01	-3.564663005e-04	3.101511489e-11
-8.800000000e-03	1.896510843e-01	-3.545380107e-04	2.167996085e-11
-8.900000000e-03	1.896510848e-01	-3.526097210e-04	3.682073739e-11
-9.000000000e-03	1.896510853e-01	-3.506814312e-04	8.551264825e-12
-9.100000000e-03	1.896510857e-01	-3.487531415e-04	2.236879449e-11
-9.200000000e-03	1.896510860e-01	-3.468248518e-04	5.123422314e-12
-9.300000000e-03	1.896510863e-01	-3.448965621e-04	1.441177679e-11
-9.400000000e-03	1.896510865e-01	-3.429682725e-04	6.667148385e-12
-9.500000000e-03	1.896510867e-01	-3.410399829e-04	9.745667785e-12
-9.600000000e-03	1.896510868e-01	-3.391116934e-04	1.116292074e-11
-9.700000000e-03	1.896510869e-01	-3.371834039e-04	7.811906829e-12
-9.800000000e-03	1.896510869e-01	-3.352551145e-04	1.848855993e-11
-9.900000000e-03	1.896510868e-01	-3.333268251e-04	9.973912647e-12
-1.000000000e-02	1.896510867e-01	-3.313985358e-04	7.688504789e-12
-1.010000000e-02	1.896510865e-01	-3.294702465e-04	5.736272696e-12
-1.020000000e-02	1.896510863e-01	-3.275419573e-04	8.943107265e-12
-1.030000000e-02	1.896510860e-01	-3.256136682e-04	1.382587573e-11
-1.040000000e-02	1.896510856e-01	-3.236853791e-04	6.298886415e-12
-1.050000000e-02	1.896510852e-01	-3.217570901e-04	7.672659753e-12
-1.060000000e-02	1.896510847e-01	-3.198288011e-04	2.168460756e-11
-1.070000000e-02	1.896510842e-01	-3.179005123e-04	1.290586955e-11
-1.080000000e-02	1.896510836e-01	-3.159722235e-04	8.478397864e-11
-1.090000000e-02	1.896510829e-01	-3.140439348e-04	2.870597433e-11
-1.100000000e-02	1.896510822e-01	-3.121156462e-04	1.076626799e-11
-1.110000000e-02	1.896510815e-01	-3.101873577e-04	9.042182337e-12
-1.120000000e-02	1.896510806e-01	-3.082590693e-04	3.545617779e-11
-1.130000000e-02	1.896510798e-01	-3.063307809e-04	9.972046572e-12
-1.140000000e-02	1.896510788e-01	-3.044024927e-04	9.434261491e-12
-1.150000000e-02	1.896510778e-01	-3.024742046e-04	6.802878130e-12
-1.160000000e-02	1.896510767e-01	-3.005459166e-04	5.479530364e-12
-1.170000000e-02	1.896510756e-01	-2.986176286e-04	7.545220940e-12
-1.180000000e-02	1.896510744e-01	-2.966893408e-04	1.572864400e-11
-1.190000000e-02	1.896510732e-01	-2.947610531e-04	1.110371185e-11
-1.200000000e-02	1.896510719e-01	-2.928327655e-04	1.250462618e-11
-1.210000000e-02	1.896510706e-01	-2.909044781e-04	1.292004423e-11
-1.220000000e-02	1.896510691e-01	-2.889761907e-04	1.387780834e-11
-1.230000000e-02	1.896510677e-01	-2.870479035e-04	7.694669850e-12
-1.240000000e-02	1.896510661e-01	-2.851196164e-04	1.261424456e-11
-1.250000000e-02	1.896510645e-01	-2.831913294e-04	1.309163505e-11
-1.260000000e-02	1.896510629e-01	-2.812630426e-04	8.399642326e-12
-1.270000000e-02	1.896510612e-01	-2.793347559e-04	1.850293072e-11
-1.280000000e-02	1.896510594e-01	-2.774064694e-04	1.643945663e-11
-1.290000000e-02	1.896510576e-01	-2.754781830e-04	7.497897614e-12
-1.300000000e-02	1.896510557e-01	-2.735498967e-04	1.175453815e-11
-1.310000000e-02	1.896510538e-01	-2.716216106e-04	7.260593644e-12
-1.320000000e-02	1.896510518e-01	-2.696933246e-04	5.167122844e-12
-1.330000000e-02	1.896510497e-01	-2.677650388e-04	8.736687698e-12
-1.340000000e-02	1.896510476e-01	-2.658367531e-04	1.810147742e-11
-1.350000000e-02	1.896510454e-01	-2.639084677e-04	1.112957146e-11
-1.360000000e-02	1.896510432e-01	-2.619801823e-04	1.677472305e-11
-1.370000000e-02	1.896510409e-01	-2.600518972e-04	1.134304049e-11
-1.380000000e-02	1.896510385e-01	-2.581236122e-04	7.134636989e-12
-1.390000000e-02	1.896510361e-01	-2.561953273e-04	8.636360754e-12
-1.400000000e-02	1.896510336e-01	-2.542670427e-04	1.715588393e-11
-1.410000000e-02	1.896510311e-01	-2.523387582e-04	6.323722615e-12
-1.420000000e-02	1.896510285e-01	-2.504104739e-04	1.034641381e-11
-1.430000000e-02	1.896510259e-01	-2.484821898e-04	8.809751221e-12
-1.440000000e-02	1.896510232e-01	-2.465539059e-04	1.875340447e-11
-1.450000000e-02	1.896510204e-01	-2.446256222e-04	1.331641449e-11
-1.460000000e-02	1.896510176e-01	-2.426973386e-04	1.222507023e-11
-1.470000000e-02	1.896510147e-01	-2.407690553e-04	1.055162787e-11
-1.480000000e-02	1.896510117e-01	-2.388407722e-04	7.218178772e-11
-1.490000000e-02	1.896510087e-01	-2.369124892e-04	5.562566265e-12
-1.500000000e-02	1.896510057e-01	-2.349842065e-04	1.121827424e-11
-1.510000000e-02	1.896510026e-01	-2.330559240e-04	6.459842518e-12
-1.520000000e-02	1.896509994e-01	-2.311276417e-04	1.417675205e-11
-1.530000000e-02	1.896509962e-01	-2.291993596e-04	2.767210551e-11
-1.540000000e-02	1.896509929e-01	-2.272710777e-04	1.063467701e-11
-1.550000000e-02	1.896509895e-01	-2.253427960e-04	8.467173180e-12
-1.560000000e-02	1.896509861e-01	-2.234145146e-04	1.306928695e-10
-1.570000000e-02	1.896509826e-01	-2.214862334e-04	1.530869984e-11
-1.580000000e-02	1.896509791e-01	-2.195579524e-04	9.924649562e-12
-1.590000000e-02	1.896509755e-01	-2.176296716e-04	1.046387011e-11
-1.600000000e-02	1.896509719e-01	-2.157013911e-04	6.501409065e-12
-1.610000000e-02	1.896509681e-01	-2.137731108e-04	5.137879443e-11
-1.620000000e-02	1.896509644e-01	-2.118448308e-04	5.941481570e-12
-1.630000000e-02	1.896509606e-01	-2.099165510e-04	1.121515910e-11
-1.640000000e-02	1.896509567e-01	-2.079882714e-04	9.720400365e-12
-1.650000000e-02	1.896509527e-01	-2.060599921e-04	5.549506406e-12
-1.660000000e-02	1.896509487e-01	-2.041317131e-04	3.356820698e-11
-1.670000000e-02	1.896509447e-01	-2.022034343e-04	9.342322473e-11
-1.680000000e-02	1.896509406e-01	-2.002751558e-04	2.447882843e-11
-1.690000000e-02	1.896509364e-01	-1.983468775e-04	1.114890068e-11
-1.700000000e-02	1.896509321e-01	-1.964185995e-04	1.105660304e-11
-1.710000000e-02	1.896509279e-01	-1.944903217e-04	3.028802880e-11
-1.720000000e-02	1.896509235e-01	-1.925620443e-04	1.137420722e-11
-1.730000000e-02	1.896509191e-01	-1.906337671e-04	1.783856767e-11
-1.740000000e-02	1.896509146e-01	-1.887054902e-04	1.939996417e-11
-1.750000000e-02	1.896509101e-01	-1.867772135e-04	3.179448424e-11
-1.760000000e-02	1.896509055e-01	-1.848489372e-04	1.466031765e-11
-1.770000000e-02	1.896509009e-01	-1.829206611e-04	1.365965582e-11
-1.780000000e-02	1.896508962e-01	-1.809923853e-04	1.315864085e-11
-1.790000000e-02	1.896508914e-01	-1.790641098e-04	2.869056105e-11
-1.800000000e-02	1.896508866e-01	-1.771358346e-04	1.270565539e-11
-1.810000000e-02	1.896508817e-01	-1.752075597e-04	9.870287070e-12
-1.820000000e-02	1.896508767e-01	-1.732792851e-04	1.155408096e-11
-1.830000000e-02	1.896508717e-01	-1.713510108e-04	1.298285595e-11
-1.840000000e-02	1.896508667e-01	-1.694227368e-04	8.865513009e-12
-1.850000000e-02	1.896508616e-01	-1.674944632e-04	6.872369350e-12
-1.860000000e-02	1.896508564e-01	-1.655661898e-04	1.373736236e-11
-1.870000000e-02	1.896508512e-01	-1.636379167e-04	1.012817451e-11
-1.880000000e-02	1.896508459e-01	-1.617096440e-04	9.054219879e-12
-1.890000000e-02	1.896508405e-01	-1.597813716e-04	5.706224971e-11
-1.900000000e-02	1.896508351e-01	-1.578530995e-04	8.428186354e-11
-1.910000000e-02	1.896508296e-01	-1.559248278e-04	1.853037607e-11
-1.920000000e-02	1.896508241e-01	-1.539965563e-04	4.075674014e-11
-1.930000000e-02	1.896508185e-01	-1.520682852e-04	2.381560452e-11
-1.940000000e-02	1.896508129e-01	-1.501400145e-04	2.608066123e-11
-1.950000000e-02	1.896508072e-01	-1.482117440e-04	5.090208233e-12
-1.960000000e-02	1.896508014e-01	-1.462834740e-04	2.397531046e-11
-1.970000000e-02	1.896507956e-01	-1.443552042e-04	1.594756107e-11
-1.980000000e-02	1.896507897e-01	-1.424269348e-04	1.782990671e-11
-1.990000000e-02	1.896507838e-01	-1.404986658e-04	2.442034230e-11
-2.000000000e-02	1.896507778e-01	-1.385703971e-04	1.133771574e-11
-2.010000000e-02	1.896507717e-01	-1.366421288e-04	6.397314870e-12
-2.020000000e-02	1.896507656e-01	-1.347138608e-04	1.470994680e-11
-2.030000000e-02	1.896507594e-01	-1.327855932e-04	1.816002174e-11
-2.040000000e-02	1.896507532e-01	-1.308573260e-04	1.256351164e-11
-2.050000000e-02	1.896507469e-01	-1.289290591e-04	1.127626896e-11
-2.060000000e-02	1.896507405e-01	-1.270007926e-04	1.390817480e-11
-2.070000000e-02	1.896507341e-01	-1.250725265e-04	1.410076431e-11
-2.080000000e-02	1.896507277e-01	-1.231442608e-04	9.488358663e-12
-2.090000000e-02	1.896507211e-01	-1.212159954e-04	1.390695091e-11
-2.100000000e-02	1.896507146e-01	-1.192877304e-04	6.661923267e-11
-2.110000000e-02	1.896507079e-01	-1.173594659e-04	1.450863903e-11
-2.120000000e-02	1.896507012e-01	-1.154312017e-04	2.293255405e-11
-2.130000000e-02	1.896506944e-01	-1.135029378e-04	1.190043345e-11
-2.140000000e-02	1.896506876e-01	-1.115746744e-04	8.565022435e-12
-2.150000000e-02	1.896506807e-01	-1.096464114e-04	9.621840554e-12
-2.160000000e-02	1.896506738e-01	-1.077181488e-04	3.708685562e-11
-2.170000000e-02	1.896506668e-01	-1.057898866e-04	1.050677625e-11
-2.180000000e-02	1.896506598e-01	-1.038616248e-04	1.543110464e-11
-2.190000000e-02	1.896506526e-01	-1.019333634e-04	9.831114910e-12
-2.200000000e-02	1.896506455e-01	-1.000051025e-04	1.459785510e-11
-2.210000000e-02	1.896506382e-01	-9.807684190e-05	1.717374427e-11
-2.220000000e-02	1.896506309e-01	-9.614858176e-05	8.031924477e-12
-2.230000000e-02	1.896506236e-01	-9.422032204e-05	9.569432572e-11
-2.240000000e-02	1.896506162e-01	-9.229206276e-05	9.198868678e-12
-2.250000000e-02	1.896506087e-01	-9.036380390e-05	6.850628223e-12
-2.260000000e-02	1.896506012e-01	-8.843554547e-05	2.396370447e-11
-2.270000000e-02	1.896505936e-01	-8.650728749e-05	9.006151494e-11
-2.280000000e-02	1.896505860e-01	-8.457902992e-05	5.138632748e-12
-2.290000000e-02	1.896505783e-01	-8.265077281e-05	9.886232261e-12
-2.300000000e-02	1.896505705e-01	-8.072251614e-05	2.699761867e-11
-2.310000000e-02	1.896505627e-01	-7.879425991e-05	8.029724582e-12
-2.320000000e-02	1.896505548e-01	-7.686600413e-05	9.573180418e-12
-2.330000000e-02	1.896505469e-01	-7.493774881e-05	9.041249182e-12
-2.340000000e-02	1.896505389e-01	-7.300949395e-05	7.055164504e-12
-2.350000000e-02	1.896505308e-01	-7.108123954e-05	1.033023309e-11
-2.360000000e-02	1.896505227e-01	-6.915298559e-05	1.063162958e-11
-2.370000000e-02	1.896505145e-01	-6.722473211e-05	1.852563679e-11
-2.380000000e-02	1.896505063e-01	-6.529647909e-05	7.301922870e-12
-2.390000000e-02	1.896504980e-01	-6.336822654e-05	9.390873210e-12
-2.400000000e-02	1.896504897e-01	-6.143997447e-05	2.421484374e-11
-2.410000000e-02	1.896504813e-01	-5.951172288e-05	7.175673463e-12
-2.420000000e-02	1.896504728e-01	-5.758347176e-05	9.030271329e-12
-2.430000000e-02	1.896504643e-01	-5.565522113e-05	1.981833587e-11
-2.440000000e-02	1.896504557e-01	-5.372697098e-05	7.774745590e-12
-2.450000000e-02	1.896504470e-01	-5.179872131e-05	2.448532757e-11
-2.460000000e-02	1.896504383e-01	-4.987047215e-05	1.380154356e-11
-2.470000000e-02	1.896504296e-01	-4.794222347e-05	6.177758350e-12
-2.480000000e-02	1.896504208e-01	-4.601397529e-05	2.582258279e-11
-2.490000000e-02	1.896504119e-01	-4.408572762e-05	1.961649889e-11
-2.500000000e-02	1.896504029e-01	-4.215748045e-05	3.518659742e-11
-2.510000000e-02	1.896503939e-01	-4.022923378e-05	1.654671912e-11
-2.520000000e-02	1.896503849e-01	-3.830098762e-05	1.450514663e-11
-2.530000000e-02	1.896503758e-01	-3.637274203e-05	3.098296740e-10
-2.540000000e-02	1.896503666e-01	-3.444449684e-05	6.874535386e-12
-2.550000000e-02	1.896503574e-01	-3.251625223e-05	1.790107074e-11
-2.560000000e-02	1.896503481e-01	-3.058800814e-05	1.071463946e-11
-2.570000000e-02	1.896503387e-01	-2.865976456e-05	3.218025163e-11
-2.580000000e-02	1.896503293e-01	-2.673152152e-05	1.024994029e-11
-2.590000000e-02	1.896503199e-01	-2.480327901e-05	1.531218726e-11
-2.600000000e-02	1.896503103e-01	-2.287503704e-05	8.319513934e-12
-2.610000000e-02	1.896503008e-01	-2.094679559e-05	2.161002296e-11
-2.620000000e-02	1.896502911e-01	-1.901855469e-05	8.946134852e-12
-2.630000000e-02	1.896502814e-01	-1.709031433e-05	1.249483300e-11
-2.640000000e-02	1.896502717e-01	-1.516207451e-05	1.098115060e-11
-2.650000000e-02	1.896502618e-01	-1.323383525e-05	1.080111358e-11
-2.660000000e-02	1.896502520e-01	-1.130559653e-05	7.958400051e-12
-2.670000000e-02	1.896502420e-01	-9.377358364e-06	1.592241259e-11
-2.680000000e-02	1.896502320e-01	-7.449120758e-06	4.858915474e-12
-2.690000000e-02	1.896502220e-01	-5.520883710e-06	1.433940675e-11
-2.700000000e-02	1.896502119e-01	-3.592647229e-06	8.080891466e-12
-2.710000000e-02	1.896502017e-01	-1.664411308e-06	1.254751712e-11
-2.720000000e-02	1.896501915e-01	2.638240390e-07	1.111052019e-11
-2.730000000e-02	1.896501812e-01	2.192058815e-06	1.642563649e-11
-2.740000000e-02	1.896501708e-01	4.120293019e-06	1.763143255e-11
-2.750000000e-02	1.896501604e-01	6.048526644e-06	1.291304783e-11
-2.760000000e-02	1.896501500e-01	7.976759689e-06	8.178352099e-12
-2.770000000e-02	1.896501394e-01	9.904992144e-06	5.351379276e-11
-2.780000000e-02	1.896501289e-01	1.183322402e-05	1.211059587e-11
-2.790000000e-02	1.896501182e-01	1.376145530e-05	8.473911416e-12
-2.800000000e-02	1.896501075e-01	1.568968600e-05	1.046311068e-11
-2.810000000e-02	1.896500968e-01	1.761791609e-05	1.557295963e-11
-2.820000000e-02	1.896500860e-01	1.954614559e-05	6.288865466e-12
-2.830000000e-02	1.896500751e-01	2.147437448e-05	8.172547016e-12
-2.840000000e-02	1.896500641e-01	2.340260277e-05	3.308253208e-11
-2.850000000e-02	1.896500531e-01	2.533083046e-05	1.651983827e-11
-2.860000000e-02	1.896500421e-01	2.725905753e-05	1.464420246e-11
-2.870000000e-02	1.896500310e-01	2.918728399e-05	2.420065597e-11
-2.880000000e-02	1.896500198e-01	3.111550983e-05	6.497732017e-12
-2.890000000e-02	1.896500086e-01	3.304373506e-05	1.633869463e-11
-2.900000000e-02	1.896499973e-01	3.497195966e-05	9.253275194e-12
-2.910000000e-02	1.896499860e-01	3.690018363e-05	1.681706279e-11
-2.920000000e-02	1.896499746e-01	3.882840698e-05	1.069437892e-11
-2.930000000e-02	1.896499631e-01	4.075662970e-05	1.365679356e-11
-2.940000000e-02	1.896499516e-01	4.268485178e-05	1.664049041e-11
-2.950000000e-02	1.896499400e-01	4.461307322e-05	1.911336981e-11
-2.960000000e-02	1.896499283e-01	4.654129394e-05	4.982885324e-10
-2.970000000e-02	1.896499166e-01	4.846951418e-05	1.051232809e-11
-2.980000000e-02	1.896499049e-01	5.039773369e-05	1.788583316e-11
-2.990000000e-02	1.896498931e-01	5.232595256e-05	9.553600611e-12
-3.000000000e-02	1.896498812e-01	5.425417077e-05	8.856993601e-12
