# Im(epsi1)     Re(omega/c)      Im(omega/c)      Eq(det).Opt det CON kz, R=0.5 \mum, mu_c=0.3, Re(epsi1)=3.90solve_det_conkz_vs_kz.py
0.000000000e+00	1.896451490e-01	-5.242120729e-04	1.802387714e-11
-1.000000000e-04	1.896451547e-01	-5.222838202e-04	2.125862826e-11
-2.000000000e-04	1.896451604e-01	-5.203555673e-04	1.853735914e-11
-3.000000000e-04	1.896451659e-01	-5.184273141e-04	1.025110543e-11
-4.000000000e-04	1.896451715e-01	-5.164990607e-04	9.503663793e-11
-5.000000000e-04	1.896451769e-01	-5.145708070e-04	1.521535752e-11
-6.000000000e-04	1.896451823e-01	-5.126425532e-04	1.289926404e-11
-7.000000000e-04	1.896451877e-01	-5.107142991e-04	1.094410812e-11
-8.000000000e-04	1.896451929e-01	-5.087860448e-04	9.858205539e-12
-9.000000000e-04	1.896451982e-01	-5.068577903e-04	9.796239295e-11
-1.000000000e-03	1.896452033e-01	-5.049295355e-04	1.520146214e-11
-1.100000000e-03	1.896452084e-01	-5.030012806e-04	2.968020583e-11
-1.200000000e-03	1.896452135e-01	-5.010730255e-04	8.713232510e-12
-1.300000000e-03	1.896452185e-01	-4.991447701e-04	1.281154710e-11
-1.400000000e-03	1.896452234e-01	-4.972165146e-04	1.228242673e-11
-1.500000000e-03	1.896452283e-01	-4.952882588e-04	9.588152250e-12
-1.600000000e-03	1.896452331e-01	-4.933600029e-04	1.198947698e-11
-1.700000000e-03	1.896452379e-01	-4.914317467e-04	1.215092435e-11
-1.800000000e-03	1.896452426e-01	-4.895034904e-04	9.611331401e-12
-1.900000000e-03	1.896452472e-01	-4.875752339e-04	6.452400783e-12
-2.000000000e-03	1.896452518e-01	-4.856469772e-04	4.728609178e-11
-2.100000000e-03	1.896452563e-01	-4.837187203e-04	4.372151313e-11
-2.200000000e-03	1.896452608e-01	-4.817904633e-04	1.994392242e-11
-2.300000000e-03	1.896452652e-01	-4.798622061e-04	8.513437273e-12
-2.400000000e-03	1.896452695e-01	-4.779339487e-04	1.127109325e-11
-2.500000000e-03	1.896452738e-01	-4.760056911e-04	8.502968675e-12
-2.600000000e-03	1.896452780e-01	-4.740774334e-04	1.113492544e-11
-2.700000000e-03	1.896452822e-01	-4.721491755e-04	1.317657847e-11
-2.800000000e-03	1.896452863e-01	-4.702209174e-04	6.717563169e-12
-2.900000000e-03	1.896452904e-01	-4.682926592e-04	2.932912031e-11
-3.000000000e-03	1.896452943e-01	-4.663644009e-04	1.117592694e-11
-3.100000000e-03	1.896452983e-01	-4.644361424e-04	1.536637220e-11
-3.200000000e-03	1.896453022e-01	-4.625078837e-04	1.259445110e-11
-3.300000000e-03	1.896453060e-01	-4.605796249e-04	5.232914166e-12
-3.400000000e-03	1.896453097e-01	-4.586513660e-04	2.050734422e-11
-3.500000000e-03	1.896453134e-01	-4.567231069e-04	2.106684651e-11
-3.600000000e-03	1.896453171e-01	-4.547948477e-04	1.250071825e-11
-3.700000000e-03	1.896453206e-01	-4.528665884e-04	1.083827397e-11
-3.800000000e-03	1.896453242e-01	-4.509383289e-04	7.647281853e-12
-3.900000000e-03	1.896453276e-01	-4.490100693e-04	6.277958155e-12
-4.000000000e-03	1.896453310e-01	-4.470818096e-04	1.098995665e-11
-4.100000000e-03	1.896453344e-01	-4.451535497e-04	1.624543515e-11
-4.200000000e-03	1.896453377e-01	-4.432252898e-04	1.193061523e-10
-4.300000000e-03	1.896453409e-01	-4.412970297e-04	9.670276542e-12
-4.400000000e-03	1.896453441e-01	-4.393687695e-04	1.219651811e-11
-4.500000000e-03	1.896453472e-01	-4.374405092e-04	1.016180513e-11
-4.600000000e-03	1.896453502e-01	-4.355122488e-04	1.439298223e-11
-4.700000000e-03	1.896453532e-01	-4.335839883e-04	1.042870800e-11
-4.800000000e-03	1.896453561e-01	-4.316557277e-04	3.174573648e-11
-4.900000000e-03	1.896453590e-01	-4.297274671e-04	2.502512000e-11
-5.000000000e-03	1.896453618e-01	-4.277992063e-04	6.728457714e-12
-5.100000000e-03	1.896453646e-01	-4.258709454e-04	1.169595681e-11
-5.200000000e-03	1.896453673e-01	-4.239426844e-04	1.111240217e-11
-5.300000000e-03	1.896453699e-01	-4.220144234e-04	7.357629670e-12
-5.400000000e-03	1.896453725e-01	-4.200861622e-04	6.027196600e-12
-5.500000000e-03	1.896453750e-01	-4.181579010e-04	1.895395531e-11
-5.600000000e-03	1.896453775e-01	-4.162296398e-04	9.108119827e-12
-5.700000000e-03	1.896453799e-01	-4.143013784e-04	1.452747712e-11
-5.800000000e-03	1.896453823e-01	-4.123731170e-04	9.519716150e-12
-5.900000000e-03	1.896453845e-01	-4.104448555e-04	8.026405200e-12
-6.000000000e-03	1.896453868e-01	-4.085165939e-04	8.031550452e-12
-6.100000000e-03	1.896453889e-01	-4.065883323e-04	8.929672905e-12
-6.200000000e-03	1.896453911e-01	-4.046600706e-04	1.020261560e-11
-6.300000000e-03	1.896453931e-01	-4.027318089e-04	8.728197629e-12
-6.400000000e-03	1.896453951e-01	-4.008035471e-04	1.232348950e-11
-6.500000000e-03	1.896453970e-01	-3.988752853e-04	8.467765991e-12
-6.600000000e-03	1.896453989e-01	-3.969470234e-04	1.075157739e-11
-6.700000000e-03	1.896454007e-01	-3.950187615e-04	3.915676490e-11
-6.800000000e-03	1.896454025e-01	-3.930904996e-04	1.568890026e-11
-6.900000000e-03	1.896454042e-01	-3.911622376e-04	1.393569234e-11
-7.000000000e-03	1.896454058e-01	-3.892339755e-04	2.294567242e-11
-7.100000000e-03	1.896454074e-01	-3.873057135e-04	1.186160524e-11
-7.200000000e-03	1.896454089e-01	-3.853774514e-04	1.715464686e-11
-7.300000000e-03	1.896454104e-01	-3.834491893e-04	2.412916993e-11
-7.400000000e-03	1.896454118e-01	-3.815209272e-04	3.788259144e-11
-7.500000000e-03	1.896454132e-01	-3.795926650e-04	1.648412564e-11
-7.600000000e-03	1.896454144e-01	-3.776644028e-04	1.337924992e-11
-7.700000000e-03	1.896454157e-01	-3.757361407e-04	8.072872850e-12
-7.800000000e-03	1.896454169e-01	-3.738078785e-04	6.494676987e-12
-7.900000000e-03	1.896454180e-01	-3.718796163e-04	1.326869710e-11
-8.000000000e-03	1.896454190e-01	-3.699513541e-04	8.807515887e-12
-8.100000000e-03	1.896454200e-01	-3.680230919e-04	1.208420267e-11
-8.200000000e-03	1.896454209e-01	-3.660948297e-04	3.232095269e-11
-8.300000000e-03	1.896454218e-01	-3.641665675e-04	1.782292706e-11
-8.400000000e-03	1.896454226e-01	-3.622383053e-04	2.384993014e-11
-8.500000000e-03	1.896454234e-01	-3.603100431e-04	2.309456024e-11
-8.600000000e-03	1.896454241e-01	-3.583817810e-04	1.611039606e-11
-8.700000000e-03	1.896454247e-01	-3.564535188e-04	1.799681083e-11
-8.800000000e-03	1.896454253e-01	-3.545252567e-04	1.643738776e-11
-8.900000000e-03	1.896454259e-01	-3.525969946e-04	5.143438891e-11
-9.000000000e-03	1.896454263e-01	-3.506687326e-04	8.528032534e-12
-9.100000000e-03	1.896454267e-01	-3.487404705e-04	3.488575497e-11
-9.200000000e-03	1.896454271e-01	-3.468122085e-04	1.269522976e-11
-9.300000000e-03	1.896454274e-01	-3.448839465e-04	1.776243262e-11
-9.400000000e-03	1.896454276e-01	-3.429556846e-04	2.181278310e-11
-9.500000000e-03	1.896454278e-01	-3.410274227e-04	1.930085738e-11
-9.600000000e-03	1.896454279e-01	-3.390991608e-04	1.481983195e-11
-9.700000000e-03	1.896454279e-01	-3.371708990e-04	1.246216790e-11
-9.800000000e-03	1.896454279e-01	-3.352426373e-04	1.141762758e-11
-9.900000000e-03	1.896454279e-01	-3.333143756e-04	1.414577453e-11
-1.000000000e-02	1.896454277e-01	-3.313861139e-04	9.624135192e-12
-1.010000000e-02	1.896454276e-01	-3.294578523e-04	5.081502102e-12
-1.020000000e-02	1.896454273e-01	-3.275295908e-04	6.556407190e-12
-1.030000000e-02	1.896454270e-01	-3.256013294e-04	1.428818270e-11
-1.040000000e-02	1.896454267e-01	-3.236730680e-04	3.056200765e-11
-1.050000000e-02	1.896454263e-01	-3.217448066e-04	8.312443838e-12
-1.060000000e-02	1.896454258e-01	-3.198165454e-04	8.816659935e-12
-1.070000000e-02	1.896454253e-01	-3.178882842e-04	2.707839692e-11
-1.080000000e-02	1.896454247e-01	-3.159600231e-04	1.669081012e-11
-1.090000000e-02	1.896454240e-01	-3.140317621e-04	8.342859600e-12
-1.100000000e-02	1.896454233e-01	-3.121035012e-04	2.074369890e-11
-1.110000000e-02	1.896454225e-01	-3.101752404e-04	2.174554109e-11
-1.120000000e-02	1.896454217e-01	-3.082469796e-04	6.370040554e-12
-1.130000000e-02	1.896454208e-01	-3.063187190e-04	9.203376570e-12
-1.140000000e-02	1.896454199e-01	-3.043904584e-04	1.246025252e-11
-1.150000000e-02	1.896454189e-01	-3.024621980e-04	1.026293374e-11
-1.160000000e-02	1.896454178e-01	-3.005339376e-04	3.087389912e-11
-1.170000000e-02	1.896454167e-01	-2.986056774e-04	3.060719636e-11
-1.180000000e-02	1.896454155e-01	-2.966774172e-04	7.873590069e-12
-1.190000000e-02	1.896454143e-01	-2.947491572e-04	8.335811765e-12
-1.200000000e-02	1.896454130e-01	-2.928208973e-04	2.125917404e-11
-1.210000000e-02	1.896454116e-01	-2.908926375e-04	2.836339153e-11
-1.220000000e-02	1.896454102e-01	-2.889643779e-04	2.204911158e-11
-1.230000000e-02	1.896454087e-01	-2.870361183e-04	2.151256946e-11
-1.240000000e-02	1.896454072e-01	-2.851078589e-04	2.658790433e-11
-1.250000000e-02	1.896454056e-01	-2.831795996e-04	1.416992448e-11
-1.260000000e-02	1.896454040e-01	-2.812513405e-04	1.371925027e-11
-1.270000000e-02	1.896454023e-01	-2.793230815e-04	1.363690497e-11
-1.280000000e-02	1.896454005e-01	-2.773948226e-04	9.622997307e-12
-1.290000000e-02	1.896453987e-01	-2.754665639e-04	1.204451671e-11
-1.300000000e-02	1.896453968e-01	-2.735383053e-04	1.389285278e-11
-1.310000000e-02	1.896453948e-01	-2.716100469e-04	1.532309420e-11
-1.320000000e-02	1.896453928e-01	-2.696817886e-04	2.065865288e-11
-1.330000000e-02	1.896453908e-01	-2.677535304e-04	7.395027123e-12
-1.340000000e-02	1.896453886e-01	-2.658252725e-04	4.132768106e-11
-1.350000000e-02	1.896453865e-01	-2.638970147e-04	2.694454382e-11
-1.360000000e-02	1.896453842e-01	-2.619687570e-04	1.688620130e-11
-1.370000000e-02	1.896453819e-01	-2.600404995e-04	8.488553800e-12
-1.380000000e-02	1.896453796e-01	-2.581122422e-04	1.922649967e-11
-1.390000000e-02	1.896453772e-01	-2.561839851e-04	8.537250827e-12
-1.400000000e-02	1.896453747e-01	-2.542557281e-04	1.108958133e-11
-1.410000000e-02	1.896453722e-01	-2.523274713e-04	9.905967576e-12
-1.420000000e-02	1.896453696e-01	-2.503992147e-04	1.974861640e-11
-1.430000000e-02	1.896453669e-01	-2.484709583e-04	1.403609787e-11
-1.440000000e-02	1.896453642e-01	-2.465427020e-04	1.337379519e-11
-1.450000000e-02	1.896453615e-01	-2.446144460e-04	3.889820880e-11
-1.460000000e-02	1.896453586e-01	-2.426861901e-04	6.291491089e-12
-1.470000000e-02	1.896453557e-01	-2.407579345e-04	1.892276446e-11
-1.480000000e-02	1.896453528e-01	-2.388296790e-04	1.926966286e-11
-1.490000000e-02	1.896453498e-01	-2.369014238e-04	1.060440153e-11
-1.500000000e-02	1.896453467e-01	-2.349731687e-04	1.111003884e-11
-1.510000000e-02	1.896453436e-01	-2.330449139e-04	2.075142644e-11
-1.520000000e-02	1.896453404e-01	-2.311166592e-04	9.665520040e-12
-1.530000000e-02	1.896453372e-01	-2.291884048e-04	9.202132487e-12
-1.540000000e-02	1.896453339e-01	-2.272601506e-04	1.004187674e-11
-1.550000000e-02	1.896453306e-01	-2.253318966e-04	1.637101947e-11
-1.560000000e-02	1.896453271e-01	-2.234036429e-04	1.069192833e-11
-1.570000000e-02	1.896453237e-01	-2.214753894e-04	1.445205999e-11
-1.580000000e-02	1.896453201e-01	-2.195471361e-04	7.126854372e-12
-1.590000000e-02	1.896453166e-01	-2.176188830e-04	4.259359307e-11
-1.600000000e-02	1.896453129e-01	-2.156906301e-04	8.579340996e-12
-1.610000000e-02	1.896453092e-01	-2.137623775e-04	3.699323649e-12
-1.620000000e-02	1.896453054e-01	-2.118341252e-04	1.168591379e-11
-1.630000000e-02	1.896453016e-01	-2.099058731e-04	7.495790795e-12
-1.640000000e-02	1.896452977e-01	-2.079776212e-04	1.817536954e-11
-1.650000000e-02	1.896452938e-01	-2.060493696e-04	2.482804042e-11
-1.660000000e-02	1.896452898e-01	-2.041211182e-04	1.631081375e-11
-1.670000000e-02	1.896452857e-01	-2.021928671e-04	1.099821228e-10
-1.680000000e-02	1.896452816e-01	-2.002646163e-04	7.804822231e-12
-1.690000000e-02	1.896452774e-01	-1.983363657e-04	8.916709818e-12
-1.700000000e-02	1.896452732e-01	-1.964081153e-04	1.109254813e-11
-1.710000000e-02	1.896452689e-01	-1.944798653e-04	9.465998830e-12
-1.720000000e-02	1.896452645e-01	-1.925516155e-04	2.685669227e-11
-1.730000000e-02	1.896452601e-01	-1.906233660e-04	2.293248721e-11
-1.740000000e-02	1.896452557e-01	-1.886951168e-04	2.598024916e-11
-1.750000000e-02	1.896452511e-01	-1.867668678e-04	1.549703373e-11
-1.760000000e-02	1.896452466e-01	-1.848386191e-04	1.635056640e-11
-1.770000000e-02	1.896452419e-01	-1.829103707e-04	8.817822369e-12
-1.780000000e-02	1.896452372e-01	-1.809821226e-04	1.390952607e-11
-1.790000000e-02	1.896452324e-01	-1.790538748e-04	2.817781093e-11
-1.800000000e-02	1.896452276e-01	-1.771256273e-04	9.687135217e-12
-1.810000000e-02	1.896452227e-01	-1.751973801e-04	1.210826791e-11
-1.820000000e-02	1.896452178e-01	-1.732691332e-04	6.780191746e-12
-1.830000000e-02	1.896452128e-01	-1.713408866e-04	2.459413668e-11
-1.840000000e-02	1.896452077e-01	-1.694126403e-04	1.211312480e-11
-1.850000000e-02	1.896452026e-01	-1.674843943e-04	6.415712168e-12
-1.860000000e-02	1.896451974e-01	-1.655561486e-04	1.627723678e-11
-1.870000000e-02	1.896451922e-01	-1.636279032e-04	1.473559098e-11
-1.880000000e-02	1.896451869e-01	-1.616996581e-04	1.192312114e-11
-1.890000000e-02	1.896451816e-01	-1.597714134e-04	4.446881431e-12
-1.900000000e-02	1.896451761e-01	-1.578431690e-04	1.033177606e-11
-1.910000000e-02	1.896451707e-01	-1.559149249e-04	1.170645369e-11
-1.920000000e-02	1.896451652e-01	-1.539866812e-04	1.167224383e-11
-1.930000000e-02	1.896451596e-01	-1.520584378e-04	1.205517757e-11
-1.940000000e-02	1.896451539e-01	-1.501301947e-04	1.051013201e-11
-1.950000000e-02	1.896451482e-01	-1.482019520e-04	2.203000550e-11
-1.960000000e-02	1.896451425e-01	-1.462737096e-04	8.595694789e-12
-1.970000000e-02	1.896451366e-01	-1.443454675e-04	3.459885797e-11
-1.980000000e-02	1.896451307e-01	-1.424172258e-04	9.354327889e-12
-1.990000000e-02	1.896451248e-01	-1.404889844e-04	3.131560199e-11
-2.000000000e-02	1.896451188e-01	-1.385607435e-04	1.008794176e-11
-2.010000000e-02	1.896451128e-01	-1.366325028e-04	1.238075244e-11
-2.020000000e-02	1.896451066e-01	-1.347042625e-04	1.854067838e-11
-2.030000000e-02	1.896451005e-01	-1.327760226e-04	1.517238703e-11
-2.040000000e-02	1.896450942e-01	-1.308477831e-04	1.405677985e-11
-2.050000000e-02	1.896450879e-01	-1.289195439e-04	2.232317665e-11
-2.060000000e-02	1.896450816e-01	-1.269913051e-04	2.468604042e-11
-2.070000000e-02	1.896450752e-01	-1.250630666e-04	3.773993465e-11
-2.080000000e-02	1.896450687e-01	-1.231348286e-04	9.863095807e-12
-2.090000000e-02	1.896450622e-01	-1.212065909e-04	2.518069659e-11
-2.100000000e-02	1.896450556e-01	-1.192783536e-04	2.690792771e-11
-2.110000000e-02	1.896450490e-01	-1.173501167e-04	1.083108716e-11
-2.120000000e-02	1.896450422e-01	-1.154218802e-04	2.229660747e-11
-2.130000000e-02	1.896450355e-01	-1.134936440e-04	6.499963449e-12
-2.140000000e-02	1.896450287e-01	-1.115654083e-04	1.348291845e-11
-2.150000000e-02	1.896450218e-01	-1.096371730e-04	8.604093212e-12
-2.160000000e-02	1.896450148e-01	-1.077089381e-04	3.628760636e-11
-2.170000000e-02	1.896450078e-01	-1.057807035e-04	1.962048272e-11
-2.180000000e-02	1.896450008e-01	-1.038524694e-04	7.613647541e-12
-2.190000000e-02	1.896449937e-01	-1.019242357e-04	1.029931324e-11
-2.200000000e-02	1.896449865e-01	-9.999600243e-05	1.575260883e-11
-2.210000000e-02	1.896449793e-01	-9.806776955e-05	1.034527397e-11
-2.220000000e-02	1.896449720e-01	-9.613953710e-05	6.743420334e-12
-2.230000000e-02	1.896449646e-01	-9.421130509e-05	7.448328926e-11
-2.240000000e-02	1.896449572e-01	-9.228307346e-05	1.053347499e-11
-2.250000000e-02	1.896449498e-01	-9.035484228e-05	5.288050203e-11
-2.260000000e-02	1.896449422e-01	-8.842661154e-05	4.352838023e-12
-2.270000000e-02	1.896449346e-01	-8.649838123e-05	8.878313846e-12
-2.280000000e-02	1.896449270e-01	-8.457015136e-05	9.494613180e-12
-2.290000000e-02	1.896449193e-01	-8.264192192e-05	1.915289245e-11
-2.300000000e-02	1.896449115e-01	-8.071369294e-05	1.207559889e-11
-2.310000000e-02	1.896449037e-01	-7.878546439e-05	1.465025375e-11
-2.320000000e-02	1.896448958e-01	-7.685723631e-05	1.330990363e-11
-2.330000000e-02	1.896448879e-01	-7.492900866e-05	1.578094943e-11
-2.340000000e-02	1.896448799e-01	-7.300078148e-05	9.919743196e-12
-2.350000000e-02	1.896448718e-01	-7.107255476e-05	1.398179923e-11
-2.360000000e-02	1.896448637e-01	-6.914432849e-05	1.382605437e-11
-2.370000000e-02	1.896448556e-01	-6.721610269e-05	8.055665399e-12
-2.380000000e-02	1.896448473e-01	-6.528787735e-05	3.473896697e-11
-2.390000000e-02	1.896448390e-01	-6.335965248e-05	8.961087073e-11
-2.400000000e-02	1.896448307e-01	-6.143142811e-05	1.035493972e-11
-2.410000000e-02	1.896448223e-01	-5.950320419e-05	7.825888398e-12
-2.420000000e-02	1.896448138e-01	-5.757498076e-05	1.743969478e-11
-2.430000000e-02	1.896448053e-01	-5.564675781e-05	1.379345170e-11
-2.440000000e-02	1.896447967e-01	-5.371853534e-05	1.389808209e-11
-2.450000000e-02	1.896447881e-01	-5.179031336e-05	1.166995614e-11
-2.460000000e-02	1.896447794e-01	-4.986209189e-05	5.782631726e-11
-2.470000000e-02	1.896447706e-01	-4.793387089e-05	1.835479613e-11
-2.480000000e-02	1.896447618e-01	-4.600565039e-05	1.415343241e-11
-2.490000000e-02	1.896447529e-01	-4.407743040e-05	1.501386551e-11
-2.500000000e-02	1.896447440e-01	-4.214921091e-05	2.412971668e-11
-2.510000000e-02	1.896447350e-01	-4.022099193e-05	5.618245697e-11
-2.520000000e-02	1.896447259e-01	-3.829277345e-05	8.426674271e-12
-2.530000000e-02	1.896447168e-01	-3.636455549e-05	1.673971455e-11
-2.540000000e-02	1.896447076e-01	-3.443633803e-05	8.515481566e-12
-2.550000000e-02	1.896446984e-01	-3.250812111e-05	3.421355941e-11
-2.560000000e-02	1.896446891e-01	-3.057990470e-05	1.071851428e-11
-2.570000000e-02	1.896446798e-01	-2.865168881e-05	8.892922095e-12
-2.580000000e-02	1.896446704e-01	-2.672347345e-05	2.089645444e-11
-2.590000000e-02	1.896446609e-01	-2.479525863e-05	1.629102402e-10
-2.600000000e-02	1.896446514e-01	-2.286704433e-05	1.390495458e-11
-2.610000000e-02	1.896446418e-01	-2.093883057e-05	6.729799155e-12
-2.620000000e-02	1.896446321e-01	-1.901061735e-05	9.463490524e-12
-2.630000000e-02	1.896446224e-01	-1.708240467e-05	1.320801150e-11
-2.640000000e-02	1.896446127e-01	-1.515419254e-05	2.177219975e-11
-2.650000000e-02	1.896446029e-01	-1.322598096e-05	1.243434116e-11
-2.660000000e-02	1.896445930e-01	-1.129776993e-05	4.858839362e-12
-2.670000000e-02	1.896445831e-01	-9.369559444e-06	9.331558541e-12
-2.680000000e-02	1.896445731e-01	-7.441349522e-06	2.271155013e-11
-2.690000000e-02	1.896445630e-01	-5.513140159e-06	8.898060826e-12
-2.700000000e-02	1.896445529e-01	-3.584931358e-06	5.766995373e-12
-2.710000000e-02	1.896445427e-01	-1.656723122e-06	8.303935273e-12
-2.720000000e-02	1.896445325e-01	2.714845456e-07	1.773321033e-11
-2.730000000e-02	1.896445222e-01	2.199691633e-06	1.384647357e-11
-2.740000000e-02	1.896445119e-01	4.127898155e-06	6.355532041e-12
-2.750000000e-02	1.896445015e-01	6.056104095e-06	1.307537490e-11
-2.760000000e-02	1.896444910e-01	7.984309455e-06	5.214194328e-12
-2.770000000e-02	1.896444805e-01	9.912514231e-06	8.480381234e-12
-2.780000000e-02	1.896444699e-01	1.184071842e-05	8.469850843e-12
-2.790000000e-02	1.896444592e-01	1.376892202e-05	1.528086611e-10
-2.800000000e-02	1.896444485e-01	1.569712504e-05	2.771665024e-11
-2.810000000e-02	1.896444378e-01	1.762532744e-05	1.106005495e-11
-2.820000000e-02	1.896444270e-01	1.955352926e-05	9.607096756e-12
-2.830000000e-02	1.896444161e-01	2.148173047e-05	4.744230452e-11
-2.840000000e-02	1.896444052e-01	2.340993108e-05	1.168776765e-11
-2.850000000e-02	1.896443942e-01	2.533813107e-05	7.393377424e-12
-2.860000000e-02	1.896443831e-01	2.726633047e-05	2.627735928e-11
-2.870000000e-02	1.896443720e-01	2.919452923e-05	2.278715931e-11
-2.880000000e-02	1.896443608e-01	3.112272740e-05	1.399259450e-11
-2.890000000e-02	1.896443496e-01	3.305092494e-05	7.859973916e-12
-2.900000000e-02	1.896443383e-01	3.497912185e-05	1.414432599e-11
-2.910000000e-02	1.896443270e-01	3.690731815e-05	1.339057556e-11
-2.920000000e-02	1.896443156e-01	3.883551380e-05	1.708760638e-11
-2.930000000e-02	1.896443041e-01	4.076370884e-05	1.422719746e-11
-2.940000000e-02	1.896442926e-01	4.269190321e-05	1.369829373e-10
-2.950000000e-02	1.896442810e-01	4.462009700e-05	9.249341700e-12
-2.960000000e-02	1.896442694e-01	4.654829012e-05	1.070761637e-11
-2.970000000e-02	1.896442577e-01	4.847648259e-05	1.402391658e-11
-2.980000000e-02	1.896442459e-01	5.040467442e-05	1.079279301e-11
-2.990000000e-02	1.896442341e-01	5.233286560e-05	1.307695371e-11
-3.000000000e-02	1.896442222e-01	5.426105613e-05	1.536334438e-11
