# Im(epsi1)     Re(omega/c)      Im(omega/c)      Eq(det).Opt det CON kz, R=0.5 \mum, mu_c=0.3, Re(epsi1)=3.90solve_det_conkz_vs_kz.py
0.000000000e+00	1.896518150e-01	-5.242298069e-04	1.477433667e-11
-1.000000000e-04	1.896518207e-01	-5.223015216e-04	1.963922530e-11
-2.000000000e-04	1.896518264e-01	-5.203732361e-04	8.113898105e-12
-3.000000000e-04	1.896518319e-01	-5.184449503e-04	1.084422325e-11
-4.000000000e-04	1.896518375e-01	-5.165166642e-04	7.487692476e-12
-5.000000000e-04	1.896518429e-01	-5.145883780e-04	1.093970528e-11
-6.000000000e-04	1.896518483e-01	-5.126600915e-04	5.367723810e-12
-7.000000000e-04	1.896518537e-01	-5.107318048e-04	2.700647696e-11
-8.000000000e-04	1.896518589e-01	-5.088035179e-04	1.986506871e-11
-9.000000000e-04	1.896518642e-01	-5.068752308e-04	1.198706731e-11
-1.000000000e-03	1.896518693e-01	-5.049469435e-04	1.584561124e-10
-1.100000000e-03	1.896518745e-01	-5.030186559e-04	1.472283061e-11
-1.200000000e-03	1.896518795e-01	-5.010903681e-04	8.001459903e-12
-1.300000000e-03	1.896518845e-01	-4.991620802e-04	2.622508328e-11
-1.400000000e-03	1.896518894e-01	-4.972337920e-04	5.934441042e-12
-1.500000000e-03	1.896518943e-01	-4.953055037e-04	1.591935250e-11
-1.600000000e-03	1.896518991e-01	-4.933772151e-04	1.290478063e-11
-1.700000000e-03	1.896519039e-01	-4.914489264e-04	1.598211287e-11
-1.800000000e-03	1.896519086e-01	-4.895206374e-04	1.280636162e-11
-1.900000000e-03	1.896519132e-01	-4.875923483e-04	1.144622111e-11
-2.000000000e-03	1.896519178e-01	-4.856640590e-04	2.275552663e-11
-2.100000000e-03	1.896519223e-01	-4.837357695e-04	1.583046698e-11
-2.200000000e-03	1.896519268e-01	-4.818074799e-04	1.603986388e-11
-2.300000000e-03	1.896519312e-01	-4.798791900e-04	2.287058456e-11
-2.400000000e-03	1.896519355e-01	-4.779509000e-04	4.917645261e-11
-2.500000000e-03	1.896519398e-01	-4.760226098e-04	1.283441610e-11
-2.600000000e-03	1.896519440e-01	-4.740943195e-04	4.708080788e-12
-2.700000000e-03	1.896519482e-01	-4.721660290e-04	7.798758406e-12
-2.800000000e-03	1.896519523e-01	-4.702377383e-04	7.795167779e-12
-2.900000000e-03	1.896519564e-01	-4.683094475e-04	1.779352128e-11
-3.000000000e-03	1.896519604e-01	-4.663811566e-04	1.042570813e-11
-3.100000000e-03	1.896519643e-01	-4.644528655e-04	2.288208066e-11
-3.200000000e-03	1.896519682e-01	-4.625245742e-04	2.485556917e-11
-3.300000000e-03	1.896519720e-01	-4.605962828e-04	6.928484094e-12
-3.400000000e-03	1.896519757e-01	-4.586679912e-04	1.164891460e-11
-3.500000000e-03	1.896519794e-01	-4.567396995e-04	1.201898834e-11
-3.600000000e-03	1.896519831e-01	-4.548114077e-04	8.645948634e-12
-3.700000000e-03	1.896519867e-01	-4.528831158e-04	1.560573662e-11
-3.800000000e-03	1.896519902e-01	-4.509548237e-04	1.411853801e-11
-3.900000000e-03	1.896519936e-01	-4.490265315e-04	9.548126313e-12
-4.000000000e-03	1.896519970e-01	-4.470982392e-04	6.161727440e-12
-4.100000000e-03	1.896520004e-01	-4.451699467e-04	1.212921074e-11
-4.200000000e-03	1.896520037e-01	-4.432416541e-04	6.568379341e-11
-4.300000000e-03	1.896520069e-01	-4.413133614e-04	1.682886848e-11
-4.400000000e-03	1.896520101e-01	-4.393850687e-04	7.575235303e-12
-4.500000000e-03	1.896520132e-01	-4.374567758e-04	7.672906993e-12
-4.600000000e-03	1.896520162e-01	-4.355284827e-04	1.456199877e-11
-4.700000000e-03	1.896520192e-01	-4.336001896e-04	1.484816785e-11
-4.800000000e-03	1.896520222e-01	-4.316718964e-04	2.370011041e-11
-4.900000000e-03	1.896520250e-01	-4.297436031e-04	1.540985065e-11
-5.000000000e-03	1.896520279e-01	-4.278153097e-04	1.733917526e-11
-5.100000000e-03	1.896520306e-01	-4.258870162e-04	1.055102550e-11
-5.200000000e-03	1.896520333e-01	-4.239587227e-04	1.317715158e-11
-5.300000000e-03	1.896520360e-01	-4.220304290e-04	5.117784256e-12
-5.400000000e-03	1.896520385e-01	-4.201021353e-04	1.075066416e-11
-5.500000000e-03	1.896520411e-01	-4.181738414e-04	1.857476163e-11
-5.600000000e-03	1.896520435e-01	-4.162455475e-04	5.740508618e-12
-5.700000000e-03	1.896520459e-01	-4.143172536e-04	2.568585890e-11
-5.800000000e-03	1.896520483e-01	-4.123889595e-04	9.422435195e-12
-5.900000000e-03	1.896520506e-01	-4.104606654e-04	4.305947534e-11
-6.000000000e-03	1.896520528e-01	-4.085323713e-04	2.078291554e-11
-6.100000000e-03	1.896520550e-01	-4.066040770e-04	2.106234750e-11
-6.200000000e-03	1.896520571e-01	-4.046757828e-04	6.943255441e-12
-6.300000000e-03	1.896520591e-01	-4.027474884e-04	1.327107264e-11
-6.400000000e-03	1.896520611e-01	-4.008191940e-04	4.700835015e-12
-6.500000000e-03	1.896520631e-01	-3.988908996e-04	2.394071841e-11
-6.600000000e-03	1.896520649e-01	-3.969626051e-04	1.597285172e-11
-6.700000000e-03	1.896520668e-01	-3.950343106e-04	4.569339705e-11
-6.800000000e-03	1.896520685e-01	-3.931060160e-04	7.837527324e-12
-6.900000000e-03	1.896520702e-01	-3.911777214e-04	2.466864582e-11
-7.000000000e-03	1.896520719e-01	-3.892494268e-04	1.108229463e-11
-7.100000000e-03	1.896520734e-01	-3.873211321e-04	6.114603484e-11
-7.200000000e-03	1.896520750e-01	-3.853928374e-04	6.898429776e-12
-7.300000000e-03	1.896520764e-01	-3.834645427e-04	1.015126263e-11
-7.400000000e-03	1.896520778e-01	-3.815362479e-04	1.899902645e-11
-7.500000000e-03	1.896520792e-01	-3.796079532e-04	1.427631212e-11
-7.600000000e-03	1.896520805e-01	-3.776796584e-04	3.343487406e-11
-7.700000000e-03	1.896520817e-01	-3.757513636e-04	1.533654592e-11
-7.800000000e-03	1.896520829e-01	-3.738230688e-04	8.232754758e-12
-7.900000000e-03	1.896520840e-01	-3.718947740e-04	7.110381984e-12
-8.000000000e-03	1.896520850e-01	-3.699664792e-04	4.513975407e-11
-8.100000000e-03	1.896520860e-01	-3.680381844e-04	2.958722923e-11
-8.200000000e-03	1.896520870e-01	-3.661098896e-04	2.964591951e-11
-8.300000000e-03	1.896520878e-01	-3.641815948e-04	1.046543572e-11
-8.400000000e-03	1.896520887e-01	-3.622533000e-04	1.009058734e-11
-8.500000000e-03	1.896520894e-01	-3.603250052e-04	1.314749239e-11
-8.600000000e-03	1.896520901e-01	-3.583967104e-04	1.196016147e-11
-8.700000000e-03	1.896520908e-01	-3.564684157e-04	4.769383353e-11
-8.800000000e-03	1.896520914e-01	-3.545401210e-04	1.243783774e-11
-8.900000000e-03	1.896520919e-01	-3.526118262e-04	5.048272275e-12
-9.000000000e-03	1.896520923e-01	-3.506835316e-04	6.776577674e-12
-9.100000000e-03	1.896520928e-01	-3.487552369e-04	7.819964643e-12
-9.200000000e-03	1.896520931e-01	-3.468269423e-04	1.576986357e-11
-9.300000000e-03	1.896520934e-01	-3.448986477e-04	1.057588404e-11
-9.400000000e-03	1.896520936e-01	-3.429703531e-04	8.149404998e-12
-9.500000000e-03	1.896520938e-01	-3.410420586e-04	5.545437925e-11
-9.600000000e-03	1.896520939e-01	-3.391137642e-04	1.131568602e-11
-9.700000000e-03	1.896520940e-01	-3.371854698e-04	2.838532127e-11
-9.800000000e-03	1.896520940e-01	-3.352571754e-04	1.250093226e-11
-9.900000000e-03	1.896520939e-01	-3.333288811e-04	1.615819001e-11
-1.000000000e-02	1.896520938e-01	-3.314005868e-04	8.136965521e-12
-1.010000000e-02	1.896520936e-01	-3.294722926e-04	3.167991732e-11
-1.020000000e-02	1.896520934e-01	-3.275439985e-04	1.072742874e-11
-1.030000000e-02	1.896520931e-01	-3.256157044e-04	2.032099698e-11
-1.040000000e-02	1.896520927e-01	-3.236874104e-04	2.112636634e-11
-1.050000000e-02	1.896520923e-01	-3.217591165e-04	1.143741451e-11
-1.060000000e-02	1.896520918e-01	-3.198308226e-04	1.215548025e-11
-1.070000000e-02	1.896520913e-01	-3.179025288e-04	3.409600243e-11
-1.080000000e-02	1.896520907e-01	-3.159742351e-04	2.243155977e-11
-1.090000000e-02	1.896520900e-01	-3.140459415e-04	1.771129049e-11
-1.100000000e-02	1.896520893e-01	-3.121176480e-04	1.400990384e-11
-1.110000000e-02	1.896520886e-01	-3.101893545e-04	1.481560579e-11
-1.120000000e-02	1.896520877e-01	-3.082610611e-04	8.316484929e-12
-1.130000000e-02	1.896520869e-01	-3.063327679e-04	1.667594815e-11
-1.140000000e-02	1.896520859e-01	-3.044044747e-04	9.874181233e-12
-1.150000000e-02	1.896520849e-01	-3.024761817e-04	1.402598178e-11
-1.160000000e-02	1.896520838e-01	-3.005478887e-04	8.966994165e-12
-1.170000000e-02	1.896520827e-01	-2.986195959e-04	1.669818741e-11
-1.180000000e-02	1.896520815e-01	-2.966913031e-04	1.511297365e-11
-1.190000000e-02	1.896520803e-01	-2.947630105e-04	3.931970402e-11
-1.200000000e-02	1.896520790e-01	-2.928347180e-04	1.351638806e-11
-1.210000000e-02	1.896520777e-01	-2.909064256e-04	3.647078276e-11
-1.220000000e-02	1.896520762e-01	-2.889781333e-04	1.293983549e-11
-1.230000000e-02	1.896520748e-01	-2.870498411e-04	1.245047650e-11
-1.240000000e-02	1.896520732e-01	-2.851215491e-04	5.504908001e-12
-1.250000000e-02	1.896520716e-01	-2.831932572e-04	1.273343200e-11
-1.260000000e-02	1.896520700e-01	-2.812649655e-04	2.752053273e-11
-1.270000000e-02	1.896520683e-01	-2.793366738e-04	1.118978071e-11
-1.280000000e-02	1.896520665e-01	-2.774083824e-04	3.892237632e-11
-1.290000000e-02	1.896520647e-01	-2.754800910e-04	1.619740538e-11
-1.300000000e-02	1.896520628e-01	-2.735517998e-04	1.976882054e-11
-1.310000000e-02	1.896520609e-01	-2.716235088e-04	5.823623890e-12
-1.320000000e-02	1.896520589e-01	-2.696952179e-04	7.829394632e-12
-1.330000000e-02	1.896520568e-01	-2.677669271e-04	8.186725464e-12
-1.340000000e-02	1.896520547e-01	-2.658386365e-04	4.291397980e-11
-1.350000000e-02	1.896520525e-01	-2.639103461e-04	1.255098421e-11
-1.360000000e-02	1.896520503e-01	-2.619820559e-04	1.182915417e-11
-1.370000000e-02	1.896520480e-01	-2.600537658e-04	2.573856792e-11
-1.380000000e-02	1.896520456e-01	-2.581254758e-04	1.687226062e-11
-1.390000000e-02	1.896520432e-01	-2.561971861e-04	8.165258605e-12
-1.400000000e-02	1.896520407e-01	-2.542688965e-04	1.382527542e-11
-1.410000000e-02	1.896520382e-01	-2.523406071e-04	9.322777602e-12
-1.420000000e-02	1.896520356e-01	-2.504123179e-04	8.602666866e-12
-1.430000000e-02	1.896520330e-01	-2.484840288e-04	1.022677853e-11
-1.440000000e-02	1.896520303e-01	-2.465557400e-04	3.367131115e-11
-1.450000000e-02	1.896520275e-01	-2.446274513e-04	1.034847379e-11
-1.460000000e-02	1.896520247e-01	-2.426991629e-04	1.410070384e-11
-1.470000000e-02	1.896520218e-01	-2.407708746e-04	4.813333906e-12
-1.480000000e-02	1.896520188e-01	-2.388425865e-04	1.622366014e-11
-1.490000000e-02	1.896520158e-01	-2.369142987e-04	1.346136584e-11
-1.500000000e-02	1.896520128e-01	-2.349860110e-04	8.894324353e-12
-1.510000000e-02	1.896520097e-01	-2.330577235e-04	1.257433865e-11
-1.520000000e-02	1.896520065e-01	-2.311294363e-04	2.447483899e-11
-1.530000000e-02	1.896520032e-01	-2.292011493e-04	9.866825959e-12
-1.540000000e-02	1.896520000e-01	-2.272728625e-04	6.852164571e-12
-1.550000000e-02	1.896519966e-01	-2.253445759e-04	1.040115140e-11
-1.560000000e-02	1.896519932e-01	-2.234162895e-04	9.060484250e-12
-1.570000000e-02	1.896519897e-01	-2.214880033e-04	1.352721139e-11
-1.580000000e-02	1.896519862e-01	-2.195597174e-04	1.184107992e-11
-1.590000000e-02	1.896519826e-01	-2.176314317e-04	3.285824870e-11
-1.600000000e-02	1.896519790e-01	-2.157031463e-04	1.125829319e-11
-1.610000000e-02	1.896519752e-01	-2.137748611e-04	9.412358486e-11
-1.620000000e-02	1.896519715e-01	-2.118465761e-04	9.171193760e-12
-1.630000000e-02	1.896519677e-01	-2.099182914e-04	3.362474717e-11
-1.640000000e-02	1.896519638e-01	-2.079900069e-04	1.166750408e-11
-1.650000000e-02	1.896519598e-01	-2.060617227e-04	1.566775613e-11
-1.660000000e-02	1.896519558e-01	-2.041334387e-04	5.042461639e-11
-1.670000000e-02	1.896519518e-01	-2.022051550e-04	6.397665224e-11
-1.680000000e-02	1.896519477e-01	-2.002768715e-04	1.319615960e-11
-1.690000000e-02	1.896519435e-01	-1.983485883e-04	1.683787036e-11
-1.700000000e-02	1.896519392e-01	-1.964203054e-04	9.446820973e-11
-1.710000000e-02	1.896519350e-01	-1.944920227e-04	1.490872997e-11
-1.720000000e-02	1.896519306e-01	-1.925637403e-04	6.026563125e-12
-1.730000000e-02	1.896519262e-01	-1.906354582e-04	1.444106596e-11
-1.740000000e-02	1.896519217e-01	-1.887071763e-04	1.299372142e-11
-1.750000000e-02	1.896519172e-01	-1.867788948e-04	9.603932619e-12
-1.760000000e-02	1.896519126e-01	-1.848506135e-04	1.381593921e-11
-1.770000000e-02	1.896519080e-01	-1.829223325e-04	2.876491032e-11
-1.780000000e-02	1.896519032e-01	-1.809940518e-04	1.810960546e-11
-1.790000000e-02	1.896518985e-01	-1.790657713e-04	1.531412571e-11
-1.800000000e-02	1.896518937e-01	-1.771374912e-04	8.674899959e-11
-1.810000000e-02	1.896518888e-01	-1.752092114e-04	1.285444903e-11
-1.820000000e-02	1.896518838e-01	-1.732809318e-04	9.551386122e-12
-1.830000000e-02	1.896518788e-01	-1.713526526e-04	1.461440545e-11
-1.840000000e-02	1.896518738e-01	-1.694243737e-04	1.286090766e-10
-1.850000000e-02	1.896518687e-01	-1.674960951e-04	2.986511858e-11
-1.860000000e-02	1.896518635e-01	-1.655678168e-04	6.077321105e-12
-1.870000000e-02	1.896518583e-01	-1.636395388e-04	2.714057819e-11
-1.880000000e-02	1.896518530e-01	-1.617112611e-04	2.739486226e-11
-1.890000000e-02	1.896518476e-01	-1.597829838e-04	2.309647008e-11
-1.900000000e-02	1.896518422e-01	-1.578547068e-04	1.186994408e-11
-1.910000000e-02	1.896518367e-01	-1.559264301e-04	7.832513523e-12
-1.920000000e-02	1.896518312e-01	-1.539981537e-04	5.843288826e-12
-1.930000000e-02	1.896518256e-01	-1.520698777e-04	1.932084051e-11
-1.940000000e-02	1.896518200e-01	-1.501416020e-04	1.872556705e-11
-1.950000000e-02	1.896518143e-01	-1.482133267e-04	3.826259005e-11
-1.960000000e-02	1.896518085e-01	-1.462850516e-04	1.858552123e-11
-1.970000000e-02	1.896518027e-01	-1.443567770e-04	1.411840473e-11
-1.980000000e-02	1.896517968e-01	-1.424285027e-04	5.908010300e-12
-1.990000000e-02	1.896517909e-01	-1.405002287e-04	6.935958286e-12
-2.000000000e-02	1.896517849e-01	-1.385719551e-04	2.549488078e-11
-2.010000000e-02	1.896517788e-01	-1.366436818e-04	1.140999314e-11
-2.020000000e-02	1.896517727e-01	-1.347154089e-04	5.717897125e-12
-2.030000000e-02	1.896517665e-01	-1.327871364e-04	1.327231992e-11
-2.040000000e-02	1.896517603e-01	-1.308588642e-04	8.315088266e-12
-2.050000000e-02	1.896517540e-01	-1.289305924e-04	8.802753728e-12
-2.060000000e-02	1.896517476e-01	-1.270023210e-04	1.267779272e-11
-2.070000000e-02	1.896517412e-01	-1.250740500e-04	2.359369825e-11
-2.080000000e-02	1.896517348e-01	-1.231457793e-04	1.047704723e-11
-2.090000000e-02	1.896517282e-01	-1.212175090e-04	1.916062181e-11
-2.100000000e-02	1.896517217e-01	-1.192892391e-04	9.231569480e-12
-2.110000000e-02	1.896517150e-01	-1.173609696e-04	1.443476788e-11
-2.120000000e-02	1.896517083e-01	-1.154327004e-04	7.648530927e-12
-2.130000000e-02	1.896517015e-01	-1.135044317e-04	2.538706023e-11
-2.140000000e-02	1.896516947e-01	-1.115761634e-04	2.023119729e-11
-2.150000000e-02	1.896516878e-01	-1.096478954e-04	1.635292214e-11
-2.160000000e-02	1.896516809e-01	-1.077196279e-04	1.293852544e-11
-2.170000000e-02	1.896516739e-01	-1.057913607e-04	1.129414636e-11
-2.180000000e-02	1.896516669e-01	-1.038630940e-04	1.454145776e-11
-2.190000000e-02	1.896516597e-01	-1.019348277e-04	1.097589513e-11
-2.200000000e-02	1.896516526e-01	-1.000065618e-04	1.040548956e-11
-2.210000000e-02	1.896516453e-01	-9.807829631e-05	1.017938152e-11
-2.220000000e-02	1.896516380e-01	-9.615003124e-05	9.241483984e-12
-2.230000000e-02	1.896516307e-01	-9.422176659e-05	8.591778050e-12
-2.240000000e-02	1.896516233e-01	-9.229350238e-05	1.090591022e-11
-2.250000000e-02	1.896516158e-01	-9.036523859e-05	9.188284160e-12
-2.260000000e-02	1.896516083e-01	-8.843697523e-05	1.088091545e-11
-2.270000000e-02	1.896516007e-01	-8.650871230e-05	1.125058341e-11
-2.280000000e-02	1.896515931e-01	-8.458044982e-05	9.912145221e-12
-2.290000000e-02	1.896515854e-01	-8.265218777e-05	1.011518142e-11
-2.300000000e-02	1.896515776e-01	-8.072392617e-05	9.224293642e-12
-2.310000000e-02	1.896515698e-01	-7.879566501e-05	1.236923167e-11
-2.320000000e-02	1.896515619e-01	-7.686740430e-05	2.591994703e-11
-2.330000000e-02	1.896515540e-01	-7.493914405e-05	1.852541669e-11
-2.340000000e-02	1.896515460e-01	-7.301088425e-05	1.070812531e-11
-2.350000000e-02	1.896515379e-01	-7.108262491e-05	1.242376501e-11
-2.360000000e-02	1.896515298e-01	-6.915436603e-05	6.775190720e-12
-2.370000000e-02	1.896515216e-01	-6.722610762e-05	1.062616727e-11
-2.380000000e-02	1.896515134e-01	-6.529784967e-05	1.034796028e-11
-2.390000000e-02	1.896515051e-01	-6.336959220e-05	5.173559431e-12
-2.400000000e-02	1.896514968e-01	-6.144133519e-05	3.696333930e-11
-2.410000000e-02	1.896514884e-01	-5.951307867e-05	1.140928726e-11
-2.420000000e-02	1.896514799e-01	-5.758482262e-05	7.711335587e-12
-2.430000000e-02	1.896514714e-01	-5.565656705e-05	1.139481592e-11
-2.440000000e-02	1.896514628e-01	-5.372831197e-05	7.037589849e-12
-2.450000000e-02	1.896514541e-01	-5.180005738e-05	1.436741834e-11
-2.460000000e-02	1.896514454e-01	-4.987180328e-05	2.276522427e-11
-2.470000000e-02	1.896514367e-01	-4.794354968e-05	1.453877889e-11
-2.480000000e-02	1.896514279e-01	-4.601529657e-05	2.038293143e-11
-2.490000000e-02	1.896514190e-01	-4.408704396e-05	8.526318788e-12
-2.500000000e-02	1.896514100e-01	-4.215879186e-05	9.385248312e-12
-2.510000000e-02	1.896514010e-01	-4.023054026e-05	2.051475811e-11
-2.520000000e-02	1.896513920e-01	-3.830228917e-05	1.359507812e-11
-2.530000000e-02	1.896513829e-01	-3.637403859e-05	6.463904122e-12
-2.540000000e-02	1.896513737e-01	-3.444578853e-05	1.514983130e-11
-2.550000000e-02	1.896513645e-01	-3.251753898e-05	1.376607990e-11
-2.560000000e-02	1.896513552e-01	-3.058928996e-05	8.712476050e-12
-2.570000000e-02	1.896513458e-01	-2.866104146e-05	6.777617014e-12
-2.580000000e-02	1.896513364e-01	-2.673279349e-05	3.267552623e-11
-2.590000000e-02	1.896513270e-01	-2.480454605e-05	2.197281515e-11
-2.600000000e-02	1.896513174e-01	-2.287629913e-05	4.733161063e-11
-2.610000000e-02	1.896513079e-01	-2.094805277e-05	7.426365200e-12
-2.620000000e-02	1.896512982e-01	-1.901980692e-05	4.536638521e-11
-2.630000000e-02	1.896512885e-01	-1.709156164e-05	1.344395372e-11
-2.640000000e-02	1.896512788e-01	-1.516331689e-05	1.213248572e-11
-2.650000000e-02	1.896512689e-01	-1.323507269e-05	1.069545764e-11
-2.660000000e-02	1.896512591e-01	-1.130682905e-05	1.763527562e-11
-2.670000000e-02	1.896512491e-01	-9.378585949e-06	9.178442396e-12
-2.680000000e-02	1.896512391e-01	-7.450343411e-06	8.318333488e-12
-2.690000000e-02	1.896512291e-01	-5.522101435e-06	1.682832689e-11
-2.700000000e-02	1.896512190e-01	-3.593860019e-06	1.450812622e-11
-2.710000000e-02	1.896512088e-01	-1.665619168e-06	1.230679504e-11
-2.720000000e-02	1.896511986e-01	2.626211104e-07	9.551475829e-12
-2.730000000e-02	1.896511883e-01	2.190860819e-06	2.597559608e-11
-2.740000000e-02	1.896511779e-01	4.119099955e-06	8.763427206e-12
-2.750000000e-02	1.896511675e-01	6.047338508e-06	8.857152534e-12
-2.760000000e-02	1.896511571e-01	7.975576486e-06	9.347559440e-12
-2.770000000e-02	1.896511465e-01	9.903813875e-06	6.955996627e-12
-2.780000000e-02	1.896511360e-01	1.183205069e-05	3.138346748e-11
-2.790000000e-02	1.896511253e-01	1.376028689e-05	8.283485195e-12
-2.800000000e-02	1.896511146e-01	1.568852252e-05	1.181165206e-11
-2.810000000e-02	1.896511039e-01	1.761675754e-05	1.711970852e-11
-2.820000000e-02	1.896510931e-01	1.954499198e-05	5.478101936e-11
-2.830000000e-02	1.896510822e-01	2.147322580e-05	1.132763069e-11
-2.840000000e-02	1.896510712e-01	2.340145902e-05	1.195631251e-11
-2.850000000e-02	1.896510603e-01	2.532969164e-05	1.439810464e-11
-2.860000000e-02	1.896510492e-01	2.725792364e-05	1.030505178e-11
-2.870000000e-02	1.896510381e-01	2.918615504e-05	6.875132044e-11
-2.880000000e-02	1.896510269e-01	3.111438580e-05	3.459957054e-11
-2.890000000e-02	1.896510157e-01	3.304261596e-05	1.101005296e-11
-2.900000000e-02	1.896510044e-01	3.497084548e-05	3.383449303e-11
-2.910000000e-02	1.896509931e-01	3.689907440e-05	6.802207763e-12
-2.920000000e-02	1.896509817e-01	3.882730268e-05	1.025182396e-11
-2.930000000e-02	1.896509702e-01	4.075553032e-05	6.608725687e-11
-2.940000000e-02	1.896509587e-01	4.268375733e-05	7.631705985e-12
-2.950000000e-02	1.896509471e-01	4.461198371e-05	1.119311459e-11
-2.960000000e-02	1.896509354e-01	4.654020944e-05	7.843631924e-12
-2.970000000e-02	1.896509238e-01	4.846843453e-05	1.154466740e-11
-2.980000000e-02	1.896509120e-01	5.039665898e-05	7.792885655e-12
-2.990000000e-02	1.896509002e-01	5.232488277e-05	8.726333110e-12
-3.000000000e-02	1.896508883e-01	5.425310591e-05	1.012829915e-11
