# Im(epsi1)     Re(omega/c)      Im(omega/c)      Eq(det).Opt det CON kz, R=0.5 \mum, mu_c=0.3, Re(epsi1)=3.90solve_det_conkz_vs_kz.py
0.000000000e+00	1.896568324e-01	-5.242417650e-04	4.270013430e-11
-1.000000000e-04	1.896568381e-01	-5.223134551e-04	2.376294647e-11
-2.000000000e-04	1.896568437e-01	-5.203851450e-04	4.291389717e-11
-3.000000000e-04	1.896568493e-01	-5.184568346e-04	1.315768372e-11
-4.000000000e-04	1.896568548e-01	-5.165285240e-04	2.168508480e-11
-5.000000000e-04	1.896568603e-01	-5.146002132e-04	8.625281201e-12
-6.000000000e-04	1.896568657e-01	-5.126719021e-04	6.399305965e-11
-7.000000000e-04	1.896568710e-01	-5.107435908e-04	1.835532064e-11
-8.000000000e-04	1.896568763e-01	-5.088152793e-04	2.646222489e-11
-9.000000000e-04	1.896568815e-01	-5.068869676e-04	2.058347951e-11
-1.000000000e-03	1.896568867e-01	-5.049586557e-04	3.810565001e-11
-1.100000000e-03	1.896568918e-01	-5.030303436e-04	4.246801392e-11
-1.200000000e-03	1.896568969e-01	-5.011020312e-04	8.437097416e-12
-1.300000000e-03	1.896569019e-01	-4.991737187e-04	9.527080311e-12
-1.400000000e-03	1.896569068e-01	-4.972454059e-04	2.020874851e-11
-1.500000000e-03	1.896569117e-01	-4.953170930e-04	7.887254724e-12
-1.600000000e-03	1.896569165e-01	-4.933887799e-04	9.296566397e-12
-1.700000000e-03	1.896569212e-01	-4.914604665e-04	1.641304371e-11
-1.800000000e-03	1.896569259e-01	-4.895321530e-04	1.573613334e-11
-1.900000000e-03	1.896569306e-01	-4.876038393e-04	1.195076119e-11
-2.000000000e-03	1.896569351e-01	-4.856755254e-04	2.146764785e-11
-2.100000000e-03	1.896569397e-01	-4.837472113e-04	2.521256574e-11
-2.200000000e-03	1.896569441e-01	-4.818188971e-04	7.569718981e-12
-2.300000000e-03	1.896569485e-01	-4.798905827e-04	7.611732064e-12
-2.400000000e-03	1.896569529e-01	-4.779622681e-04	2.253766491e-11
-2.500000000e-03	1.896569572e-01	-4.760339533e-04	1.170294846e-11
-2.600000000e-03	1.896569614e-01	-4.741056384e-04	1.127082705e-11
-2.700000000e-03	1.896569656e-01	-4.721773233e-04	8.792053315e-12
-2.800000000e-03	1.896569697e-01	-4.702490081e-04	1.668873768e-11
-2.900000000e-03	1.896569737e-01	-4.683206927e-04	6.937056926e-12
-3.000000000e-03	1.896569777e-01	-4.663923771e-04	9.389031918e-12
-3.100000000e-03	1.896569816e-01	-4.644640614e-04	1.441935238e-11
-3.200000000e-03	1.896569855e-01	-4.625357456e-04	1.575413957e-11
-3.300000000e-03	1.896569893e-01	-4.606074296e-04	2.621000066e-11
-3.400000000e-03	1.896569931e-01	-4.586791135e-04	1.927353995e-11
-3.500000000e-03	1.896569968e-01	-4.567507972e-04	1.351658891e-11
-3.600000000e-03	1.896570004e-01	-4.548224808e-04	1.274449808e-11
-3.700000000e-03	1.896570040e-01	-4.528941643e-04	1.599049633e-11
-3.800000000e-03	1.896570075e-01	-4.509658476e-04	1.058015371e-11
-3.900000000e-03	1.896570110e-01	-4.490375308e-04	7.076621690e-12
-4.000000000e-03	1.896570144e-01	-4.471092139e-04	9.797825880e-12
-4.100000000e-03	1.896570178e-01	-4.451808968e-04	1.561004178e-11
-4.200000000e-03	1.896570210e-01	-4.432525797e-04	5.597494544e-11
-4.300000000e-03	1.896570243e-01	-4.413242624e-04	5.615198327e-11
-4.400000000e-03	1.896570274e-01	-4.393959450e-04	1.458576763e-11
-4.500000000e-03	1.896570306e-01	-4.374676276e-04	1.714860952e-11
-4.600000000e-03	1.896570336e-01	-4.355393100e-04	4.044118655e-11
-4.700000000e-03	1.896570366e-01	-4.336109923e-04	1.861265749e-11
-4.800000000e-03	1.896570395e-01	-4.316826745e-04	9.594653508e-12
-4.900000000e-03	1.896570424e-01	-4.297543566e-04	1.317358986e-11
-5.000000000e-03	1.896570452e-01	-4.278260386e-04	2.077767758e-11
-5.100000000e-03	1.896570480e-01	-4.258977205e-04	9.884841086e-12
-5.200000000e-03	1.896570507e-01	-4.239694024e-04	1.074739318e-11
-5.300000000e-03	1.896570533e-01	-4.220410841e-04	2.318910762e-11
-5.400000000e-03	1.896570559e-01	-4.201127658e-04	1.782632562e-11
-5.500000000e-03	1.896570584e-01	-4.181844474e-04	1.276364126e-11
-5.600000000e-03	1.896570609e-01	-4.162561289e-04	7.069419129e-12
-5.700000000e-03	1.896570633e-01	-4.143278104e-04	1.307167836e-11
-5.800000000e-03	1.896570656e-01	-4.123994917e-04	7.955130368e-12
-5.900000000e-03	1.896570679e-01	-4.104711731e-04	1.588684211e-11
-6.000000000e-03	1.896570702e-01	-4.085428543e-04	7.005679896e-12
-6.100000000e-03	1.896570723e-01	-4.066145355e-04	1.261216247e-11
-6.200000000e-03	1.896570744e-01	-4.046862166e-04	2.185707703e-11
-6.300000000e-03	1.896570765e-01	-4.027578977e-04	2.054282884e-11
-6.400000000e-03	1.896570785e-01	-4.008295787e-04	7.618336621e-12
-6.500000000e-03	1.896570804e-01	-3.989012597e-04	1.188818060e-11
-6.600000000e-03	1.896570823e-01	-3.969729406e-04	6.989397441e-12
-6.700000000e-03	1.896570841e-01	-3.950446215e-04	9.080307211e-12
-6.800000000e-03	1.896570859e-01	-3.931163024e-04	2.169070465e-11
-6.900000000e-03	1.896570876e-01	-3.911879832e-04	2.560800412e-11
-7.000000000e-03	1.896570892e-01	-3.892596639e-04	3.048856260e-11
-7.100000000e-03	1.896570908e-01	-3.873313447e-04	5.329269516e-12
-7.200000000e-03	1.896570923e-01	-3.854030254e-04	1.666150496e-11
-7.300000000e-03	1.896570938e-01	-3.834747061e-04	6.506286488e-12
-7.400000000e-03	1.896570952e-01	-3.815463868e-04	1.561145601e-11
-7.500000000e-03	1.896570966e-01	-3.796180674e-04	1.500905397e-11
-7.600000000e-03	1.896570978e-01	-3.776897481e-04	7.212981751e-12
-7.700000000e-03	1.896570991e-01	-3.757614287e-04	1.291915724e-11
-7.800000000e-03	1.896571002e-01	-3.738331093e-04	9.568638019e-12
-7.900000000e-03	1.896571014e-01	-3.719047899e-04	6.144822391e-11
-8.000000000e-03	1.896571024e-01	-3.699764705e-04	6.196248473e-12
-8.100000000e-03	1.896571034e-01	-3.680481511e-04	9.194823833e-12
-8.200000000e-03	1.896571043e-01	-3.661198318e-04	7.613171790e-12
-8.300000000e-03	1.896571052e-01	-3.641915124e-04	1.706290902e-11
-8.400000000e-03	1.896571060e-01	-3.622631930e-04	1.517085221e-11
-8.500000000e-03	1.896571068e-01	-3.603348736e-04	9.659186139e-12
-8.600000000e-03	1.896571075e-01	-3.584065543e-04	1.656151788e-11
-8.700000000e-03	1.896571081e-01	-3.564782349e-04	1.041196973e-11
-8.800000000e-03	1.896571087e-01	-3.545499156e-04	2.056453483e-11
-8.900000000e-03	1.896571093e-01	-3.526215963e-04	3.364688200e-11
-9.000000000e-03	1.896571097e-01	-3.506932770e-04	1.114735091e-11
-9.100000000e-03	1.896571101e-01	-3.487649578e-04	5.307492438e-12
-9.200000000e-03	1.896571105e-01	-3.468366386e-04	2.225494825e-11
-9.300000000e-03	1.896571108e-01	-3.449083194e-04	1.071893484e-11
-9.400000000e-03	1.896571110e-01	-3.429800003e-04	8.304475001e-12
-9.500000000e-03	1.896571112e-01	-3.410516812e-04	2.034429225e-11
-9.600000000e-03	1.896571113e-01	-3.391233622e-04	1.805810694e-11
-9.700000000e-03	1.896571113e-01	-3.371950431e-04	8.560672002e-12
-9.800000000e-03	1.896571113e-01	-3.352667242e-04	8.297859067e-12
-9.900000000e-03	1.896571113e-01	-3.333384053e-04	1.262927983e-11
-1.000000000e-02	1.896571112e-01	-3.314100864e-04	1.213744292e-11
-1.010000000e-02	1.896571110e-01	-3.294817677e-04	1.325274656e-11
-1.020000000e-02	1.896571107e-01	-3.275534489e-04	1.531899170e-11
-1.030000000e-02	1.896571104e-01	-3.256251303e-04	1.339357086e-11
-1.040000000e-02	1.896571101e-01	-3.236968117e-04	1.516885985e-11
-1.050000000e-02	1.896571097e-01	-3.217684932e-04	8.078556607e-12
-1.060000000e-02	1.896571092e-01	-3.198401747e-04	1.088554323e-11
-1.070000000e-02	1.896571087e-01	-3.179118564e-04	6.991769840e-11
-1.080000000e-02	1.896571081e-01	-3.159835381e-04	2.650264427e-11
-1.090000000e-02	1.896571074e-01	-3.140552199e-04	8.987876789e-12
-1.100000000e-02	1.896571067e-01	-3.121269017e-04	9.099945158e-12
-1.110000000e-02	1.896571059e-01	-3.101985837e-04	2.199470621e-11
-1.120000000e-02	1.896571051e-01	-3.082702658e-04	2.059861272e-11
-1.130000000e-02	1.896571042e-01	-3.063419479e-04	7.928612330e-12
-1.140000000e-02	1.896571033e-01	-3.044136302e-04	7.658478565e-12
-1.150000000e-02	1.896571023e-01	-3.024853125e-04	1.340890902e-11
-1.160000000e-02	1.896571012e-01	-3.005569950e-04	1.237484549e-11
-1.170000000e-02	1.896571001e-01	-2.986286775e-04	1.556580260e-11
-1.180000000e-02	1.896570989e-01	-2.967003602e-04	1.494225657e-11
-1.190000000e-02	1.896570977e-01	-2.947720430e-04	5.920904180e-12
-1.200000000e-02	1.896570964e-01	-2.928437259e-04	1.268077168e-11
-1.210000000e-02	1.896570950e-01	-2.909154089e-04	2.158370340e-11
-1.220000000e-02	1.896570936e-01	-2.889870921e-04	1.498452645e-11
-1.230000000e-02	1.896570921e-01	-2.870587753e-04	1.479136741e-11
-1.240000000e-02	1.896570906e-01	-2.851304587e-04	1.496599591e-11
-1.250000000e-02	1.896570890e-01	-2.832021422e-04	1.158292518e-11
-1.260000000e-02	1.896570874e-01	-2.812738259e-04	2.155546339e-11
-1.270000000e-02	1.896570857e-01	-2.793455097e-04	9.644122483e-12
-1.280000000e-02	1.896570839e-01	-2.774171936e-04	1.502439318e-11
-1.290000000e-02	1.896570821e-01	-2.754888777e-04	5.292562657e-11
-1.300000000e-02	1.896570802e-01	-2.735605619e-04	1.037983214e-11
-1.310000000e-02	1.896570782e-01	-2.716322463e-04	2.633650511e-11
-1.320000000e-02	1.896570762e-01	-2.697039308e-04	2.815576287e-11
-1.330000000e-02	1.896570742e-01	-2.677756155e-04	6.179734617e-12
-1.340000000e-02	1.896570721e-01	-2.658473003e-04	2.193251415e-11
-1.350000000e-02	1.896570699e-01	-2.639189853e-04	1.126214276e-11
-1.360000000e-02	1.896570676e-01	-2.619906704e-04	7.016583395e-12
-1.370000000e-02	1.896570654e-01	-2.600623557e-04	1.059596178e-11
-1.380000000e-02	1.896570630e-01	-2.581340412e-04	5.570674034e-12
-1.390000000e-02	1.896570606e-01	-2.562057269e-04	7.455823836e-12
-1.400000000e-02	1.896570581e-01	-2.542774127e-04	7.309803026e-12
-1.410000000e-02	1.896570556e-01	-2.523490987e-04	9.787633247e-12
-1.420000000e-02	1.896570530e-01	-2.504207849e-04	6.273601535e-12
-1.430000000e-02	1.896570503e-01	-2.484924713e-04	1.040543781e-11
-1.440000000e-02	1.896570476e-01	-2.465641579e-04	2.248440061e-11
-1.450000000e-02	1.896570449e-01	-2.446358446e-04	7.889206010e-12
-1.460000000e-02	1.896570420e-01	-2.427075316e-04	2.319155902e-11
-1.470000000e-02	1.896570392e-01	-2.407792187e-04	3.614908974e-11
-1.480000000e-02	1.896570362e-01	-2.388509061e-04	7.451645229e-12
-1.490000000e-02	1.896570332e-01	-2.369225936e-04	1.260865912e-11
-1.500000000e-02	1.896570302e-01	-2.349942814e-04	3.184675254e-11
-1.510000000e-02	1.896570270e-01	-2.330659693e-04	1.611460097e-11
-1.520000000e-02	1.896570239e-01	-2.311376575e-04	1.875503860e-11
-1.530000000e-02	1.896570206e-01	-2.292093459e-04	6.441904497e-12
-1.540000000e-02	1.896570173e-01	-2.272810345e-04	6.762206934e-12
-1.550000000e-02	1.896570140e-01	-2.253527233e-04	1.135615619e-11
-1.560000000e-02	1.896570106e-01	-2.234244124e-04	7.364762649e-12
-1.570000000e-02	1.896570071e-01	-2.214961016e-04	2.893120778e-11
-1.580000000e-02	1.896570036e-01	-2.195677911e-04	8.451449307e-12
-1.590000000e-02	1.896570000e-01	-2.176394809e-04	2.439272419e-11
-1.600000000e-02	1.896569963e-01	-2.157111708e-04	5.310767520e-12
-1.610000000e-02	1.896569926e-01	-2.137828610e-04	1.193262234e-11
-1.620000000e-02	1.896569889e-01	-2.118545515e-04	1.713131134e-11
-1.630000000e-02	1.896569850e-01	-2.099262422e-04	8.272138908e-12
-1.640000000e-02	1.896569812e-01	-2.079979331e-04	1.624913584e-11
-1.650000000e-02	1.896569772e-01	-2.060696243e-04	1.591627955e-11
-1.660000000e-02	1.896569732e-01	-2.041413157e-04	1.316400933e-11
-1.670000000e-02	1.896569692e-01	-2.022130074e-04	1.044051678e-10
-1.680000000e-02	1.896569650e-01	-2.002846994e-04	9.822102764e-12
-1.690000000e-02	1.896569609e-01	-1.983563916e-04	2.477225716e-11
-1.700000000e-02	1.896569566e-01	-1.964280840e-04	1.217588401e-11
-1.710000000e-02	1.896569523e-01	-1.944997768e-04	1.522271332e-11
-1.720000000e-02	1.896569480e-01	-1.925714698e-04	4.114987182e-11
-1.730000000e-02	1.896569436e-01	-1.906431631e-04	5.464988311e-11
-1.740000000e-02	1.896569391e-01	-1.887148567e-04	9.296033281e-12
-1.750000000e-02	1.896569346e-01	-1.867865505e-04	3.741055329e-11
-1.760000000e-02	1.896569300e-01	-1.848582446e-04	6.922532769e-12
-1.770000000e-02	1.896569253e-01	-1.829299390e-04	1.805088270e-11
-1.780000000e-02	1.896569206e-01	-1.810016337e-04	1.111562524e-11
-1.790000000e-02	1.896569159e-01	-1.790733287e-04	1.016106701e-11
-1.800000000e-02	1.896569110e-01	-1.771450240e-04	3.558188121e-11
-1.810000000e-02	1.896569062e-01	-1.752167196e-04	1.394609655e-11
-1.820000000e-02	1.896569012e-01	-1.732884155e-04	1.101881581e-11
-1.830000000e-02	1.896568962e-01	-1.713601117e-04	1.531340501e-11
-1.840000000e-02	1.896568912e-01	-1.694318082e-04	1.469699453e-11
-1.850000000e-02	1.896568861e-01	-1.675035050e-04	1.474486951e-11
-1.860000000e-02	1.896568809e-01	-1.655752021e-04	3.017650457e-11
-1.870000000e-02	1.896568756e-01	-1.636468995e-04	1.154763062e-11
-1.880000000e-02	1.896568704e-01	-1.617185973e-04	1.648405187e-11
-1.890000000e-02	1.896568650e-01	-1.597902953e-04	2.339149633e-11
-1.900000000e-02	1.896568596e-01	-1.578619937e-04	1.009953911e-11
-1.910000000e-02	1.896568541e-01	-1.559336925e-04	1.162157790e-11
-1.920000000e-02	1.896568486e-01	-1.540053915e-04	1.351530581e-11
-1.930000000e-02	1.896568430e-01	-1.520770909e-04	2.401138522e-11
-1.940000000e-02	1.896568374e-01	-1.501487906e-04	7.937988108e-12
-1.950000000e-02	1.896568317e-01	-1.482204907e-04	1.324417468e-11
-1.960000000e-02	1.896568259e-01	-1.462921911e-04	2.324444401e-11
-1.970000000e-02	1.896568201e-01	-1.443638918e-04	6.201264296e-12
-1.980000000e-02	1.896568142e-01	-1.424355929e-04	1.060606210e-11
-1.990000000e-02	1.896568083e-01	-1.405072944e-04	9.618090916e-12
-2.000000000e-02	1.896568023e-01	-1.385789962e-04	1.586168433e-11
-2.010000000e-02	1.896567962e-01	-1.366506983e-04	3.857032859e-11
-2.020000000e-02	1.896567901e-01	-1.347224009e-04	8.146592451e-12
-2.030000000e-02	1.896567839e-01	-1.327941037e-04	1.520102810e-11
-2.040000000e-02	1.896567777e-01	-1.308658070e-04	1.134551689e-11
-2.050000000e-02	1.896567714e-01	-1.289375106e-04	1.430646094e-11
-2.060000000e-02	1.896567650e-01	-1.270092146e-04	1.401551343e-11
-2.070000000e-02	1.896567586e-01	-1.250809190e-04	1.802807005e-11
-2.080000000e-02	1.896567522e-01	-1.231526237e-04	8.127595452e-12
-2.090000000e-02	1.896567456e-01	-1.212243288e-04	1.762974141e-11
-2.100000000e-02	1.896567390e-01	-1.192960343e-04	2.829789110e-11
-2.110000000e-02	1.896567324e-01	-1.173677402e-04	4.177937888e-11
-2.120000000e-02	1.896567257e-01	-1.154394465e-04	1.725038213e-11
-2.130000000e-02	1.896567189e-01	-1.135111532e-04	9.732986771e-12
-2.140000000e-02	1.896567121e-01	-1.115828603e-04	6.114108484e-12
-2.150000000e-02	1.896567052e-01	-1.096545677e-04	8.434740922e-12
-2.160000000e-02	1.896566983e-01	-1.077262756e-04	3.040050624e-11
-2.170000000e-02	1.896566913e-01	-1.057979839e-04	1.000549865e-11
-2.180000000e-02	1.896566842e-01	-1.038696926e-04	2.679817320e-11
-2.190000000e-02	1.896566771e-01	-1.019414017e-04	1.131342822e-11
-2.200000000e-02	1.896566700e-01	-1.000131112e-04	4.228812476e-11
-2.210000000e-02	1.896566627e-01	-9.808482110e-05	1.068177725e-11
-2.220000000e-02	1.896566554e-01	-9.615653145e-05	8.245039733e-12
-2.230000000e-02	1.896566481e-01	-9.422824222e-05	1.307200872e-11
-2.240000000e-02	1.896566407e-01	-9.229995341e-05	9.319156541e-12
-2.250000000e-02	1.896566332e-01	-9.037166504e-05	1.765020814e-11
-2.260000000e-02	1.896566257e-01	-8.844337709e-05	2.108038771e-11
-2.270000000e-02	1.896566181e-01	-8.651508958e-05	3.817696973e-11
-2.280000000e-02	1.896566105e-01	-8.458680251e-05	1.756606572e-11
-2.290000000e-02	1.896566028e-01	-8.265851587e-05	1.232026503e-11
-2.300000000e-02	1.896565950e-01	-8.073022969e-05	7.949864534e-12
-2.310000000e-02	1.896565872e-01	-7.880194395e-05	1.237773759e-11
-2.320000000e-02	1.896565793e-01	-7.687365865e-05	1.662981838e-11
-2.330000000e-02	1.896565714e-01	-7.494537381e-05	1.426805582e-11
-2.340000000e-02	1.896565634e-01	-7.301708943e-05	8.597555793e-12
-2.350000000e-02	1.896565553e-01	-7.108880550e-05	8.290761073e-12
-2.360000000e-02	1.896565472e-01	-6.916052203e-05	1.120920993e-11
-2.370000000e-02	1.896565390e-01	-6.723223904e-05	1.044086776e-11
-2.380000000e-02	1.896565308e-01	-6.530395650e-05	1.510385124e-11
-2.390000000e-02	1.896565225e-01	-6.337567444e-05	8.337475073e-11
-2.400000000e-02	1.896565142e-01	-6.144739285e-05	4.939867578e-12
-2.410000000e-02	1.896565057e-01	-5.951911174e-05	1.295185327e-11
-2.420000000e-02	1.896564973e-01	-5.759083110e-05	2.552055268e-11
-2.430000000e-02	1.896564888e-01	-5.566255095e-05	1.218507876e-11
-2.440000000e-02	1.896564802e-01	-5.373427128e-05	4.440083000e-11
-2.450000000e-02	1.896564715e-01	-5.180599211e-05	3.938288705e-11
-2.460000000e-02	1.896564628e-01	-4.987771342e-05	4.674818178e-11
-2.470000000e-02	1.896564541e-01	-4.794943523e-05	1.127906719e-11
-2.480000000e-02	1.896564453e-01	-4.602115754e-05	1.739989151e-11
-2.490000000e-02	1.896564364e-01	-4.409288034e-05	1.049824123e-11
-2.500000000e-02	1.896564274e-01	-4.216460365e-05	1.178513438e-11
-2.510000000e-02	1.896564184e-01	-4.023632746e-05	8.133239704e-12
-2.520000000e-02	1.896564094e-01	-3.830805179e-05	6.993681480e-12
-2.530000000e-02	1.896564003e-01	-3.637977662e-05	8.996246230e-12
-2.540000000e-02	1.896563911e-01	-3.445150197e-05	1.142711777e-11
-2.550000000e-02	1.896563819e-01	-3.252322784e-05	9.237821419e-12
-2.560000000e-02	1.896563726e-01	-3.059495423e-05	9.487192587e-12
-2.570000000e-02	1.896563632e-01	-2.866668115e-05	2.056900017e-11
-2.580000000e-02	1.896563538e-01	-2.673840859e-05	3.565090118e-11
-2.590000000e-02	1.896563444e-01	-2.481013656e-05	7.122374639e-12
-2.600000000e-02	1.896563348e-01	-2.288186506e-05	1.060771205e-11
-2.610000000e-02	1.896563253e-01	-2.095359410e-05	1.598084577e-11
-2.620000000e-02	1.896563156e-01	-1.902532368e-05	5.915789634e-12
-2.630000000e-02	1.896563059e-01	-1.709705381e-05	2.202154439e-11
-2.640000000e-02	1.896562962e-01	-1.516878447e-05	1.016870542e-11
-2.650000000e-02	1.896562863e-01	-1.324051568e-05	3.852353476e-11
-2.660000000e-02	1.896562765e-01	-1.131224745e-05	1.216149374e-11
-2.670000000e-02	1.896562665e-01	-9.383979768e-06	7.612911985e-12
-2.680000000e-02	1.896562565e-01	-7.455712647e-06	3.017066031e-11
-2.690000000e-02	1.896562465e-01	-5.527446079e-06	5.697695972e-12
-2.700000000e-02	1.896562364e-01	-3.599180074e-06	2.670834972e-11
-2.710000000e-02	1.896562262e-01	-1.670914643e-06	6.073583279e-12
-2.720000000e-02	1.896562160e-01	2.573502232e-07	1.022424046e-11
-2.730000000e-02	1.896562057e-01	2.185614497e-06	1.761620828e-10
-2.740000000e-02	1.896561953e-01	4.113878242e-06	2.253429474e-11
-2.750000000e-02	1.896561849e-01	6.042141390e-06	5.253730610e-11
-2.760000000e-02	1.896561745e-01	7.970403947e-06	1.125491301e-11
-2.770000000e-02	1.896561640e-01	9.898665925e-06	1.220078899e-11
-2.780000000e-02	1.896561534e-01	1.182692731e-05	1.436299990e-11
-2.790000000e-02	1.896561427e-01	1.375518812e-05	2.934771005e-11
-2.800000000e-02	1.896561320e-01	1.568344832e-05	1.214245366e-11
-2.810000000e-02	1.896561213e-01	1.761170794e-05	9.204881393e-12
-2.820000000e-02	1.896561105e-01	1.953996696e-05	1.047044700e-11
-2.830000000e-02	1.896560996e-01	2.146822537e-05	2.735342623e-11
-2.840000000e-02	1.896560886e-01	2.339648318e-05	1.460588837e-11
-2.850000000e-02	1.896560777e-01	2.532474038e-05	3.441169964e-11
-2.860000000e-02	1.896560666e-01	2.725299697e-05	9.468601354e-12
-2.870000000e-02	1.896560555e-01	2.918125295e-05	8.351547848e-12
-2.880000000e-02	1.896560443e-01	3.110950831e-05	3.216670044e-11
-2.890000000e-02	1.896560331e-01	3.303776305e-05	9.784665987e-12
-2.900000000e-02	1.896560218e-01	3.496601717e-05	1.189445378e-11
-2.910000000e-02	1.896560105e-01	3.689427066e-05	1.112042495e-11
-2.920000000e-02	1.896559991e-01	3.882252353e-05	9.499403099e-12
-2.930000000e-02	1.896559876e-01	4.075077576e-05	1.566897408e-11
-2.940000000e-02	1.896559761e-01	4.267902736e-05	1.970269553e-11
-2.950000000e-02	1.896559645e-01	4.460727832e-05	2.258477317e-11
-2.960000000e-02	1.896559529e-01	4.653552864e-05	1.238236364e-11
-2.970000000e-02	1.896559412e-01	4.846377832e-05	7.900644827e-12
-2.980000000e-02	1.896559294e-01	5.039202735e-05	1.579093036e-11
-2.990000000e-02	1.896559176e-01	5.232027574e-05	7.831869960e-12
-3.000000000e-02	1.896559057e-01	5.424852346e-05	1.638312880e-11
