# Im(epsi1)     Re(omega/c)      Im(omega/c)      Eq(det).Opt det CON kz, R=0.5 \mum, mu_c=0.3, Re(epsi1)=3.90solve_det_conkz_vs_kz.py
0.000000000e+00	1.896495531e-01	-5.242240255e-04	1.673682054e-11
-1.000000000e-04	1.896495587e-01	-5.222957512e-04	6.589385741e-11
-2.000000000e-04	1.896495644e-01	-5.203674767e-04	2.295864140e-11
-3.000000000e-04	1.896495700e-01	-5.184392020e-04	8.146138692e-12
-4.000000000e-04	1.896495755e-01	-5.165109271e-04	1.061350590e-11
-5.000000000e-04	1.896495809e-01	-5.145826519e-04	1.005684946e-10
-6.000000000e-04	1.896495864e-01	-5.126543765e-04	1.720495056e-11
-7.000000000e-04	1.896495917e-01	-5.107261009e-04	1.020010973e-11
-8.000000000e-04	1.896495970e-01	-5.087978250e-04	2.750921433e-11
-9.000000000e-04	1.896496022e-01	-5.068695490e-04	3.618018589e-11
-1.000000000e-03	1.896496074e-01	-5.049412727e-04	1.207186015e-11
-1.100000000e-03	1.896496125e-01	-5.030129962e-04	6.972849796e-12
-1.200000000e-03	1.896496175e-01	-5.010847195e-04	7.261352326e-12
-1.300000000e-03	1.896496225e-01	-4.991564426e-04	1.004663776e-11
-1.400000000e-03	1.896496275e-01	-4.972281656e-04	7.710173328e-12
-1.500000000e-03	1.896496323e-01	-4.952998883e-04	1.048039812e-11
-1.600000000e-03	1.896496371e-01	-4.933716108e-04	5.765922655e-12
-1.700000000e-03	1.896496419e-01	-4.914433331e-04	1.135959110e-11
-1.800000000e-03	1.896496466e-01	-4.895150553e-04	1.410907637e-11
-1.900000000e-03	1.896496512e-01	-4.875867772e-04	1.034025500e-11
-2.000000000e-03	1.896496558e-01	-4.856584990e-04	9.872128974e-12
-2.100000000e-03	1.896496603e-01	-4.837302206e-04	1.493168232e-11
-2.200000000e-03	1.896496648e-01	-4.818019420e-04	2.225245846e-11
-2.300000000e-03	1.896496692e-01	-4.798736632e-04	1.090299919e-11
-2.400000000e-03	1.896496735e-01	-4.779453843e-04	1.044280128e-11
-2.500000000e-03	1.896496778e-01	-4.760171052e-04	9.210932027e-12
-2.600000000e-03	1.896496821e-01	-4.740888259e-04	4.787645373e-11
-2.700000000e-03	1.896496862e-01	-4.721605465e-04	1.220886189e-11
-2.800000000e-03	1.896496903e-01	-4.702322669e-04	8.174860570e-12
-2.900000000e-03	1.896496944e-01	-4.683039872e-04	1.260294967e-11
-3.000000000e-03	1.896496984e-01	-4.663757073e-04	1.663892964e-11
-3.100000000e-03	1.896497023e-01	-4.644474272e-04	6.594431398e-12
-3.200000000e-03	1.896497062e-01	-4.625191470e-04	3.031205000e-11
-3.300000000e-03	1.896497100e-01	-4.605908667e-04	1.404269495e-11
-3.400000000e-03	1.896497138e-01	-4.586625862e-04	1.465437690e-11
-3.500000000e-03	1.896497175e-01	-4.567343056e-04	1.717468714e-11
-3.600000000e-03	1.896497211e-01	-4.548060249e-04	1.307247707e-11
-3.700000000e-03	1.896497247e-01	-4.528777440e-04	1.204268056e-11
-3.800000000e-03	1.896497282e-01	-4.509494630e-04	1.397134102e-11
-3.900000000e-03	1.896497317e-01	-4.490211818e-04	8.514048637e-12
-4.000000000e-03	1.896497351e-01	-4.470929006e-04	1.234336847e-11
-4.100000000e-03	1.896497384e-01	-4.451646192e-04	9.427325734e-12
-4.200000000e-03	1.896497417e-01	-4.432363377e-04	1.237132387e-11
-4.300000000e-03	1.896497449e-01	-4.413080561e-04	2.252587719e-11
-4.400000000e-03	1.896497481e-01	-4.393797744e-04	7.224293435e-12
-4.500000000e-03	1.896497512e-01	-4.374514925e-04	2.195700574e-11
-4.600000000e-03	1.896497543e-01	-4.355232106e-04	1.917889641e-11
-4.700000000e-03	1.896497573e-01	-4.335949286e-04	2.156616828e-11
-4.800000000e-03	1.896497602e-01	-4.316666464e-04	1.559831031e-11
-4.900000000e-03	1.896497631e-01	-4.297383642e-04	1.984734438e-11
-5.000000000e-03	1.896497659e-01	-4.278100819e-04	9.465164463e-12
-5.100000000e-03	1.896497686e-01	-4.258817995e-04	9.251485508e-12
-5.200000000e-03	1.896497713e-01	-4.239535170e-04	8.560879008e-12
-5.300000000e-03	1.896497740e-01	-4.220252344e-04	1.293537578e-11
-5.400000000e-03	1.896497766e-01	-4.200969517e-04	1.349286923e-11
-5.500000000e-03	1.896497791e-01	-4.181686690e-04	1.969771545e-11
-5.600000000e-03	1.896497816e-01	-4.162403861e-04	1.839590705e-11
-5.700000000e-03	1.896497840e-01	-4.143121032e-04	9.329970144e-12
-5.800000000e-03	1.896497863e-01	-4.123838203e-04	1.142803943e-11
-5.900000000e-03	1.896497886e-01	-4.104555372e-04	2.456015246e-11
-6.000000000e-03	1.896497908e-01	-4.085272542e-04	1.102268612e-11
-6.100000000e-03	1.896497930e-01	-4.065989710e-04	9.812138086e-12
-6.200000000e-03	1.896497951e-01	-4.046706878e-04	1.852321839e-11
-6.300000000e-03	1.896497972e-01	-4.027424045e-04	3.225179345e-11
-6.400000000e-03	1.896497992e-01	-4.008141212e-04	1.732938614e-11
-6.500000000e-03	1.896498011e-01	-3.988858378e-04	1.084109650e-11
-6.600000000e-03	1.896498030e-01	-3.969575544e-04	6.305528637e-12
-6.700000000e-03	1.896498048e-01	-3.950292710e-04	2.053728575e-11
-6.800000000e-03	1.896498065e-01	-3.931009875e-04	2.142453353e-11
-6.900000000e-03	1.896498082e-01	-3.911727039e-04	5.148248230e-12
-7.000000000e-03	1.896498099e-01	-3.892444204e-04	2.057193497e-11
-7.100000000e-03	1.896498115e-01	-3.873161368e-04	1.140728994e-11
-7.200000000e-03	1.896498130e-01	-3.853878532e-04	1.628157874e-11
-7.300000000e-03	1.896498145e-01	-3.834595695e-04	6.327607052e-11
-7.400000000e-03	1.896498159e-01	-3.815312858e-04	5.283090796e-12
-7.500000000e-03	1.896498172e-01	-3.796030021e-04	3.258334447e-11
-7.600000000e-03	1.896498185e-01	-3.776747185e-04	2.520198731e-11
-7.700000000e-03	1.896498197e-01	-3.757464347e-04	1.438400343e-11
-7.800000000e-03	1.896498209e-01	-3.738181510e-04	1.742048069e-11
-7.900000000e-03	1.896498220e-01	-3.718898673e-04	4.387540839e-11
-8.000000000e-03	1.896498231e-01	-3.699615835e-04	3.245262876e-11
-8.100000000e-03	1.896498241e-01	-3.680332998e-04	1.484822706e-11
-8.200000000e-03	1.896498250e-01	-3.661050161e-04	1.593350786e-11
-8.300000000e-03	1.896498259e-01	-3.641767323e-04	1.951921891e-11
-8.400000000e-03	1.896498267e-01	-3.622484486e-04	1.264443628e-11
-8.500000000e-03	1.896498275e-01	-3.603201649e-04	1.878588601e-11
-8.600000000e-03	1.896498282e-01	-3.583918812e-04	4.907176120e-11
-8.700000000e-03	1.896498288e-01	-3.564635975e-04	1.240719152e-11
-8.800000000e-03	1.896498294e-01	-3.545353139e-04	7.072736010e-12
-8.900000000e-03	1.896498299e-01	-3.526070302e-04	1.063037359e-11
-9.000000000e-03	1.896498304e-01	-3.506787466e-04	1.097871867e-11
-9.100000000e-03	1.896498308e-01	-3.487504630e-04	1.902354019e-11
-9.200000000e-03	1.896498311e-01	-3.468221795e-04	2.698201675e-11
-9.300000000e-03	1.896498314e-01	-3.448938960e-04	1.480723237e-11
-9.400000000e-03	1.896498316e-01	-3.429656125e-04	1.861905038e-11
-9.500000000e-03	1.896498318e-01	-3.410373291e-04	8.544619183e-12
-9.600000000e-03	1.896498319e-01	-3.391090457e-04	5.310212025e-12
-9.700000000e-03	1.896498320e-01	-3.371807623e-04	1.866111853e-11
-9.800000000e-03	1.896498320e-01	-3.352524790e-04	8.224131002e-12
-9.900000000e-03	1.896498319e-01	-3.333241958e-04	1.442760690e-11
-1.000000000e-02	1.896498318e-01	-3.313959126e-04	2.577003929e-11
-1.010000000e-02	1.896498316e-01	-3.294676295e-04	1.175117089e-11
-1.020000000e-02	1.896498314e-01	-3.275393464e-04	5.178355407e-12
-1.030000000e-02	1.896498311e-01	-3.256110634e-04	2.735398007e-11
-1.040000000e-02	1.896498307e-01	-3.236827805e-04	9.102877806e-12
-1.050000000e-02	1.896498303e-01	-3.217544976e-04	9.363945421e-12
-1.060000000e-02	1.896498298e-01	-3.198262148e-04	9.707130283e-12
-1.070000000e-02	1.896498293e-01	-3.178979321e-04	9.006502417e-12
-1.080000000e-02	1.896498287e-01	-3.159696495e-04	1.215401860e-11
-1.090000000e-02	1.896498281e-01	-3.140413669e-04	4.694912545e-12
-1.100000000e-02	1.896498274e-01	-3.121130845e-04	9.587773416e-12
-1.110000000e-02	1.896498266e-01	-3.101848021e-04	8.170425586e-12
-1.120000000e-02	1.896498258e-01	-3.082565198e-04	1.752600838e-11
-1.130000000e-02	1.896498249e-01	-3.063282376e-04	3.745375324e-11
-1.140000000e-02	1.896498239e-01	-3.043999555e-04	2.379363835e-11
-1.150000000e-02	1.896498229e-01	-3.024716735e-04	9.011969317e-12
-1.160000000e-02	1.896498219e-01	-3.005433917e-04	1.950520829e-11
-1.170000000e-02	1.896498207e-01	-2.986151099e-04	8.083260064e-12
-1.180000000e-02	1.896498196e-01	-2.966868282e-04	1.693173104e-11
-1.190000000e-02	1.896498183e-01	-2.947585466e-04	1.107398726e-11
-1.200000000e-02	1.896498170e-01	-2.928302652e-04	1.839319314e-11
-1.210000000e-02	1.896498157e-01	-2.909019839e-04	1.718805119e-11
-1.220000000e-02	1.896498143e-01	-2.889737027e-04	1.264390510e-11
-1.230000000e-02	1.896498128e-01	-2.870454216e-04	1.336454941e-11
-1.240000000e-02	1.896498113e-01	-2.851171406e-04	8.971257287e-12
-1.250000000e-02	1.896498097e-01	-2.831888598e-04	2.051467586e-11
-1.260000000e-02	1.896498080e-01	-2.812605791e-04	8.495130307e-12
-1.270000000e-02	1.896498063e-01	-2.793322986e-04	1.043187451e-11
-1.280000000e-02	1.896498045e-01	-2.774040182e-04	3.742492369e-11
-1.290000000e-02	1.896498027e-01	-2.754757379e-04	6.060172457e-12
-1.300000000e-02	1.896498008e-01	-2.735474578e-04	1.967045353e-11
-1.310000000e-02	1.896497989e-01	-2.716191778e-04	8.316346599e-12
-1.320000000e-02	1.896497969e-01	-2.696908980e-04	6.281862729e-12
-1.330000000e-02	1.896497948e-01	-2.677626183e-04	4.176128817e-12
-1.340000000e-02	1.896497927e-01	-2.658343388e-04	6.259056923e-12
-1.350000000e-02	1.896497905e-01	-2.639060595e-04	1.172988492e-11
-1.360000000e-02	1.896497883e-01	-2.619777803e-04	2.260258599e-11
-1.370000000e-02	1.896497860e-01	-2.600495012e-04	6.189069769e-12
-1.380000000e-02	1.896497836e-01	-2.581212224e-04	1.055638239e-11
-1.390000000e-02	1.896497812e-01	-2.561929437e-04	2.183679186e-11
-1.400000000e-02	1.896497788e-01	-2.542646652e-04	1.123317840e-11
-1.410000000e-02	1.896497762e-01	-2.523363869e-04	7.826822154e-12
-1.420000000e-02	1.896497736e-01	-2.504081087e-04	8.912997716e-12
-1.430000000e-02	1.896497710e-01	-2.484798308e-04	1.846218612e-11
-1.440000000e-02	1.896497683e-01	-2.465515530e-04	2.265597224e-11
-1.450000000e-02	1.896497655e-01	-2.446232754e-04	9.104703046e-12
-1.460000000e-02	1.896497627e-01	-2.426949980e-04	1.731027919e-11
-1.470000000e-02	1.896497598e-01	-2.407667208e-04	1.554104464e-11
-1.480000000e-02	1.896497569e-01	-2.388384438e-04	1.394937329e-11
-1.490000000e-02	1.896497539e-01	-2.369101670e-04	1.117691098e-11
-1.500000000e-02	1.896497508e-01	-2.349818904e-04	9.343631546e-12
-1.510000000e-02	1.896497477e-01	-2.330536140e-04	1.598923166e-11
-1.520000000e-02	1.896497445e-01	-2.311253379e-04	1.887694799e-11
-1.530000000e-02	1.896497413e-01	-2.291970619e-04	1.398351454e-11
-1.540000000e-02	1.896497380e-01	-2.272687862e-04	1.187060413e-11
-1.550000000e-02	1.896497346e-01	-2.253405107e-04	2.032555583e-11
-1.560000000e-02	1.896497312e-01	-2.234122354e-04	7.639148475e-12
-1.570000000e-02	1.896497277e-01	-2.214839603e-04	9.561692388e-12
-1.580000000e-02	1.896497242e-01	-2.195556854e-04	7.787945549e-12
-1.590000000e-02	1.896497206e-01	-2.176274108e-04	1.540862013e-11
-1.600000000e-02	1.896497170e-01	-2.156991364e-04	6.693059062e-11
-1.610000000e-02	1.896497133e-01	-2.137708623e-04	2.013299313e-11
-1.620000000e-02	1.896497095e-01	-2.118425884e-04	6.730197028e-12
-1.630000000e-02	1.896497057e-01	-2.099143148e-04	1.148166824e-11
-1.640000000e-02	1.896497018e-01	-2.079860414e-04	4.528688348e-11
-1.650000000e-02	1.896496979e-01	-2.060577682e-04	2.054785687e-11
-1.660000000e-02	1.896496939e-01	-2.041294953e-04	1.857942847e-11
-1.670000000e-02	1.896496898e-01	-2.022012226e-04	8.826715088e-12
-1.680000000e-02	1.896496857e-01	-2.002729503e-04	1.966538289e-11
-1.690000000e-02	1.896496815e-01	-1.983446781e-04	1.057368796e-11
-1.700000000e-02	1.896496773e-01	-1.964164063e-04	5.940796982e-12
-1.710000000e-02	1.896496730e-01	-1.944881347e-04	1.311646612e-11
-1.720000000e-02	1.896496686e-01	-1.925598633e-04	1.254187571e-11
-1.730000000e-02	1.896496642e-01	-1.906315923e-04	6.731339863e-12
-1.740000000e-02	1.896496597e-01	-1.887033215e-04	9.359396970e-12
-1.750000000e-02	1.896496552e-01	-1.867750510e-04	6.663498837e-12
-1.760000000e-02	1.896496506e-01	-1.848467808e-04	9.097996861e-12
-1.770000000e-02	1.896496460e-01	-1.829185109e-04	1.045153238e-11
-1.780000000e-02	1.896496413e-01	-1.809902412e-04	6.039859679e-11
-1.790000000e-02	1.896496365e-01	-1.790619719e-04	6.447711216e-12
-1.800000000e-02	1.896496317e-01	-1.771337028e-04	2.263148310e-11
-1.810000000e-02	1.896496268e-01	-1.752054341e-04	1.720695438e-11
-1.820000000e-02	1.896496219e-01	-1.732771656e-04	1.829041266e-11
-1.830000000e-02	1.896496169e-01	-1.713488975e-04	9.682179794e-12
-1.840000000e-02	1.896496118e-01	-1.694206296e-04	1.077184363e-11
-1.850000000e-02	1.896496067e-01	-1.674923621e-04	2.674812250e-11
-1.860000000e-02	1.896496015e-01	-1.655640948e-04	5.409040287e-11
-1.870000000e-02	1.896495963e-01	-1.636358279e-04	6.641289279e-12
-1.880000000e-02	1.896495910e-01	-1.617075613e-04	7.514977974e-12
-1.890000000e-02	1.896495856e-01	-1.597792951e-04	2.433287430e-11
-1.900000000e-02	1.896495802e-01	-1.578510291e-04	1.270514130e-11
-1.910000000e-02	1.896495748e-01	-1.559227635e-04	1.010199289e-11
-1.920000000e-02	1.896495692e-01	-1.539944982e-04	7.455290031e-12
-1.930000000e-02	1.896495636e-01	-1.520662333e-04	1.697120765e-11
-1.940000000e-02	1.896495580e-01	-1.501379687e-04	1.609333505e-11
-1.950000000e-02	1.896495523e-01	-1.482097044e-04	1.518660467e-11
-1.960000000e-02	1.896495465e-01	-1.462814404e-04	1.086009173e-11
-1.970000000e-02	1.896495407e-01	-1.443531768e-04	2.199877807e-11
-1.980000000e-02	1.896495348e-01	-1.424249136e-04	1.070415254e-11
-1.990000000e-02	1.896495289e-01	-1.404966507e-04	9.005324168e-12
-2.000000000e-02	1.896495229e-01	-1.385683882e-04	1.624182368e-11
-2.010000000e-02	1.896495168e-01	-1.366401260e-04	3.541045945e-11
-2.020000000e-02	1.896495107e-01	-1.347118642e-04	2.513509992e-11
-2.030000000e-02	1.896495045e-01	-1.327836027e-04	2.377928255e-11
-2.040000000e-02	1.896494983e-01	-1.308553416e-04	1.141516658e-11
-2.050000000e-02	1.896494920e-01	-1.289270809e-04	1.054026411e-10
-2.060000000e-02	1.896494857e-01	-1.269988205e-04	2.368635485e-11
-2.070000000e-02	1.896494793e-01	-1.250705606e-04	5.979739942e-12
-2.080000000e-02	1.896494728e-01	-1.231423010e-04	6.899424569e-12
-2.090000000e-02	1.896494663e-01	-1.212140417e-04	3.245294191e-11
-2.100000000e-02	1.896494597e-01	-1.192857829e-04	1.135235956e-11
-2.110000000e-02	1.896494530e-01	-1.173575245e-04	1.294641295e-11
-2.120000000e-02	1.896494463e-01	-1.154292664e-04	3.399501051e-11
-2.130000000e-02	1.896494396e-01	-1.135010087e-04	3.603417755e-11
-2.140000000e-02	1.896494327e-01	-1.115727515e-04	2.377574061e-11
-2.150000000e-02	1.896494259e-01	-1.096444946e-04	1.284569667e-11
-2.160000000e-02	1.896494189e-01	-1.077162381e-04	1.368674213e-11
-2.170000000e-02	1.896494119e-01	-1.057879821e-04	6.016690347e-12
-2.180000000e-02	1.896494049e-01	-1.038597264e-04	4.221282820e-12
-2.190000000e-02	1.896493978e-01	-1.019314712e-04	9.674421839e-12
-2.200000000e-02	1.896493906e-01	-1.000032163e-04	1.259886980e-11
-2.210000000e-02	1.896493833e-01	-9.807496193e-05	1.180727717e-11
-2.220000000e-02	1.896493761e-01	-9.614670793e-05	1.181216430e-11
-2.230000000e-02	1.896493687e-01	-9.421845436e-05	1.294286662e-11
-2.240000000e-02	1.896493613e-01	-9.229020121e-05	1.080483270e-11
-2.250000000e-02	1.896493538e-01	-9.036194850e-05	5.974188681e-11
-2.260000000e-02	1.896493463e-01	-8.843369621e-05	1.309589491e-11
-2.270000000e-02	1.896493387e-01	-8.650544436e-05	1.042651649e-11
-2.280000000e-02	1.896493311e-01	-8.457719295e-05	1.425828658e-11
-2.290000000e-02	1.896493234e-01	-8.264894198e-05	7.731493514e-12
-2.300000000e-02	1.896493156e-01	-8.072069144e-05	8.445447325e-12
-2.310000000e-02	1.896493078e-01	-7.879244136e-05	9.767947825e-12
-2.320000000e-02	1.896492999e-01	-7.686419173e-05	6.930395133e-12
-2.330000000e-02	1.896492920e-01	-7.493594255e-05	1.449299572e-11
-2.340000000e-02	1.896492840e-01	-7.300769382e-05	4.617126659e-11
-2.350000000e-02	1.896492759e-01	-7.107944555e-05	3.832468362e-11
-2.360000000e-02	1.896492678e-01	-6.915119775e-05	5.962108713e-12
-2.370000000e-02	1.896492596e-01	-6.722295041e-05	4.397446034e-12
-2.380000000e-02	1.896492514e-01	-6.529470353e-05	5.087516870e-11
-2.390000000e-02	1.896492431e-01	-6.336645714e-05	1.304772270e-11
-2.400000000e-02	1.896492348e-01	-6.143821121e-05	1.241125873e-11
-2.410000000e-02	1.896492264e-01	-5.950996576e-05	1.455282335e-11
-2.420000000e-02	1.896492179e-01	-5.758172078e-05	1.444117088e-11
-2.430000000e-02	1.896492094e-01	-5.565347629e-05	2.184574795e-11
-2.440000000e-02	1.896492008e-01	-5.372523228e-05	1.978329586e-11
-2.450000000e-02	1.896491921e-01	-5.179698877e-05	1.151075149e-11
-2.460000000e-02	1.896491834e-01	-4.986874573e-05	3.279841472e-11
-2.470000000e-02	1.896491747e-01	-4.794050321e-05	1.049162524e-11
-2.480000000e-02	1.896491659e-01	-4.601226117e-05	1.002589661e-11
-2.490000000e-02	1.896491570e-01	-4.408401963e-05	9.181807291e-12
-2.500000000e-02	1.896491481e-01	-4.215577860e-05	7.234060952e-12
-2.510000000e-02	1.896491391e-01	-4.022753808e-05	1.013738117e-11
-2.520000000e-02	1.896491300e-01	-3.829929806e-05	1.357762159e-11
-2.530000000e-02	1.896491209e-01	-3.637105856e-05	1.585679713e-11
-2.540000000e-02	1.896491117e-01	-3.444281957e-05	8.640726542e-12
-2.550000000e-02	1.896491025e-01	-3.251458110e-05	1.787391861e-11
-2.560000000e-02	1.896490932e-01	-3.058634315e-05	7.414343789e-12
-2.570000000e-02	1.896490839e-01	-2.865810572e-05	8.835002464e-12
-2.580000000e-02	1.896490744e-01	-2.672986882e-05	9.823278984e-12
-2.590000000e-02	1.896490650e-01	-2.480163246e-05	1.038809954e-11
-2.600000000e-02	1.896490555e-01	-2.287339662e-05	1.908807302e-11
-2.610000000e-02	1.896490459e-01	-2.094516132e-05	1.246868585e-11
-2.620000000e-02	1.896490362e-01	-1.901692655e-05	3.647783173e-11
-2.630000000e-02	1.896490265e-01	-1.708869235e-05	7.842760514e-11
-2.640000000e-02	1.896490168e-01	-1.516045868e-05	1.118048735e-10
-2.650000000e-02	1.896490070e-01	-1.323222554e-05	6.959204167e-12
-2.660000000e-02	1.896489971e-01	-1.130399297e-05	1.325104047e-11
-2.670000000e-02	1.896489871e-01	-9.375760950e-06	2.854221619e-11
-2.680000000e-02	1.896489771e-01	-7.447529480e-06	1.131133619e-11
-2.690000000e-02	1.896489671e-01	-5.519298576e-06	7.976153853e-12
-2.700000000e-02	1.896489570e-01	-3.591068237e-06	5.184976790e-12
-2.710000000e-02	1.896489468e-01	-1.662838458e-06	1.721865745e-11
-2.720000000e-02	1.896489366e-01	2.653907444e-07	1.028360318e-11
-2.730000000e-02	1.896489263e-01	2.193619380e-06	3.300184998e-11
-2.740000000e-02	1.896489160e-01	4.121847439e-06	1.222342129e-11
-2.750000000e-02	1.896489055e-01	6.050074915e-06	5.097165221e-11
-2.760000000e-02	1.896488951e-01	7.978301822e-06	1.538537427e-11
-2.770000000e-02	1.896488846e-01	9.906528142e-06	7.470793300e-12
-2.780000000e-02	1.896488740e-01	1.183475387e-05	1.940393623e-11
-2.790000000e-02	1.896488633e-01	1.376297901e-05	3.958326039e-11
-2.800000000e-02	1.896488526e-01	1.569120357e-05	2.544457098e-11
-2.810000000e-02	1.896488419e-01	1.761942752e-05	8.231160182e-12
-2.820000000e-02	1.896488311e-01	1.954765087e-05	8.741291406e-12
-2.830000000e-02	1.896488202e-01	2.147587362e-05	1.991255035e-11
-2.840000000e-02	1.896488093e-01	2.340409577e-05	1.281974155e-11
-2.850000000e-02	1.896487983e-01	2.533231731e-05	1.389237400e-11
-2.860000000e-02	1.896487872e-01	2.726053824e-05	5.038901377e-12
-2.870000000e-02	1.896487761e-01	2.918875856e-05	8.054912380e-12
-2.880000000e-02	1.896487649e-01	3.111697826e-05	1.913604264e-11
-2.890000000e-02	1.896487537e-01	3.304519734e-05	7.872664719e-12
-2.900000000e-02	1.896487424e-01	3.497341580e-05	3.271092427e-11
-2.910000000e-02	1.896487311e-01	3.690163365e-05	1.509366644e-10
-2.920000000e-02	1.896487197e-01	3.882985084e-05	7.558867203e-12
-2.930000000e-02	1.896487082e-01	4.075806741e-05	1.289866495e-11
-2.940000000e-02	1.896486967e-01	4.268628335e-05	1.726192580e-11
-2.950000000e-02	1.896486851e-01	4.461449865e-05	1.157302103e-11
-2.960000000e-02	1.896486735e-01	4.654271330e-05	4.271631710e-11
-2.970000000e-02	1.896486618e-01	4.847092732e-05	2.079518522e-11
-2.980000000e-02	1.896486500e-01	5.039914070e-05	9.848674919e-12
-2.990000000e-02	1.896486382e-01	5.232735342e-05	9.109109637e-12
-3.000000000e-02	1.896486263e-01	5.425556549e-05	1.323441473e-11
