# Im(epsi1)     Re(omega/c)      Im(omega/c)      Eq(det).Opt det CON kz, R=0.5 \mum, mu_c=0.3, Re(epsi1)=3.90solve_det_conkz_vs_kz.py
0.000000000e+00	1.896423546e-01	-5.242040120e-04	1.395814177e-11
-1.000000000e-04	1.896423603e-01	-5.222757729e-04	7.797904102e-12
-2.000000000e-04	1.896423659e-01	-5.203475336e-04	2.116073071e-11
-3.000000000e-04	1.896423715e-01	-5.184192941e-04	1.033555917e-11
-4.000000000e-04	1.896423770e-01	-5.164910543e-04	5.924030953e-11
-5.000000000e-04	1.896423825e-01	-5.145628143e-04	1.444388694e-11
-6.000000000e-04	1.896423879e-01	-5.126345741e-04	1.144793464e-11
-7.000000000e-04	1.896423932e-01	-5.107063337e-04	1.295774334e-11
-8.000000000e-04	1.896423985e-01	-5.087780931e-04	1.672631044e-11
-9.000000000e-04	1.896424038e-01	-5.068498522e-04	3.009964226e-11
-1.000000000e-03	1.896424089e-01	-5.049216111e-04	9.171129031e-12
-1.100000000e-03	1.896424140e-01	-5.029933698e-04	1.651157507e-10
-1.200000000e-03	1.896424191e-01	-5.010651283e-04	1.579175414e-11
-1.300000000e-03	1.896424241e-01	-4.991368866e-04	8.460148006e-11
-1.400000000e-03	1.896424290e-01	-4.972086447e-04	1.237133262e-11
-1.500000000e-03	1.896424339e-01	-4.952804026e-04	5.521618979e-12
-1.600000000e-03	1.896424387e-01	-4.933521604e-04	1.764110372e-11
-1.700000000e-03	1.896424434e-01	-4.914239179e-04	1.801279019e-11
-1.800000000e-03	1.896424481e-01	-4.894956752e-04	8.990173977e-12
-1.900000000e-03	1.896424528e-01	-4.875674323e-04	1.697398436e-11
-2.000000000e-03	1.896424574e-01	-4.856391893e-04	6.680387690e-12
-2.100000000e-03	1.896424619e-01	-4.837109461e-04	7.438218857e-12
-2.200000000e-03	1.896424663e-01	-4.817827027e-04	8.424409091e-12
-2.300000000e-03	1.896424708e-01	-4.798544591e-04	1.093320282e-11
-2.400000000e-03	1.896424751e-01	-4.779262154e-04	1.280463964e-11
-2.500000000e-03	1.896424794e-01	-4.759979715e-04	2.046274871e-11
-2.600000000e-03	1.896424836e-01	-4.740697274e-04	8.697682813e-12
-2.700000000e-03	1.896424878e-01	-4.721414832e-04	1.677691018e-11
-2.800000000e-03	1.896424919e-01	-4.702132388e-04	7.839379036e-12
-2.900000000e-03	1.896424959e-01	-4.682849942e-04	1.415420557e-11
-3.000000000e-03	1.896424999e-01	-4.663567495e-04	1.798060593e-11
-3.100000000e-03	1.896425039e-01	-4.644285047e-04	1.693430269e-11
-3.200000000e-03	1.896425077e-01	-4.625002597e-04	2.314525719e-11
-3.300000000e-03	1.896425116e-01	-4.605720145e-04	1.041408687e-11
-3.400000000e-03	1.896425153e-01	-4.586437692e-04	3.881265381e-11
-3.500000000e-03	1.896425190e-01	-4.567155238e-04	2.069995970e-11
-3.600000000e-03	1.896425226e-01	-4.547872783e-04	1.019170960e-11
-3.700000000e-03	1.896425262e-01	-4.528590326e-04	1.367934419e-11
-3.800000000e-03	1.896425297e-01	-4.509307868e-04	7.643224002e-12
-3.900000000e-03	1.896425332e-01	-4.490025408e-04	3.886548411e-11
-4.000000000e-03	1.896425366e-01	-4.470742947e-04	1.812344629e-11
-4.100000000e-03	1.896425400e-01	-4.451460486e-04	1.676162285e-11
-4.200000000e-03	1.896425432e-01	-4.432178023e-04	8.422964430e-12
-4.300000000e-03	1.896425465e-01	-4.412895558e-04	2.450088005e-11
-4.400000000e-03	1.896425496e-01	-4.393613093e-04	1.167165168e-11
-4.500000000e-03	1.896425528e-01	-4.374330627e-04	2.413117937e-11
-4.600000000e-03	1.896425558e-01	-4.355048159e-04	3.383842884e-12
-4.700000000e-03	1.896425588e-01	-4.335765691e-04	1.343936105e-11
-4.800000000e-03	1.896425617e-01	-4.316483221e-04	8.183281375e-12
-4.900000000e-03	1.896425646e-01	-4.297200751e-04	3.433472026e-11
-5.000000000e-03	1.896425674e-01	-4.277918280e-04	3.734575632e-11
-5.100000000e-03	1.896425702e-01	-4.258635807e-04	1.749886479e-11
-5.200000000e-03	1.896425729e-01	-4.239353334e-04	1.348312205e-11
-5.300000000e-03	1.896425755e-01	-4.220070860e-04	7.611252550e-12
-5.400000000e-03	1.896425781e-01	-4.200788386e-04	1.298991289e-11
-5.500000000e-03	1.896425806e-01	-4.181505910e-04	1.347986179e-11
-5.600000000e-03	1.896425831e-01	-4.162223434e-04	5.485163094e-12
-5.700000000e-03	1.896425855e-01	-4.142940957e-04	6.926694140e-12
-5.800000000e-03	1.896425878e-01	-4.123658479e-04	1.682551176e-11
-5.900000000e-03	1.896425901e-01	-4.104376001e-04	2.644097120e-11
-6.000000000e-03	1.896425924e-01	-4.085093522e-04	1.704437903e-11
-6.100000000e-03	1.896425945e-01	-4.065811042e-04	9.435736399e-12
-6.200000000e-03	1.896425966e-01	-4.046528562e-04	9.743272806e-12
-6.300000000e-03	1.896425987e-01	-4.027246081e-04	1.801791666e-11
-6.400000000e-03	1.896426007e-01	-4.007963600e-04	2.357971779e-11
-6.500000000e-03	1.896426026e-01	-3.988681118e-04	2.719354083e-11
-6.600000000e-03	1.896426045e-01	-3.969398636e-04	1.469681444e-11
-6.700000000e-03	1.896426063e-01	-3.950116153e-04	9.680383282e-12
-6.800000000e-03	1.896426081e-01	-3.930833670e-04	2.417300503e-11
-6.900000000e-03	1.896426098e-01	-3.911551187e-04	1.146820143e-11
-7.000000000e-03	1.896426114e-01	-3.892268703e-04	7.342927331e-12
-7.100000000e-03	1.896426130e-01	-3.872986219e-04	8.836563384e-12
-7.200000000e-03	1.896426145e-01	-3.853703735e-04	7.993246642e-12
-7.300000000e-03	1.896426160e-01	-3.834421250e-04	1.823082999e-11
-7.400000000e-03	1.896426174e-01	-3.815138765e-04	9.857377440e-12
-7.500000000e-03	1.896426187e-01	-3.795856280e-04	5.774089494e-12
-7.600000000e-03	1.896426200e-01	-3.776573795e-04	1.570722768e-11
-7.700000000e-03	1.896426213e-01	-3.757291310e-04	1.327179732e-11
-7.800000000e-03	1.896426224e-01	-3.738008825e-04	1.125512814e-11
-7.900000000e-03	1.896426235e-01	-3.718726339e-04	3.508360205e-11
-8.000000000e-03	1.896426246e-01	-3.699443854e-04	4.544010032e-11
-8.100000000e-03	1.896426256e-01	-3.680161368e-04	1.538843678e-11
-8.200000000e-03	1.896426265e-01	-3.660878883e-04	1.400526524e-11
-8.300000000e-03	1.896426274e-01	-3.641596398e-04	8.130531253e-12
-8.400000000e-03	1.896426282e-01	-3.622313912e-04	1.070326744e-11
-8.500000000e-03	1.896426290e-01	-3.603031427e-04	2.168217039e-11
-8.600000000e-03	1.896426297e-01	-3.583748942e-04	1.319583705e-11
-8.700000000e-03	1.896426303e-01	-3.564466457e-04	4.677683012e-11
-8.800000000e-03	1.896426309e-01	-3.545183973e-04	8.090983211e-12
-8.900000000e-03	1.896426314e-01	-3.525901488e-04	6.555234084e-12
-9.000000000e-03	1.896426319e-01	-3.506619004e-04	3.981473153e-11
-9.100000000e-03	1.896426323e-01	-3.487336520e-04	1.197367492e-11
-9.200000000e-03	1.896426327e-01	-3.468054036e-04	1.186985306e-11
-9.300000000e-03	1.896426329e-01	-3.448771553e-04	1.430879553e-11
-9.400000000e-03	1.896426332e-01	-3.429489070e-04	1.633972869e-11
-9.500000000e-03	1.896426333e-01	-3.410206588e-04	1.368768909e-11
-9.600000000e-03	1.896426335e-01	-3.390924106e-04	1.171617395e-11
-9.700000000e-03	1.896426335e-01	-3.371641624e-04	7.129083799e-12
-9.800000000e-03	1.896426335e-01	-3.352359143e-04	1.370738786e-11
-9.900000000e-03	1.896426334e-01	-3.333076663e-04	1.610184976e-11
-1.000000000e-02	1.896426333e-01	-3.313794183e-04	1.446379179e-11
-1.010000000e-02	1.896426331e-01	-3.294511704e-04	1.144282783e-11
-1.020000000e-02	1.896426329e-01	-3.275229225e-04	1.374912591e-11
-1.030000000e-02	1.896426326e-01	-3.255946747e-04	1.237681605e-11
-1.040000000e-02	1.896426323e-01	-3.236664269e-04	6.514772553e-12
-1.050000000e-02	1.896426318e-01	-3.217381793e-04	2.330207754e-11
-1.060000000e-02	1.896426314e-01	-3.198099317e-04	5.381971260e-12
-1.070000000e-02	1.896426308e-01	-3.178816842e-04	4.360895723e-11
-1.080000000e-02	1.896426302e-01	-3.159534367e-04	1.167397642e-11
-1.090000000e-02	1.896426296e-01	-3.140251894e-04	3.194570381e-11
-1.100000000e-02	1.896426289e-01	-3.120969421e-04	1.227260179e-11
-1.110000000e-02	1.896426281e-01	-3.101686949e-04	9.113582933e-12
-1.120000000e-02	1.896426273e-01	-3.082404478e-04	1.328317001e-11
-1.130000000e-02	1.896426264e-01	-3.063122008e-04	4.299642649e-11
-1.140000000e-02	1.896426255e-01	-3.043839539e-04	9.480463978e-12
-1.150000000e-02	1.896426244e-01	-3.024557071e-04	8.455755169e-12
-1.160000000e-02	1.896426234e-01	-3.005274604e-04	1.446213799e-11
-1.170000000e-02	1.896426223e-01	-2.985992139e-04	5.921123525e-11
-1.180000000e-02	1.896426211e-01	-2.966709674e-04	4.380499869e-11
-1.190000000e-02	1.896426198e-01	-2.947427210e-04	1.353913263e-11
-1.200000000e-02	1.896426185e-01	-2.928144748e-04	1.670749754e-11
-1.210000000e-02	1.896426172e-01	-2.908862286e-04	9.339014539e-11
-1.220000000e-02	1.896426158e-01	-2.889579826e-04	5.895548414e-12
-1.230000000e-02	1.896426143e-01	-2.870297367e-04	5.515686130e-12
-1.240000000e-02	1.896426128e-01	-2.851014910e-04	1.451076566e-11
-1.250000000e-02	1.896426112e-01	-2.831732453e-04	1.337714400e-11
-1.260000000e-02	1.896426095e-01	-2.812449998e-04	1.052812045e-11
-1.270000000e-02	1.896426078e-01	-2.793167545e-04	8.897007535e-12
-1.280000000e-02	1.896426061e-01	-2.773885093e-04	1.595701523e-11
-1.290000000e-02	1.896426042e-01	-2.754602642e-04	2.617103175e-11
-1.300000000e-02	1.896426023e-01	-2.735320193e-04	2.547303911e-11
-1.310000000e-02	1.896426004e-01	-2.716037745e-04	1.297448106e-11
-1.320000000e-02	1.896425984e-01	-2.696755299e-04	1.202766852e-11
-1.330000000e-02	1.896425963e-01	-2.677472854e-04	1.874593789e-11
-1.340000000e-02	1.896425942e-01	-2.658190411e-04	1.396528174e-11
-1.350000000e-02	1.896425920e-01	-2.638907969e-04	1.464654019e-11
-1.360000000e-02	1.896425898e-01	-2.619625529e-04	9.613561489e-12
-1.370000000e-02	1.896425875e-01	-2.600343091e-04	1.104872382e-11
-1.380000000e-02	1.896425852e-01	-2.581060654e-04	7.135076527e-12
-1.390000000e-02	1.896425827e-01	-2.561778219e-04	1.422552574e-11
-1.400000000e-02	1.896425803e-01	-2.542495786e-04	2.665079686e-11
-1.410000000e-02	1.896425777e-01	-2.523213355e-04	2.662835258e-11
-1.420000000e-02	1.896425751e-01	-2.503930925e-04	2.545531226e-11
-1.430000000e-02	1.896425725e-01	-2.484648498e-04	7.081953918e-12
-1.440000000e-02	1.896425698e-01	-2.465366072e-04	1.101009672e-10
-1.450000000e-02	1.896425670e-01	-2.446083648e-04	1.607471785e-11
-1.460000000e-02	1.896425642e-01	-2.426801226e-04	7.552498771e-12
-1.470000000e-02	1.896425613e-01	-2.407518806e-04	1.201309878e-11
-1.480000000e-02	1.896425584e-01	-2.388236388e-04	9.860774613e-12
-1.490000000e-02	1.896425554e-01	-2.368953972e-04	1.259045866e-11
-1.500000000e-02	1.896425523e-01	-2.349671558e-04	2.646246162e-11
-1.510000000e-02	1.896425492e-01	-2.330389146e-04	3.113126812e-11
-1.520000000e-02	1.896425460e-01	-2.311106736e-04	2.597239027e-11
-1.530000000e-02	1.896425428e-01	-2.291824328e-04	4.080462708e-11
-1.540000000e-02	1.896425395e-01	-2.272541923e-04	1.427231158e-11
-1.550000000e-02	1.896425361e-01	-2.253259520e-04	1.571977338e-11
-1.560000000e-02	1.896425327e-01	-2.233977119e-04	1.969006300e-11
-1.570000000e-02	1.896425292e-01	-2.214694720e-04	5.360118168e-12
-1.580000000e-02	1.896425257e-01	-2.195412323e-04	8.374730886e-12
-1.590000000e-02	1.896425221e-01	-2.176129929e-04	1.401315707e-11
-1.600000000e-02	1.896425185e-01	-2.156847537e-04	1.164959111e-11
-1.610000000e-02	1.896425148e-01	-2.137565148e-04	2.253721156e-11
-1.620000000e-02	1.896425110e-01	-2.118282761e-04	1.378875384e-11
-1.630000000e-02	1.896425072e-01	-2.099000376e-04	1.037647654e-11
-1.640000000e-02	1.896425033e-01	-2.079717994e-04	2.305213408e-11
-1.650000000e-02	1.896424994e-01	-2.060435614e-04	1.043612069e-11
-1.660000000e-02	1.896424954e-01	-2.041153237e-04	1.059302427e-11
-1.670000000e-02	1.896424913e-01	-2.021870863e-04	1.115056442e-11
-1.680000000e-02	1.896424872e-01	-2.002588491e-04	1.663349490e-11
-1.690000000e-02	1.896424830e-01	-1.983306121e-04	1.268258376e-11
-1.700000000e-02	1.896424788e-01	-1.964023755e-04	1.866070033e-11
-1.710000000e-02	1.896424745e-01	-1.944741391e-04	2.333097138e-11
-1.720000000e-02	1.896424701e-01	-1.925459029e-04	1.018712319e-11
-1.730000000e-02	1.896424657e-01	-1.906176671e-04	1.265543106e-11
-1.740000000e-02	1.896424612e-01	-1.886894315e-04	1.161155962e-11
-1.750000000e-02	1.896424567e-01	-1.867611962e-04	4.156991581e-11
-1.760000000e-02	1.896424521e-01	-1.848329612e-04	1.381011738e-11
-1.770000000e-02	1.896424475e-01	-1.829047264e-04	4.687295100e-12
-1.780000000e-02	1.896424428e-01	-1.809764920e-04	5.431319603e-12
-1.790000000e-02	1.896424380e-01	-1.790482578e-04	1.523416423e-11
-1.800000000e-02	1.896424332e-01	-1.771200240e-04	1.450955967e-11
-1.810000000e-02	1.896424283e-01	-1.751917904e-04	2.908049750e-11
-1.820000000e-02	1.896424234e-01	-1.732635572e-04	2.412284041e-11
-1.830000000e-02	1.896424184e-01	-1.713353242e-04	1.613686202e-11
-1.840000000e-02	1.896424133e-01	-1.694070916e-04	5.705420486e-11
-1.850000000e-02	1.896424082e-01	-1.674788592e-04	3.837911143e-12
-1.860000000e-02	1.896424030e-01	-1.655506272e-04	1.381764072e-11
-1.870000000e-02	1.896423978e-01	-1.636223955e-04	1.090440128e-11
-1.880000000e-02	1.896423925e-01	-1.616941641e-04	6.199585426e-11
-1.890000000e-02	1.896423871e-01	-1.597659330e-04	4.227225600e-12
-1.900000000e-02	1.896423817e-01	-1.578377022e-04	1.615159499e-11
-1.910000000e-02	1.896423762e-01	-1.559094718e-04	7.448889036e-12
-1.920000000e-02	1.896423707e-01	-1.539812417e-04	8.635041238e-12
-1.930000000e-02	1.896423651e-01	-1.520530119e-04	1.230052470e-11
-1.940000000e-02	1.896423595e-01	-1.501247825e-04	1.940060752e-11
-1.950000000e-02	1.896423538e-01	-1.481965534e-04	2.096988012e-11
-1.960000000e-02	1.896423480e-01	-1.462683247e-04	2.047129590e-11
-1.970000000e-02	1.896423422e-01	-1.443400963e-04	1.577831711e-11
-1.980000000e-02	1.896423363e-01	-1.424118682e-04	6.812847763e-12
-1.990000000e-02	1.896423304e-01	-1.404836406e-04	1.623820837e-11
-2.000000000e-02	1.896423244e-01	-1.385554132e-04	7.435341565e-12
-2.010000000e-02	1.896423183e-01	-1.366271862e-04	1.335497790e-11
-2.020000000e-02	1.896423122e-01	-1.346989596e-04	1.136746929e-11
-2.030000000e-02	1.896423060e-01	-1.327707333e-04	8.323784575e-12
-2.040000000e-02	1.896422998e-01	-1.308425074e-04	9.935605761e-12
-2.050000000e-02	1.896422935e-01	-1.289142819e-04	8.733418371e-12
-2.060000000e-02	1.896422872e-01	-1.269860567e-04	1.889284117e-11
-2.070000000e-02	1.896422807e-01	-1.250578320e-04	1.668786634e-11
-2.080000000e-02	1.896422743e-01	-1.231296076e-04	1.020780949e-11
-2.090000000e-02	1.896422677e-01	-1.212013835e-04	1.310767363e-11
-2.100000000e-02	1.896422612e-01	-1.192731599e-04	1.838868695e-11
-2.110000000e-02	1.896422545e-01	-1.173449367e-04	6.225995800e-11
-2.120000000e-02	1.896422478e-01	-1.154167138e-04	1.127629098e-11
-2.130000000e-02	1.896422410e-01	-1.134884913e-04	1.237337263e-11
-2.140000000e-02	1.896422342e-01	-1.115602692e-04	1.163598867e-11
-2.150000000e-02	1.896422273e-01	-1.096320476e-04	1.021719625e-11
-2.160000000e-02	1.896422204e-01	-1.077038263e-04	1.279975306e-11
-2.170000000e-02	1.896422134e-01	-1.057756054e-04	1.572183789e-11
-2.180000000e-02	1.896422064e-01	-1.038473849e-04	3.915986337e-11
-2.190000000e-02	1.896421992e-01	-1.019191649e-04	1.670503318e-11
-2.200000000e-02	1.896421921e-01	-9.999094527e-05	1.779058637e-11
-2.210000000e-02	1.896421848e-01	-9.806272605e-05	1.199815905e-11
-2.220000000e-02	1.896421775e-01	-9.613450725e-05	8.887220930e-12
-2.230000000e-02	1.896421702e-01	-9.420628887e-05	8.038663052e-12
-2.240000000e-02	1.896421628e-01	-9.227807093e-05	1.657659865e-11
-2.250000000e-02	1.896421553e-01	-9.034985340e-05	1.857221907e-11
-2.260000000e-02	1.896421478e-01	-8.842163631e-05	2.534653011e-11
-2.270000000e-02	1.896421402e-01	-8.649341965e-05	2.901855684e-11
-2.280000000e-02	1.896421326e-01	-8.456520344e-05	9.217812376e-12
-2.290000000e-02	1.896421249e-01	-8.263698766e-05	6.479851668e-12
-2.300000000e-02	1.896421171e-01	-8.070877233e-05	2.587204471e-11
-2.310000000e-02	1.896421093e-01	-7.878055744e-05	1.480569428e-11
-2.320000000e-02	1.896421014e-01	-7.685234299e-05	2.735444168e-11
-2.330000000e-02	1.896420935e-01	-7.492412901e-05	1.356552824e-11
-2.340000000e-02	1.896420855e-01	-7.299591548e-05	8.966771653e-12
-2.350000000e-02	1.896420774e-01	-7.106770241e-05	9.280971419e-12
-2.360000000e-02	1.896420693e-01	-6.913948980e-05	1.132180213e-11
-2.370000000e-02	1.896420611e-01	-6.721127766e-05	7.821960183e-12
-2.380000000e-02	1.896420529e-01	-6.528306598e-05	4.911586058e-12
-2.390000000e-02	1.896420446e-01	-6.335485477e-05	4.910550456e-12
-2.400000000e-02	1.896420362e-01	-6.142664404e-05	9.903206854e-12
-2.410000000e-02	1.896420278e-01	-5.949843378e-05	1.308420867e-11
-2.420000000e-02	1.896420194e-01	-5.757022400e-05	8.360096842e-12
-2.430000000e-02	1.896420109e-01	-5.564201470e-05	8.628259568e-12
-2.440000000e-02	1.896420023e-01	-5.371380589e-05	1.059864324e-11
-2.450000000e-02	1.896419936e-01	-5.178559757e-05	1.580690257e-11
-2.460000000e-02	1.896419849e-01	-4.985738974e-05	2.350141277e-11
-2.470000000e-02	1.896419762e-01	-4.792918240e-05	7.688188128e-12
-2.480000000e-02	1.896419673e-01	-4.600097556e-05	7.965612930e-12
-2.490000000e-02	1.896419585e-01	-4.407276922e-05	9.595829446e-12
-2.500000000e-02	1.896419495e-01	-4.214456339e-05	1.364531279e-11
-2.510000000e-02	1.896419405e-01	-4.021635805e-05	2.317903200e-11
-2.520000000e-02	1.896419315e-01	-3.828815324e-05	1.200039319e-11
-2.530000000e-02	1.896419224e-01	-3.635994892e-05	1.552028262e-11
-2.540000000e-02	1.896419132e-01	-3.443174513e-05	3.868066880e-11
-2.550000000e-02	1.896419040e-01	-3.250354186e-05	9.040888926e-12
-2.560000000e-02	1.896418947e-01	-3.057533911e-05	1.829225435e-11
-2.570000000e-02	1.896418853e-01	-2.864713688e-05	1.045622606e-11
-2.580000000e-02	1.896418759e-01	-2.671893517e-05	1.287293432e-11
-2.590000000e-02	1.896418665e-01	-2.479073400e-05	1.580524520e-11
-2.600000000e-02	1.896418569e-01	-2.286253336e-05	1.695759184e-11
-2.610000000e-02	1.896418473e-01	-2.093433325e-05	2.402012850e-11
-2.620000000e-02	1.896418377e-01	-1.900613369e-05	6.367796705e-12
-2.630000000e-02	1.896418280e-01	-1.707793467e-05	1.108870873e-11
-2.640000000e-02	1.896418182e-01	-1.514973619e-05	7.643626771e-12
-2.650000000e-02	1.896418084e-01	-1.322153826e-05	1.352115182e-11
-2.660000000e-02	1.896417985e-01	-1.129334088e-05	1.575132370e-11
-2.670000000e-02	1.896417886e-01	-9.365144056e-06	1.863386153e-11
-2.680000000e-02	1.896417786e-01	-7.436947788e-06	1.247453990e-11
-2.690000000e-02	1.896417686e-01	-5.508752081e-06	1.061257232e-11
-2.700000000e-02	1.896417585e-01	-3.580556935e-06	1.376942583e-11
-2.710000000e-02	1.896417483e-01	-1.652362350e-06	1.767122382e-11
-2.720000000e-02	1.896417381e-01	2.758316594e-07	1.007563284e-11
-2.730000000e-02	1.896417278e-01	2.204025097e-06	1.266437389e-11
-2.740000000e-02	1.896417174e-01	4.132217958e-06	1.098118222e-11
-2.750000000e-02	1.896417070e-01	6.060410247e-06	1.861921336e-11
-2.760000000e-02	1.896416965e-01	7.988601951e-06	3.764311883e-11
-2.770000000e-02	1.896416860e-01	9.916793075e-06	1.369873050e-11
-2.780000000e-02	1.896416754e-01	1.184498361e-05	9.340084623e-11
-2.790000000e-02	1.896416648e-01	1.377317355e-05	8.412127095e-12
-2.800000000e-02	1.896416541e-01	1.570136291e-05	3.452772099e-11
-2.810000000e-02	1.896416433e-01	1.762955166e-05	7.675491328e-12
-2.820000000e-02	1.896416325e-01	1.955773983e-05	4.103578432e-11
-2.830000000e-02	1.896416217e-01	2.148592738e-05	1.054880386e-11
-2.840000000e-02	1.896416107e-01	2.341411433e-05	2.038215516e-11
-2.850000000e-02	1.896415997e-01	2.534230067e-05	1.411466365e-11
-2.860000000e-02	1.896415887e-01	2.727048641e-05	1.144486810e-11
-2.870000000e-02	1.896415776e-01	2.919867153e-05	1.563449670e-11
-2.880000000e-02	1.896415664e-01	3.112685604e-05	7.985001487e-11
-2.890000000e-02	1.896415552e-01	3.305503991e-05	2.529244971e-11
-2.900000000e-02	1.896415439e-01	3.498322318e-05	1.061345997e-11
-2.910000000e-02	1.896415325e-01	3.691140581e-05	8.196938325e-12
-2.920000000e-02	1.896415211e-01	3.883958782e-05	1.001424025e-11
-2.930000000e-02	1.896415097e-01	4.076776920e-05	2.197829319e-11
-2.940000000e-02	1.896414981e-01	4.269594994e-05	1.133503544e-11
-2.950000000e-02	1.896414866e-01	4.462413005e-05	1.438091294e-11
-2.960000000e-02	1.896414749e-01	4.655230951e-05	1.039932210e-11
-2.970000000e-02	1.896414632e-01	4.848048833e-05	6.878175778e-12
-2.980000000e-02	1.896414515e-01	5.040866650e-05	3.431526614e-11
-2.990000000e-02	1.896414396e-01	5.233684403e-05	1.938795113e-11
-3.000000000e-02	1.896414278e-01	5.426502090e-05	8.771510208e-12
