# Im(epsi1)     Re(omega/c)      Im(omega/c)      Eq(det).Opt det CON kz, R=0.5 \mum, mu_c=0.3, Re(epsi1)=3.90solve_det_conkz_vs_kz.py
0.000000000e+00	1.896438443e-01	-5.242083553e-04	2.643594957e-11
-1.000000000e-04	1.896438500e-01	-5.222801090e-04	1.787352696e-11
-2.000000000e-04	1.896438556e-01	-5.203518624e-04	8.244686923e-12
-3.000000000e-04	1.896438612e-01	-5.184236156e-04	5.860498919e-12
-4.000000000e-04	1.896438667e-01	-5.164953685e-04	1.156948168e-11
-5.000000000e-04	1.896438722e-01	-5.145671213e-04	3.978513000e-11
-6.000000000e-04	1.896438776e-01	-5.126388738e-04	8.080217947e-12
-7.000000000e-04	1.896438829e-01	-5.107106261e-04	4.064211277e-11
-8.000000000e-04	1.896438882e-01	-5.087823782e-04	1.346141061e-11
-9.000000000e-04	1.896438934e-01	-5.068541300e-04	1.430259738e-11
-1.000000000e-03	1.896438986e-01	-5.049258817e-04	1.786902540e-11
-1.100000000e-03	1.896439037e-01	-5.029976331e-04	1.582017253e-11
-1.200000000e-03	1.896439088e-01	-5.010693843e-04	2.183597188e-11
-1.300000000e-03	1.896439138e-01	-4.991411354e-04	6.393276781e-12
-1.400000000e-03	1.896439187e-01	-4.972128862e-04	2.243912911e-11
-1.500000000e-03	1.896439236e-01	-4.952846368e-04	6.091285590e-12
-1.600000000e-03	1.896439284e-01	-4.933563872e-04	9.338611882e-12
-1.700000000e-03	1.896439331e-01	-4.914281375e-04	6.270681612e-12
-1.800000000e-03	1.896439378e-01	-4.894998875e-04	5.336498462e-12
-1.900000000e-03	1.896439425e-01	-4.875716374e-04	1.094666655e-11
-2.000000000e-03	1.896439470e-01	-4.856433871e-04	1.171629584e-11
-2.100000000e-03	1.896439516e-01	-4.837151366e-04	1.991758773e-11
-2.200000000e-03	1.896439560e-01	-4.817868859e-04	1.751588568e-11
-2.300000000e-03	1.896439604e-01	-4.798586351e-04	1.130076111e-11
-2.400000000e-03	1.896439648e-01	-4.779303841e-04	1.563788261e-11
-2.500000000e-03	1.896439691e-01	-4.760021329e-04	2.313569435e-11
-2.600000000e-03	1.896439733e-01	-4.740738815e-04	8.803465357e-12
-2.700000000e-03	1.896439775e-01	-4.721456300e-04	1.361096072e-11
-2.800000000e-03	1.896439816e-01	-4.702173783e-04	1.780327022e-11
-2.900000000e-03	1.896439856e-01	-4.682891265e-04	5.843754910e-12
-3.000000000e-03	1.896439896e-01	-4.663608745e-04	2.902752038e-11
-3.100000000e-03	1.896439935e-01	-4.644326224e-04	8.946696415e-12
-3.200000000e-03	1.896439974e-01	-4.625043701e-04	2.630177246e-11
-3.300000000e-03	1.896440012e-01	-4.605761177e-04	6.065255840e-12
-3.400000000e-03	1.896440050e-01	-4.586478651e-04	8.792225732e-11
-3.500000000e-03	1.896440087e-01	-4.567196124e-04	1.297882392e-11
-3.600000000e-03	1.896440123e-01	-4.547913596e-04	1.379165913e-11
-3.700000000e-03	1.896440159e-01	-4.528631067e-04	1.407272953e-11
-3.800000000e-03	1.896440194e-01	-4.509348536e-04	9.018752713e-12
-3.900000000e-03	1.896440229e-01	-4.490066003e-04	9.704228331e-12
-4.000000000e-03	1.896440263e-01	-4.470783470e-04	1.503619794e-11
-4.100000000e-03	1.896440296e-01	-4.451500935e-04	1.118631616e-11
-4.200000000e-03	1.896440329e-01	-4.432218399e-04	1.447931461e-11
-4.300000000e-03	1.896440362e-01	-4.412935862e-04	1.382542885e-11
-4.400000000e-03	1.896440393e-01	-4.393653324e-04	1.053979706e-11
-4.500000000e-03	1.896440424e-01	-4.374370785e-04	1.619675091e-11
-4.600000000e-03	1.896440455e-01	-4.355088245e-04	9.855190647e-12
-4.700000000e-03	1.896440485e-01	-4.335805704e-04	2.085851653e-11
-4.800000000e-03	1.896440514e-01	-4.316523162e-04	8.465246277e-12
-4.900000000e-03	1.896440543e-01	-4.297240618e-04	5.005063540e-12
-5.000000000e-03	1.896440571e-01	-4.277958074e-04	1.053796922e-11
-5.100000000e-03	1.896440599e-01	-4.258675529e-04	1.740129475e-11
-5.200000000e-03	1.896440626e-01	-4.239392983e-04	7.628981333e-12
-5.300000000e-03	1.896440652e-01	-4.220110437e-04	8.400435293e-12
-5.400000000e-03	1.896440678e-01	-4.200827889e-04	1.274493918e-11
-5.500000000e-03	1.896440703e-01	-4.181545341e-04	7.063766370e-12
-5.600000000e-03	1.896440728e-01	-4.162262792e-04	9.029701845e-12
-5.700000000e-03	1.896440752e-01	-4.142980242e-04	2.056386331e-11
-5.800000000e-03	1.896440775e-01	-4.123697692e-04	1.891367933e-11
-5.900000000e-03	1.896440798e-01	-4.104415140e-04	1.723122056e-11
-6.000000000e-03	1.896440820e-01	-4.085132589e-04	7.931117520e-12
-6.100000000e-03	1.896440842e-01	-4.065850036e-04	1.583377599e-11
-6.200000000e-03	1.896440863e-01	-4.046567483e-04	8.537511856e-12
-6.300000000e-03	1.896440884e-01	-4.027284930e-04	6.247334686e-12
-6.400000000e-03	1.896440904e-01	-4.008002376e-04	8.108519226e-12
-6.500000000e-03	1.896440923e-01	-3.988719821e-04	9.825055299e-12
-6.600000000e-03	1.896440942e-01	-3.969437266e-04	5.375972106e-12
-6.700000000e-03	1.896440960e-01	-3.950154711e-04	1.228271835e-11
-6.800000000e-03	1.896440978e-01	-3.930872155e-04	1.283853613e-11
-6.900000000e-03	1.896440995e-01	-3.911589599e-04	1.210384215e-11
-7.000000000e-03	1.896441011e-01	-3.892307042e-04	1.616287656e-11
-7.100000000e-03	1.896441027e-01	-3.873024486e-04	3.493253837e-11
-7.200000000e-03	1.896441042e-01	-3.853741928e-04	2.723343047e-11
-7.300000000e-03	1.896441057e-01	-3.834459371e-04	1.055094401e-11
-7.400000000e-03	1.896441071e-01	-3.815176814e-04	1.675353597e-11
-7.500000000e-03	1.896441084e-01	-3.795894256e-04	1.908802894e-11
-7.600000000e-03	1.896441097e-01	-3.776611698e-04	5.646827231e-12
-7.700000000e-03	1.896441109e-01	-3.757329140e-04	2.833772001e-11
-7.800000000e-03	1.896441121e-01	-3.738046582e-04	4.849133149e-12
-7.900000000e-03	1.896441132e-01	-3.718764024e-04	9.938793983e-12
-8.000000000e-03	1.896441143e-01	-3.699481465e-04	2.700094335e-11
-8.100000000e-03	1.896441153e-01	-3.680198907e-04	4.891325423e-11
-8.200000000e-03	1.896441162e-01	-3.660916349e-04	1.618573319e-11
-8.300000000e-03	1.896441171e-01	-3.641633791e-04	2.974312701e-11
-8.400000000e-03	1.896441179e-01	-3.622351233e-04	1.742945886e-11
-8.500000000e-03	1.896441187e-01	-3.603068675e-04	1.150301112e-11
-8.600000000e-03	1.896441194e-01	-3.583786117e-04	1.579112406e-11
-8.700000000e-03	1.896441200e-01	-3.564503559e-04	1.087665557e-11
-8.800000000e-03	1.896441206e-01	-3.545221002e-04	9.895845038e-12
-8.900000000e-03	1.896441211e-01	-3.525938445e-04	3.358681407e-11
-9.000000000e-03	1.896441216e-01	-3.506655888e-04	1.533990695e-11
-9.100000000e-03	1.896441220e-01	-3.487373331e-04	1.646024153e-11
-9.200000000e-03	1.896441223e-01	-3.468090775e-04	1.270291982e-11
-9.300000000e-03	1.896441226e-01	-3.448808219e-04	2.227204717e-11
-9.400000000e-03	1.896441229e-01	-3.429525663e-04	2.436356580e-11
-9.500000000e-03	1.896441230e-01	-3.410243108e-04	3.017395850e-11
-9.600000000e-03	1.896441231e-01	-3.390960553e-04	7.608039455e-12
-9.700000000e-03	1.896441232e-01	-3.371677999e-04	1.194911601e-11
-9.800000000e-03	1.896441232e-01	-3.352395445e-04	1.418311390e-11
-9.900000000e-03	1.896441231e-01	-3.333112892e-04	4.897008419e-11
-1.000000000e-02	1.896441230e-01	-3.313830339e-04	2.758796407e-11
-1.010000000e-02	1.896441228e-01	-3.294547787e-04	1.833526768e-11
-1.020000000e-02	1.896441226e-01	-3.275265235e-04	2.140547403e-11
-1.030000000e-02	1.896441223e-01	-3.255982685e-04	1.047224239e-11
-1.040000000e-02	1.896441219e-01	-3.236700134e-04	1.579012148e-11
-1.050000000e-02	1.896441215e-01	-3.217417585e-04	9.128128562e-12
-1.060000000e-02	1.896441210e-01	-3.198135036e-04	1.768801640e-11
-1.070000000e-02	1.896441205e-01	-3.178852488e-04	2.650693435e-11
-1.080000000e-02	1.896441199e-01	-3.159569941e-04	1.271606057e-11
-1.090000000e-02	1.896441193e-01	-3.140287395e-04	7.924343279e-12
-1.100000000e-02	1.896441186e-01	-3.121004849e-04	3.089144894e-11
-1.110000000e-02	1.896441178e-01	-3.101722305e-04	2.062846270e-11
-1.120000000e-02	1.896441170e-01	-3.082439761e-04	2.197849809e-11
-1.130000000e-02	1.896441161e-01	-3.063157218e-04	8.718423377e-12
-1.140000000e-02	1.896441151e-01	-3.043874677e-04	1.528668929e-11
-1.150000000e-02	1.896441141e-01	-3.024592136e-04	1.274076753e-11
-1.160000000e-02	1.896441131e-01	-3.005309596e-04	6.109930061e-12
-1.170000000e-02	1.896441120e-01	-2.986027057e-04	1.169910872e-11
-1.180000000e-02	1.896441108e-01	-2.966744520e-04	6.240255652e-11
-1.190000000e-02	1.896441095e-01	-2.947461983e-04	4.656569140e-11
-1.200000000e-02	1.896441082e-01	-2.928179448e-04	1.424007656e-11
-1.210000000e-02	1.896441069e-01	-2.908896914e-04	1.269361882e-11
-1.220000000e-02	1.896441055e-01	-2.889614381e-04	1.368268318e-11
-1.230000000e-02	1.896441040e-01	-2.870331850e-04	4.214050418e-11
-1.240000000e-02	1.896441025e-01	-2.851049319e-04	7.171271914e-12
-1.250000000e-02	1.896441009e-01	-2.831766790e-04	3.114624264e-11
-1.260000000e-02	1.896440992e-01	-2.812484262e-04	1.703393725e-11
-1.270000000e-02	1.896440975e-01	-2.793201736e-04	2.910688284e-11
-1.280000000e-02	1.896440957e-01	-2.773919211e-04	2.718645282e-11
-1.290000000e-02	1.896440939e-01	-2.754636688e-04	1.369888680e-11
-1.300000000e-02	1.896440920e-01	-2.735354166e-04	6.717013489e-12
-1.310000000e-02	1.896440901e-01	-2.716071645e-04	4.391635011e-11
-1.320000000e-02	1.896440881e-01	-2.696789126e-04	1.760314885e-11
-1.330000000e-02	1.896440860e-01	-2.677506608e-04	1.727941366e-11
-1.340000000e-02	1.896440839e-01	-2.658224092e-04	9.765318905e-12
-1.350000000e-02	1.896440817e-01	-2.638941578e-04	8.870471592e-12
-1.360000000e-02	1.896440795e-01	-2.619659065e-04	1.153936951e-11
-1.370000000e-02	1.896440772e-01	-2.600376554e-04	1.684187963e-11
-1.380000000e-02	1.896440748e-01	-2.581094045e-04	1.406559185e-11
-1.390000000e-02	1.896440724e-01	-2.561811537e-04	1.437853578e-11
-1.400000000e-02	1.896440700e-01	-2.542529031e-04	9.448729771e-11
-1.410000000e-02	1.896440674e-01	-2.523246527e-04	7.152268851e-12
-1.420000000e-02	1.896440648e-01	-2.503964025e-04	1.332620605e-11
-1.430000000e-02	1.896440622e-01	-2.484681524e-04	1.796231588e-11
-1.440000000e-02	1.896440595e-01	-2.465399026e-04	6.119269318e-12
-1.450000000e-02	1.896440567e-01	-2.446116529e-04	9.121712406e-12
-1.460000000e-02	1.896440539e-01	-2.426834034e-04	6.556234919e-12
-1.470000000e-02	1.896440510e-01	-2.407551541e-04	1.605452150e-11
-1.480000000e-02	1.896440481e-01	-2.388269051e-04	1.009709498e-11
-1.490000000e-02	1.896440451e-01	-2.368986562e-04	1.164798120e-10
-1.500000000e-02	1.896440420e-01	-2.349704075e-04	1.111739855e-11
-1.510000000e-02	1.896440389e-01	-2.330421590e-04	1.034479295e-11
-1.520000000e-02	1.896440357e-01	-2.311139108e-04	7.616808887e-12
-1.530000000e-02	1.896440325e-01	-2.291856627e-04	3.997558761e-11
-1.540000000e-02	1.896440292e-01	-2.272574149e-04	1.030840788e-11
-1.550000000e-02	1.896440258e-01	-2.253291673e-04	5.254229888e-12
-1.560000000e-02	1.896440224e-01	-2.234009199e-04	4.927146184e-12
-1.570000000e-02	1.896440189e-01	-2.214726728e-04	8.712415911e-12
-1.580000000e-02	1.896440154e-01	-2.195444259e-04	2.156748551e-11
-1.590000000e-02	1.896440118e-01	-2.176161791e-04	3.975607113e-11
-1.600000000e-02	1.896440082e-01	-2.156879327e-04	2.302666049e-11
-1.610000000e-02	1.896440045e-01	-2.137596865e-04	7.928873212e-12
-1.620000000e-02	1.896440007e-01	-2.118314405e-04	3.766183601e-11
-1.630000000e-02	1.896439969e-01	-2.099031948e-04	1.333804235e-11
-1.640000000e-02	1.896439930e-01	-2.079749493e-04	8.000843956e-12
-1.650000000e-02	1.896439890e-01	-2.060467040e-04	9.753861078e-12
-1.660000000e-02	1.896439850e-01	-2.041184590e-04	1.618808946e-11
-1.670000000e-02	1.896439810e-01	-2.021902143e-04	1.138834666e-11
-1.680000000e-02	1.896439769e-01	-2.002619698e-04	9.534085884e-12
-1.690000000e-02	1.896439727e-01	-1.983337256e-04	1.573694939e-11
-1.700000000e-02	1.896439685e-01	-1.964054817e-04	5.454648558e-12
-1.710000000e-02	1.896439642e-01	-1.944772380e-04	9.845966920e-12
-1.720000000e-02	1.896439598e-01	-1.925489946e-04	2.498340210e-11
-1.730000000e-02	1.896439554e-01	-1.906207514e-04	4.432809459e-12
-1.740000000e-02	1.896439509e-01	-1.886925086e-04	1.110497213e-11
-1.750000000e-02	1.896439464e-01	-1.867642660e-04	8.368852160e-12
-1.760000000e-02	1.896439418e-01	-1.848360237e-04	8.370508849e-12
-1.770000000e-02	1.896439372e-01	-1.829077817e-04	1.307734813e-11
-1.780000000e-02	1.896439325e-01	-1.809795400e-04	8.725146995e-12
-1.790000000e-02	1.896439277e-01	-1.790512985e-04	4.123095136e-12
-1.800000000e-02	1.896439229e-01	-1.771230574e-04	1.201157760e-11
-1.810000000e-02	1.896439180e-01	-1.751948165e-04	7.379509340e-12
-1.820000000e-02	1.896439130e-01	-1.732665760e-04	1.060030560e-11
-1.830000000e-02	1.896439080e-01	-1.713383358e-04	1.614996500e-11
-1.840000000e-02	1.896439030e-01	-1.694100958e-04	6.669973581e-12
-1.850000000e-02	1.896438979e-01	-1.674818562e-04	7.785706890e-12
-1.860000000e-02	1.896438927e-01	-1.655536169e-04	1.448080111e-11
-1.870000000e-02	1.896438875e-01	-1.636253779e-04	1.075926147e-11
-1.880000000e-02	1.896438822e-01	-1.616971392e-04	1.504761456e-11
-1.890000000e-02	1.896438768e-01	-1.597689009e-04	1.422315657e-11
-1.900000000e-02	1.896438714e-01	-1.578406629e-04	7.304745941e-12
-1.910000000e-02	1.896438659e-01	-1.559124252e-04	6.648345877e-12
-1.920000000e-02	1.896438604e-01	-1.539841878e-04	3.144805935e-11
-1.930000000e-02	1.896438548e-01	-1.520559507e-04	1.217972181e-11
-1.940000000e-02	1.896438492e-01	-1.501277140e-04	5.714624233e-12
-1.950000000e-02	1.896438435e-01	-1.481994777e-04	8.533251149e-12
-1.960000000e-02	1.896438377e-01	-1.462712417e-04	1.503494202e-11
-1.970000000e-02	1.896438319e-01	-1.443430060e-04	7.732508362e-12
-1.980000000e-02	1.896438260e-01	-1.424147707e-04	2.333959424e-11
-1.990000000e-02	1.896438201e-01	-1.404865357e-04	1.120687202e-11
-2.000000000e-02	1.896438141e-01	-1.385583011e-04	2.149016611e-11
-2.010000000e-02	1.896438080e-01	-1.366300668e-04	2.026518681e-11
-2.020000000e-02	1.896438019e-01	-1.347018329e-04	3.992439899e-11
-2.030000000e-02	1.896437957e-01	-1.327735993e-04	1.719157149e-11
-2.040000000e-02	1.896437895e-01	-1.308453662e-04	4.839302854e-12
-2.050000000e-02	1.896437832e-01	-1.289171334e-04	1.339625703e-11
-2.060000000e-02	1.896437768e-01	-1.269889009e-04	7.410100808e-12
-2.070000000e-02	1.896437704e-01	-1.250606689e-04	1.304179273e-11
-2.080000000e-02	1.896437640e-01	-1.231324372e-04	8.459126569e-12
-2.090000000e-02	1.896437574e-01	-1.212042059e-04	1.560059564e-11
-2.100000000e-02	1.896437509e-01	-1.192759750e-04	3.000811681e-11
-2.110000000e-02	1.896437442e-01	-1.173477444e-04	2.155829097e-11
-2.120000000e-02	1.896437375e-01	-1.154195143e-04	7.605259203e-12
-2.130000000e-02	1.896437307e-01	-1.134912845e-04	1.797340094e-11
-2.140000000e-02	1.896437239e-01	-1.115630552e-04	1.479433997e-11
-2.150000000e-02	1.896437170e-01	-1.096348262e-04	8.580167720e-12
-2.160000000e-02	1.896437101e-01	-1.077065977e-04	7.382536408e-12
-2.170000000e-02	1.896437031e-01	-1.057783696e-04	3.976926425e-11
-2.180000000e-02	1.896436961e-01	-1.038501418e-04	1.140650833e-11
-2.190000000e-02	1.896436889e-01	-1.019219145e-04	5.314026923e-11
-2.200000000e-02	1.896436818e-01	-9.999368757e-05	1.499596414e-11
-2.210000000e-02	1.896436745e-01	-9.806546108e-05	1.312047277e-11
-2.220000000e-02	1.896436672e-01	-9.613723500e-05	3.215619681e-11
-2.230000000e-02	1.896436599e-01	-9.420900934e-05	9.294426548e-12
-2.240000000e-02	1.896436525e-01	-9.228078411e-05	1.570251180e-11
-2.250000000e-02	1.896436450e-01	-9.035255931e-05	1.706488273e-11
-2.260000000e-02	1.896436375e-01	-8.842433495e-05	1.475676971e-11
-2.270000000e-02	1.896436299e-01	-8.649611101e-05	1.198869436e-11
-2.280000000e-02	1.896436223e-01	-8.456788752e-05	1.160586545e-11
-2.290000000e-02	1.896436146e-01	-8.263966445e-05	3.113348330e-11
-2.300000000e-02	1.896436068e-01	-8.071144185e-05	1.197522067e-11
-2.310000000e-02	1.896435990e-01	-7.878321968e-05	1.180041924e-11
-2.320000000e-02	1.896435911e-01	-7.685499796e-05	5.305956770e-11
-2.330000000e-02	1.896435832e-01	-7.492677670e-05	1.393110714e-11
-2.340000000e-02	1.896435752e-01	-7.299855590e-05	1.855614913e-11
-2.350000000e-02	1.896435671e-01	-7.107033554e-05	6.330871762e-12
-2.360000000e-02	1.896435590e-01	-6.914211565e-05	8.560456413e-12
-2.370000000e-02	1.896435508e-01	-6.721389624e-05	1.837010489e-11
-2.380000000e-02	1.896435426e-01	-6.528567728e-05	2.799696105e-11
-2.390000000e-02	1.896435343e-01	-6.335745879e-05	2.871684690e-11
-2.400000000e-02	1.896435259e-01	-6.142924078e-05	8.611406480e-12
-2.410000000e-02	1.896435175e-01	-5.950102324e-05	1.154873403e-11
-2.420000000e-02	1.896435091e-01	-5.757280619e-05	2.036345573e-11
-2.430000000e-02	1.896435005e-01	-5.564458961e-05	5.852663885e-12
-2.440000000e-02	1.896434920e-01	-5.371637352e-05	3.093574583e-11
-2.450000000e-02	1.896434833e-01	-5.178815792e-05	8.615155968e-12
-2.460000000e-02	1.896434746e-01	-4.985994281e-05	1.121301177e-11
-2.470000000e-02	1.896434659e-01	-4.793172820e-05	1.415436812e-11
-2.480000000e-02	1.896434570e-01	-4.600351408e-05	3.458477578e-11
-2.490000000e-02	1.896434482e-01	-4.407530047e-05	1.657918401e-11
-2.500000000e-02	1.896434392e-01	-4.214708735e-05	1.165326843e-11
-2.510000000e-02	1.896434302e-01	-4.021887475e-05	2.057731544e-11
-2.520000000e-02	1.896434212e-01	-3.829066264e-05	6.082489997e-12
-2.530000000e-02	1.896434121e-01	-3.636245106e-05	9.780937400e-12
-2.540000000e-02	1.896434029e-01	-3.443423998e-05	2.171709750e-11
-2.550000000e-02	1.896433937e-01	-3.250602943e-05	1.367608862e-11
-2.560000000e-02	1.896433844e-01	-3.057781940e-05	9.915007326e-12
-2.570000000e-02	1.896433750e-01	-2.864960989e-05	7.223284767e-12
-2.580000000e-02	1.896433656e-01	-2.672140091e-05	8.395413985e-12
-2.590000000e-02	1.896433562e-01	-2.479319246e-05	6.088458624e-12
-2.600000000e-02	1.896433466e-01	-2.286498454e-05	3.801783286e-11
-2.610000000e-02	1.896433370e-01	-2.093677716e-05	2.106062923e-11
-2.620000000e-02	1.896433274e-01	-1.900857032e-05	1.628761535e-11
-2.630000000e-02	1.896433177e-01	-1.708036402e-05	2.391041164e-11
-2.640000000e-02	1.896433079e-01	-1.515215826e-05	1.127580286e-11
-2.650000000e-02	1.896432981e-01	-1.322395305e-05	1.037394824e-11
-2.660000000e-02	1.896432882e-01	-1.129574839e-05	9.020602944e-11
-2.670000000e-02	1.896432783e-01	-9.367544291e-06	1.870306235e-11
-2.680000000e-02	1.896432683e-01	-7.439340750e-06	3.221220583e-11
-2.690000000e-02	1.896432583e-01	-5.511137760e-06	9.037185066e-12
-2.700000000e-02	1.896432482e-01	-3.582935337e-06	9.937355059e-12
-2.710000000e-02	1.896432380e-01	-1.654733481e-06	8.990348473e-12
-2.720000000e-02	1.896432278e-01	2.734678067e-07	1.687024630e-11
-2.730000000e-02	1.896432175e-01	2.201668525e-06	9.453321057e-12
-2.740000000e-02	1.896432071e-01	4.129868682e-06	6.145762334e-11
-2.750000000e-02	1.896431967e-01	6.058068284e-06	2.636009574e-10
-2.760000000e-02	1.896431862e-01	7.986267217e-06	1.625201274e-11
-2.770000000e-02	1.896431757e-01	9.914465618e-06	1.274429274e-11
-2.780000000e-02	1.896431651e-01	1.184266343e-05	8.502216722e-12
-2.790000000e-02	1.896431545e-01	1.377086065e-05	7.672536938e-12
-2.800000000e-02	1.896431438e-01	1.569905728e-05	1.870599491e-11
-2.810000000e-02	1.896431330e-01	1.762725332e-05	4.140182044e-11
-2.820000000e-02	1.896431222e-01	1.955544876e-05	1.878517311e-11
-2.830000000e-02	1.896431114e-01	2.148364359e-05	7.563633587e-12
-2.840000000e-02	1.896431004e-01	2.341183782e-05	1.755627411e-11
-2.850000000e-02	1.896430894e-01	2.534003144e-05	2.031566470e-11
-2.860000000e-02	1.896430784e-01	2.726822446e-05	8.442739804e-12
-2.870000000e-02	1.896430673e-01	2.919641685e-05	1.841788636e-11
-2.880000000e-02	1.896430561e-01	3.112460863e-05	7.934163720e-12
-2.890000000e-02	1.896430449e-01	3.305279980e-05	1.232856623e-11
-2.900000000e-02	1.896430336e-01	3.498099033e-05	1.068975185e-11
-2.910000000e-02	1.896430222e-01	3.690918025e-05	2.228504129e-11
-2.920000000e-02	1.896430108e-01	3.883736954e-05	1.337530219e-11
-2.930000000e-02	1.896429994e-01	4.076555819e-05	1.985883679e-11
-2.940000000e-02	1.896429878e-01	4.269374624e-05	2.027349895e-10
-2.950000000e-02	1.896429763e-01	4.462193359e-05	8.521720985e-12
-2.960000000e-02	1.896429646e-01	4.655012034e-05	6.397176055e-12
-2.970000000e-02	1.896429529e-01	4.847830643e-05	8.164908350e-12
-2.980000000e-02	1.896429412e-01	5.040649189e-05	1.185466800e-11
-2.990000000e-02	1.896429293e-01	5.233467669e-05	1.625450171e-11
-3.000000000e-02	1.896429175e-01	5.426286084e-05	9.162267736e-12
