# Im(epsi1)     Re(omega/c)      Im(omega/c)      Eq(det).Opt det CON kz, R=0.5 \mum, mu_c=0.3, Re(epsi1)=3.90solve_det_conkz_vs_kz.py
0.000000000e+00	1.896614147e-01	-5.242516432e-04	6.640541944e-11
-1.000000000e-04	1.896614204e-01	-5.223233108e-04	8.535476189e-12
-2.000000000e-04	1.896614260e-01	-5.203949782e-04	2.539201982e-11
-3.000000000e-04	1.896614316e-01	-5.184666453e-04	1.112572522e-11
-4.000000000e-04	1.896614371e-01	-5.165383122e-04	1.818655044e-11
-5.000000000e-04	1.896614426e-01	-5.146099789e-04	4.145837727e-12
-6.000000000e-04	1.896614480e-01	-5.126816454e-04	9.542960318e-12
-7.000000000e-04	1.896614533e-01	-5.107533116e-04	1.132941134e-11
-8.000000000e-04	1.896614586e-01	-5.088249777e-04	5.876616667e-12
-9.000000000e-04	1.896614638e-01	-5.068966435e-04	3.785386748e-11
-1.000000000e-03	1.896614690e-01	-5.049683091e-04	3.629893437e-11
-1.100000000e-03	1.896614741e-01	-5.030399744e-04	1.042661163e-11
-1.200000000e-03	1.896614791e-01	-5.011116396e-04	1.168522719e-11
-1.300000000e-03	1.896614841e-01	-4.991833046e-04	1.268069489e-11
-1.400000000e-03	1.896614891e-01	-4.972549693e-04	5.350745378e-11
-1.500000000e-03	1.896614939e-01	-4.953266339e-04	1.138738699e-11
-1.600000000e-03	1.896614988e-01	-4.933982983e-04	1.537288616e-11
-1.700000000e-03	1.896615035e-01	-4.914699625e-04	1.751858299e-11
-1.800000000e-03	1.896615082e-01	-4.895416265e-04	2.329041023e-11
-1.900000000e-03	1.896615128e-01	-4.876132903e-04	1.011504079e-11
-2.000000000e-03	1.896615174e-01	-4.856849539e-04	1.096514876e-11
-2.100000000e-03	1.896615220e-01	-4.837566174e-04	9.256272334e-12
-2.200000000e-03	1.896615264e-01	-4.818282807e-04	3.199981016e-11
-2.300000000e-03	1.896615308e-01	-4.798999438e-04	1.081742858e-11
-2.400000000e-03	1.896615352e-01	-4.779716067e-04	2.995313647e-11
-2.500000000e-03	1.896615394e-01	-4.760432694e-04	2.270594690e-11
-2.600000000e-03	1.896615437e-01	-4.741149320e-04	2.217151013e-11
-2.700000000e-03	1.896615478e-01	-4.721865945e-04	9.050114694e-12
-2.800000000e-03	1.896615520e-01	-4.702582568e-04	1.446857856e-11
-2.900000000e-03	1.896615560e-01	-4.683299189e-04	1.438771931e-11
-3.000000000e-03	1.896615600e-01	-4.664015808e-04	1.862613528e-11
-3.100000000e-03	1.896615639e-01	-4.644732427e-04	7.744593778e-12
-3.200000000e-03	1.896615678e-01	-4.625449043e-04	3.112086649e-11
-3.300000000e-03	1.896615716e-01	-4.606165659e-04	9.398966159e-12
-3.400000000e-03	1.896615754e-01	-4.586882272e-04	3.238554759e-11
-3.500000000e-03	1.896615791e-01	-4.567598885e-04	3.633155480e-11
-3.600000000e-03	1.896615827e-01	-4.548315496e-04	2.800953611e-11
-3.700000000e-03	1.896615863e-01	-4.529032106e-04	1.595472601e-11
-3.800000000e-03	1.896615898e-01	-4.509748714e-04	5.601972225e-12
-3.900000000e-03	1.896615933e-01	-4.490465322e-04	1.839482833e-11
-4.000000000e-03	1.896615967e-01	-4.471181928e-04	1.197659184e-11
-4.100000000e-03	1.896616000e-01	-4.451898532e-04	7.973984185e-12
-4.200000000e-03	1.896616033e-01	-4.432615136e-04	1.142418455e-11
-4.300000000e-03	1.896616066e-01	-4.413331739e-04	2.635223843e-11
-4.400000000e-03	1.896616097e-01	-4.394048340e-04	6.649157506e-12
-4.500000000e-03	1.896616128e-01	-4.374764940e-04	2.285977771e-11
-4.600000000e-03	1.896616159e-01	-4.355481540e-04	1.554513846e-11
-4.700000000e-03	1.896616189e-01	-4.336198138e-04	1.326808597e-11
-4.800000000e-03	1.896616218e-01	-4.316914735e-04	6.293119499e-11
-4.900000000e-03	1.896616247e-01	-4.297631331e-04	2.087170988e-11
-5.000000000e-03	1.896616275e-01	-4.278347927e-04	1.418076528e-11
-5.100000000e-03	1.896616303e-01	-4.259064521e-04	1.192960677e-11
-5.200000000e-03	1.896616330e-01	-4.239781115e-04	1.644330628e-11
-5.300000000e-03	1.896616356e-01	-4.220497707e-04	1.074151067e-11
-5.400000000e-03	1.896616382e-01	-4.201214299e-04	1.180099557e-11
-5.500000000e-03	1.896616407e-01	-4.181930890e-04	1.121406236e-11
-5.600000000e-03	1.896616432e-01	-4.162647481e-04	1.408669920e-11
-5.700000000e-03	1.896616456e-01	-4.143364070e-04	1.176154022e-11
-5.800000000e-03	1.896616479e-01	-4.124080659e-04	1.255062571e-11
-5.900000000e-03	1.896616502e-01	-4.104797248e-04	1.023452107e-11
-6.000000000e-03	1.896616524e-01	-4.085513835e-04	1.434990654e-11
-6.100000000e-03	1.896616546e-01	-4.066230422e-04	1.009199111e-11
-6.200000000e-03	1.896616567e-01	-4.046947009e-04	1.410583914e-11
-6.300000000e-03	1.896616588e-01	-4.027663595e-04	7.169530092e-12
-6.400000000e-03	1.896616608e-01	-4.008380180e-04	2.013558554e-11
-6.500000000e-03	1.896616627e-01	-3.989096765e-04	7.351524688e-12
-6.600000000e-03	1.896616646e-01	-3.969813350e-04	1.388308027e-11
-6.700000000e-03	1.896616664e-01	-3.950529934e-04	1.038503999e-11
-6.800000000e-03	1.896616682e-01	-3.931246517e-04	6.658533655e-12
-6.900000000e-03	1.896616699e-01	-3.911963101e-04	1.185962410e-11
-7.000000000e-03	1.896616715e-01	-3.892679684e-04	4.947416978e-12
-7.100000000e-03	1.896616731e-01	-3.873396266e-04	2.503089699e-11
-7.200000000e-03	1.896616746e-01	-3.854112849e-04	1.203313085e-11
-7.300000000e-03	1.896616761e-01	-3.834829431e-04	1.149819393e-11
-7.400000000e-03	1.896616775e-01	-3.815546013e-04	6.008192095e-11
-7.500000000e-03	1.896616788e-01	-3.796262594e-04	8.741777021e-12
-7.600000000e-03	1.896616801e-01	-3.776979176e-04	1.192463155e-11
-7.700000000e-03	1.896616814e-01	-3.757695758e-04	1.448254972e-11
-7.800000000e-03	1.896616825e-01	-3.738412339e-04	1.231404640e-11
-7.900000000e-03	1.896616836e-01	-3.719128920e-04	1.781156587e-11
-8.000000000e-03	1.896616847e-01	-3.699845501e-04	1.299908467e-11
-8.100000000e-03	1.896616857e-01	-3.680562083e-04	1.710783925e-11
-8.200000000e-03	1.896616866e-01	-3.661278664e-04	1.085822071e-11
-8.300000000e-03	1.896616875e-01	-3.641995245e-04	1.591112785e-11
-8.400000000e-03	1.896616883e-01	-3.622711827e-04	3.926514722e-11
-8.500000000e-03	1.896616891e-01	-3.603428408e-04	1.427477250e-11
-8.600000000e-03	1.896616898e-01	-3.584144990e-04	1.358878620e-11
-8.700000000e-03	1.896616904e-01	-3.564861571e-04	1.307507882e-11
-8.800000000e-03	1.896616910e-01	-3.545578153e-04	1.157503990e-11
-8.900000000e-03	1.896616915e-01	-3.526294736e-04	2.995664908e-11
-9.000000000e-03	1.896616920e-01	-3.507011318e-04	1.756058598e-11
-9.100000000e-03	1.896616924e-01	-3.487727901e-04	1.229180048e-11
-9.200000000e-03	1.896616928e-01	-3.468444484e-04	9.659536514e-12
-9.300000000e-03	1.896616931e-01	-3.449161068e-04	1.164751577e-11
-9.400000000e-03	1.896616933e-01	-3.429877651e-04	6.506616422e-12
-9.500000000e-03	1.896616935e-01	-3.410594236e-04	2.024753413e-11
-9.600000000e-03	1.896616936e-01	-3.391310820e-04	7.095132913e-12
-9.700000000e-03	1.896616936e-01	-3.372027405e-04	9.854135780e-12
-9.800000000e-03	1.896616936e-01	-3.352743991e-04	1.276552879e-11
-9.900000000e-03	1.896616936e-01	-3.333460577e-04	9.881264122e-12
-1.000000000e-02	1.896616934e-01	-3.314177164e-04	1.307470519e-11
-1.010000000e-02	1.896616933e-01	-3.294893751e-04	9.400725611e-12
-1.020000000e-02	1.896616930e-01	-3.275610339e-04	1.986932960e-11
-1.030000000e-02	1.896616927e-01	-3.256326928e-04	8.711735419e-12
-1.040000000e-02	1.896616924e-01	-3.237043517e-04	1.068554183e-11
-1.050000000e-02	1.896616920e-01	-3.217760107e-04	8.588080383e-11
-1.060000000e-02	1.896616915e-01	-3.198476698e-04	1.132042034e-11
-1.070000000e-02	1.896616909e-01	-3.179193289e-04	2.030628527e-11
-1.080000000e-02	1.896616904e-01	-3.159909882e-04	5.564847573e-11
-1.090000000e-02	1.896616897e-01	-3.140626475e-04	1.791753735e-11
-1.100000000e-02	1.896616890e-01	-3.121343069e-04	2.748673147e-11
-1.110000000e-02	1.896616882e-01	-3.102059664e-04	1.058959197e-11
-1.120000000e-02	1.896616874e-01	-3.082776259e-04	1.321411519e-11
-1.130000000e-02	1.896616865e-01	-3.063492856e-04	7.724692736e-12
-1.140000000e-02	1.896616856e-01	-3.044209454e-04	1.180366085e-11
-1.150000000e-02	1.896616846e-01	-3.024926052e-04	9.128394892e-12
-1.160000000e-02	1.896616835e-01	-3.005642652e-04	1.033666796e-11
-1.170000000e-02	1.896616824e-01	-2.986359253e-04	2.545189568e-11
-1.180000000e-02	1.896616812e-01	-2.967075855e-04	1.797340322e-11
-1.190000000e-02	1.896616800e-01	-2.947792458e-04	2.419031990e-11
-1.200000000e-02	1.896616787e-01	-2.928509062e-04	4.622632941e-11
-1.210000000e-02	1.896616773e-01	-2.909225667e-04	9.859944241e-12
-1.220000000e-02	1.896616759e-01	-2.889942274e-04	1.309845898e-11
-1.230000000e-02	1.896616744e-01	-2.870658882e-04	1.713360449e-11
-1.240000000e-02	1.896616729e-01	-2.851375491e-04	3.782497610e-11
-1.250000000e-02	1.896616713e-01	-2.832092101e-04	1.475806526e-11
-1.260000000e-02	1.896616697e-01	-2.812808713e-04	7.755357681e-12
-1.270000000e-02	1.896616680e-01	-2.793525326e-04	7.899847613e-11
-1.280000000e-02	1.896616662e-01	-2.774241940e-04	7.163653673e-11
-1.290000000e-02	1.896616644e-01	-2.754958556e-04	7.761678562e-12
-1.300000000e-02	1.896616625e-01	-2.735675174e-04	8.467039530e-12
-1.310000000e-02	1.896616605e-01	-2.716391793e-04	8.058896268e-11
-1.320000000e-02	1.896616585e-01	-2.697108413e-04	5.005079945e-12
-1.330000000e-02	1.896616565e-01	-2.677825035e-04	9.012480606e-12
-1.340000000e-02	1.896616544e-01	-2.658541658e-04	1.378862882e-11
-1.350000000e-02	1.896616522e-01	-2.639258283e-04	1.359083190e-11
-1.360000000e-02	1.896616499e-01	-2.619974910e-04	2.321955402e-11
-1.370000000e-02	1.896616476e-01	-2.600691539e-04	1.561277070e-11
-1.380000000e-02	1.896616453e-01	-2.581408169e-04	3.464642737e-11
-1.390000000e-02	1.896616429e-01	-2.562124800e-04	9.480806550e-11
-1.400000000e-02	1.896616404e-01	-2.542841434e-04	1.561399517e-11
-1.410000000e-02	1.896616379e-01	-2.523558069e-04	1.314616264e-11
-1.420000000e-02	1.896616353e-01	-2.504274706e-04	1.035719501e-11
-1.430000000e-02	1.896616326e-01	-2.484991345e-04	1.672649902e-11
-1.440000000e-02	1.896616299e-01	-2.465707986e-04	7.398594486e-12
-1.450000000e-02	1.896616272e-01	-2.446424629e-04	9.876503530e-12
-1.460000000e-02	1.896616243e-01	-2.427141274e-04	2.138257056e-11
-1.470000000e-02	1.896616215e-01	-2.407857920e-04	9.256472129e-11
-1.480000000e-02	1.896616185e-01	-2.388574569e-04	1.598937008e-11
-1.490000000e-02	1.896616155e-01	-2.369291219e-04	1.155130335e-11
-1.500000000e-02	1.896616125e-01	-2.350007872e-04	1.412631880e-11
-1.510000000e-02	1.896616093e-01	-2.330724527e-04	8.692999238e-12
-1.520000000e-02	1.896616062e-01	-2.311441184e-04	1.566768881e-11
-1.530000000e-02	1.896616029e-01	-2.292157843e-04	1.006809938e-11
-1.540000000e-02	1.896615996e-01	-2.272874504e-04	6.754030327e-12
-1.550000000e-02	1.896615963e-01	-2.253591167e-04	8.800910184e-12
-1.560000000e-02	1.896615929e-01	-2.234307833e-04	1.480677794e-11
-1.570000000e-02	1.896615894e-01	-2.215024501e-04	1.082494146e-11
-1.580000000e-02	1.896615859e-01	-2.195741171e-04	4.617727967e-12
-1.590000000e-02	1.896615823e-01	-2.176457843e-04	1.197469299e-11
-1.600000000e-02	1.896615786e-01	-2.157174518e-04	8.144447759e-12
-1.610000000e-02	1.896615749e-01	-2.137891196e-04	2.951890122e-11
-1.620000000e-02	1.896615712e-01	-2.118607875e-04	1.348010474e-11
-1.630000000e-02	1.896615673e-01	-2.099324557e-04	2.085586551e-11
-1.640000000e-02	1.896615635e-01	-2.080041242e-04	1.100343341e-11
-1.650000000e-02	1.896615595e-01	-2.060757929e-04	8.141669224e-12
-1.660000000e-02	1.896615555e-01	-2.041474618e-04	1.213046938e-11
-1.670000000e-02	1.896615515e-01	-2.022191310e-04	9.784077584e-12
-1.680000000e-02	1.896615473e-01	-2.002908005e-04	4.097990161e-11
-1.690000000e-02	1.896615432e-01	-1.983624702e-04	9.884142534e-12
-1.700000000e-02	1.896615389e-01	-1.964341402e-04	1.015978263e-11
-1.710000000e-02	1.896615346e-01	-1.945058105e-04	1.457997044e-11
-1.720000000e-02	1.896615303e-01	-1.925774810e-04	6.527532589e-12
-1.730000000e-02	1.896615259e-01	-1.906491518e-04	7.730493389e-12
-1.740000000e-02	1.896615214e-01	-1.887208229e-04	2.000942110e-11
-1.750000000e-02	1.896615169e-01	-1.867924943e-04	5.011235505e-12
-1.760000000e-02	1.896615123e-01	-1.848641659e-04	8.248079043e-12
-1.770000000e-02	1.896615076e-01	-1.829358378e-04	1.361778846e-11
-1.780000000e-02	1.896615029e-01	-1.810075101e-04	7.072149840e-12
-1.790000000e-02	1.896614982e-01	-1.790791826e-04	3.833814397e-11
-1.800000000e-02	1.896614933e-01	-1.771508554e-04	1.392965827e-11
-1.810000000e-02	1.896614885e-01	-1.752225285e-04	9.552026205e-12
-1.820000000e-02	1.896614835e-01	-1.732942019e-04	1.524554543e-11
-1.830000000e-02	1.896614785e-01	-1.713658756e-04	1.708228699e-11
-1.840000000e-02	1.896614735e-01	-1.694375496e-04	1.011917654e-11
-1.850000000e-02	1.896614684e-01	-1.675092239e-04	1.672567415e-11
-1.860000000e-02	1.896614632e-01	-1.655808986e-04	3.651569609e-11
-1.870000000e-02	1.896614579e-01	-1.636525735e-04	3.650320383e-11
-1.880000000e-02	1.896614527e-01	-1.617242488e-04	2.411642880e-11
-1.890000000e-02	1.896614473e-01	-1.597959244e-04	8.414002656e-12
-1.900000000e-02	1.896614419e-01	-1.578676003e-04	2.471403946e-11
-1.910000000e-02	1.896614364e-01	-1.559392765e-04	7.909492926e-12
-1.920000000e-02	1.896614309e-01	-1.540109531e-04	1.839211146e-11
-1.930000000e-02	1.896614253e-01	-1.520826300e-04	1.035943978e-11
-1.940000000e-02	1.896614197e-01	-1.501543072e-04	7.932930713e-12
-1.950000000e-02	1.896614140e-01	-1.482259848e-04	8.885206330e-12
-1.960000000e-02	1.896614082e-01	-1.462976627e-04	8.050441356e-12
-1.970000000e-02	1.896614024e-01	-1.443693410e-04	9.612713823e-12
-1.980000000e-02	1.896613965e-01	-1.424410196e-04	6.532136009e-12
-1.990000000e-02	1.896613906e-01	-1.405126986e-04	1.284984040e-11
-2.000000000e-02	1.896613846e-01	-1.385843779e-04	4.420499113e-11
-2.010000000e-02	1.896613785e-01	-1.366560576e-04	2.935421851e-11
-2.020000000e-02	1.896613724e-01	-1.347277376e-04	1.453968825e-11
-2.030000000e-02	1.896613662e-01	-1.327994180e-04	8.142163298e-12
-2.040000000e-02	1.896613600e-01	-1.308710988e-04	2.430934125e-11
-2.050000000e-02	1.896613537e-01	-1.289427799e-04	8.728410401e-12
-2.060000000e-02	1.896613473e-01	-1.270144614e-04	8.393186964e-12
-2.070000000e-02	1.896613409e-01	-1.250861433e-04	1.473146686e-11
-2.080000000e-02	1.896613345e-01	-1.231578255e-04	3.339963889e-11
-2.090000000e-02	1.896613279e-01	-1.212295082e-04	1.660740983e-11
-2.100000000e-02	1.896613213e-01	-1.193011912e-04	1.419399186e-11
-2.110000000e-02	1.896613147e-01	-1.173728746e-04	1.655532543e-11
-2.120000000e-02	1.896613080e-01	-1.154445584e-04	1.995231957e-11
-2.130000000e-02	1.896613012e-01	-1.135162426e-04	1.295187422e-11
-2.140000000e-02	1.896612944e-01	-1.115879272e-04	1.318404200e-11
-2.150000000e-02	1.896612875e-01	-1.096596122e-04	1.532214250e-11
-2.160000000e-02	1.896612806e-01	-1.077312976e-04	9.704549631e-11
-2.170000000e-02	1.896612736e-01	-1.058029834e-04	1.523356328e-11
-2.180000000e-02	1.896612665e-01	-1.038746696e-04	5.489342565e-12
-2.190000000e-02	1.896612594e-01	-1.019463562e-04	7.150184112e-12
-2.200000000e-02	1.896612523e-01	-1.000180432e-04	9.018339257e-12
-2.210000000e-02	1.896612450e-01	-9.808973066e-05	6.146922187e-12
-2.220000000e-02	1.896612377e-01	-9.616141852e-05	1.454289229e-11
-2.230000000e-02	1.896612304e-01	-9.423310681e-05	1.348916391e-11
-2.240000000e-02	1.896612230e-01	-9.230479552e-05	5.964765344e-12
-2.250000000e-02	1.896612155e-01	-9.037648466e-05	1.171496424e-11
-2.260000000e-02	1.896612080e-01	-8.844817423e-05	1.008289010e-11
-2.270000000e-02	1.896612004e-01	-8.651986424e-05	2.034265085e-11
-2.280000000e-02	1.896611928e-01	-8.459155469e-05	2.728995715e-11
-2.290000000e-02	1.896611851e-01	-8.266324557e-05	9.592910204e-12
-2.300000000e-02	1.896611773e-01	-8.073493690e-05	5.608936399e-12
-2.310000000e-02	1.896611695e-01	-7.880662866e-05	7.881808971e-11
-2.320000000e-02	1.896611616e-01	-7.687832090e-05	1.030745296e-11
-2.330000000e-02	1.896611537e-01	-7.495001357e-05	1.355401060e-11
-2.340000000e-02	1.896611457e-01	-7.302170670e-05	1.380505940e-11
-2.350000000e-02	1.896611376e-01	-7.109340029e-05	2.053020532e-11
-2.360000000e-02	1.896611295e-01	-6.916509435e-05	1.172318941e-11
-2.370000000e-02	1.896611213e-01	-6.723678886e-05	1.679304464e-11
-2.380000000e-02	1.896611131e-01	-6.530848384e-05	3.107981407e-11
-2.390000000e-02	1.896611048e-01	-6.338017930e-05	1.617681301e-11
-2.400000000e-02	1.896610965e-01	-6.145187523e-05	9.586704783e-12
-2.410000000e-02	1.896610881e-01	-5.952357164e-05	9.886931910e-11
-2.420000000e-02	1.896610796e-01	-5.759526852e-05	9.786599356e-12
-2.430000000e-02	1.896610711e-01	-5.566696588e-05	1.963768437e-11
-2.440000000e-02	1.896610625e-01	-5.373866373e-05	2.086105981e-11
-2.450000000e-02	1.896610538e-01	-5.181036207e-05	3.081085733e-11
-2.460000000e-02	1.896610451e-01	-4.988206090e-05	9.262771077e-12
-2.470000000e-02	1.896610364e-01	-4.795376022e-05	1.917542786e-11
-2.480000000e-02	1.896610276e-01	-4.602546005e-05	1.726563334e-11
-2.490000000e-02	1.896610187e-01	-4.409716037e-05	8.603292692e-12
-2.500000000e-02	1.896610097e-01	-4.216886119e-05	5.669366298e-11
-2.510000000e-02	1.896610008e-01	-4.024056252e-05	1.898900851e-11
-2.520000000e-02	1.896609917e-01	-3.831226436e-05	1.350413011e-11
-2.530000000e-02	1.896609826e-01	-3.638396672e-05	1.508474215e-11
-2.540000000e-02	1.896609734e-01	-3.445566958e-05	1.033634303e-11
-2.550000000e-02	1.896609642e-01	-3.252737297e-05	3.734384271e-11
-2.560000000e-02	1.896609549e-01	-3.059907688e-05	1.679907139e-11
-2.570000000e-02	1.896609455e-01	-2.867078131e-05	3.092835164e-11
-2.580000000e-02	1.896609361e-01	-2.674248626e-05	7.435761263e-12
-2.590000000e-02	1.896609267e-01	-2.481419175e-05	1.169156146e-11
-2.600000000e-02	1.896609172e-01	-2.288589777e-05	1.464176830e-11
-2.610000000e-02	1.896609076e-01	-2.095760433e-05	1.130186316e-11
-2.620000000e-02	1.896608979e-01	-1.902931143e-05	1.125888534e-11
-2.630000000e-02	1.896608882e-01	-1.710101906e-05	1.605691644e-11
-2.640000000e-02	1.896608785e-01	-1.517272725e-05	8.414381451e-12
-2.650000000e-02	1.896608687e-01	-1.324443598e-05	1.480442507e-11
-2.660000000e-02	1.896608588e-01	-1.131614526e-05	7.545531330e-12
-2.670000000e-02	1.896608488e-01	-9.387855097e-06	3.638920748e-11
-2.680000000e-02	1.896608388e-01	-7.459565486e-06	8.118332423e-12
-2.690000000e-02	1.896608288e-01	-5.531276438e-06	7.241287132e-12
-2.700000000e-02	1.896608187e-01	-3.602987952e-06	4.776894635e-12
-2.710000000e-02	1.896608085e-01	-1.674700033e-06	9.195677217e-12
-2.720000000e-02	1.896607983e-01	2.535873196e-07	3.567493497e-11
-2.730000000e-02	1.896607880e-01	2.181874088e-06	7.614282395e-11
-2.740000000e-02	1.896607777e-01	4.110160301e-06	9.946809985e-12
-2.750000000e-02	1.896607672e-01	6.038445927e-06	2.353205050e-11
-2.760000000e-02	1.896607568e-01	7.966730974e-06	8.733618286e-12
-2.770000000e-02	1.896607463e-01	9.895015432e-06	2.441470430e-11
-2.780000000e-02	1.896607357e-01	1.182329931e-05	1.771917550e-11
-2.790000000e-02	1.896607250e-01	1.375158260e-05	1.883127557e-11
-2.800000000e-02	1.896607143e-01	1.567986529e-05	1.955330848e-11
-2.810000000e-02	1.896607036e-01	1.760814739e-05	1.070394578e-11
-2.820000000e-02	1.896606928e-01	1.953642889e-05	1.718861996e-11
-2.830000000e-02	1.896606819e-01	2.146470978e-05	9.892227502e-12
-2.840000000e-02	1.896606710e-01	2.339299008e-05	1.910329503e-11
-2.850000000e-02	1.896606600e-01	2.532126976e-05	2.108933904e-11
-2.860000000e-02	1.896606489e-01	2.724954883e-05	2.044197597e-11
-2.870000000e-02	1.896606378e-01	2.917782730e-05	9.114540937e-12
-2.880000000e-02	1.896606266e-01	3.110610514e-05	7.953520024e-12
-2.890000000e-02	1.896606154e-01	3.303438236e-05	7.179249196e-11
-2.900000000e-02	1.896606041e-01	3.496265897e-05	1.711719352e-11
-2.910000000e-02	1.896605928e-01	3.689093494e-05	1.492371721e-11
-2.920000000e-02	1.896605814e-01	3.881921029e-05	1.261316897e-11
-2.930000000e-02	1.896605699e-01	4.074748501e-05	1.326381543e-11
-2.940000000e-02	1.896605584e-01	4.267575909e-05	1.213436590e-11
-2.950000000e-02	1.896605468e-01	4.460403254e-05	1.422475622e-11
-2.960000000e-02	1.896605352e-01	4.653230535e-05	6.694233726e-12
-2.970000000e-02	1.896605235e-01	4.846057751e-05	4.223763831e-11
-2.980000000e-02	1.896605117e-01	5.038884902e-05	1.269798036e-11
-2.990000000e-02	1.896604999e-01	5.231711989e-05	7.832332265e-12
-3.000000000e-02	1.896604880e-01	5.424539010e-05	1.968265683e-11
