# Im(epsi1)     Re(omega/c)      Im(omega/c)      Eq(det).Opt det CON kz, R=0.5 \mum, mu_c=0.3, Re(epsi1)=3.90solve_det_conkz_vs_kz.py
0.000000000e+00	1.896706484e-01	-5.242685237e-04	1.656663113e-11
-1.000000000e-04	1.896706541e-01	-5.223401459e-04	4.960382793e-11
-2.000000000e-04	1.896706597e-01	-5.204117679e-04	3.476981555e-11
-3.000000000e-04	1.896706653e-01	-5.184833897e-04	9.830680472e-12
-4.000000000e-04	1.896706708e-01	-5.165550112e-04	2.276756768e-11
-5.000000000e-04	1.896706763e-01	-5.146266325e-04	9.905420252e-12
-6.000000000e-04	1.896706817e-01	-5.126982536e-04	2.181169624e-11
-7.000000000e-04	1.896706870e-01	-5.107698744e-04	9.459168567e-12
-8.000000000e-04	1.896706923e-01	-5.088414950e-04	1.222807062e-11
-9.000000000e-04	1.896706976e-01	-5.069131155e-04	1.441820000e-11
-1.000000000e-03	1.896707027e-01	-5.049847357e-04	5.973019985e-12
-1.100000000e-03	1.896707078e-01	-5.030563557e-04	6.872102307e-12
-1.200000000e-03	1.896707129e-01	-5.011279754e-04	9.617597079e-11
-1.300000000e-03	1.896707179e-01	-4.991995950e-04	5.405510227e-12
-1.400000000e-03	1.896707228e-01	-4.972712144e-04	1.234398748e-11
-1.500000000e-03	1.896707277e-01	-4.953428336e-04	7.299774416e-12
-1.600000000e-03	1.896707325e-01	-4.934144526e-04	5.900749686e-12
-1.700000000e-03	1.896707373e-01	-4.914860714e-04	7.772646249e-12
-1.800000000e-03	1.896707419e-01	-4.895576900e-04	1.002737827e-11
-1.900000000e-03	1.896707466e-01	-4.876293084e-04	6.074153243e-12
-2.000000000e-03	1.896707512e-01	-4.857009267e-04	1.256935745e-11
-2.100000000e-03	1.896707557e-01	-4.837725447e-04	1.019478034e-11
-2.200000000e-03	1.896707602e-01	-4.818441626e-04	7.498864983e-12
-2.300000000e-03	1.896707646e-01	-4.799157803e-04	1.581148218e-11
-2.400000000e-03	1.896707689e-01	-4.779873979e-04	1.900676688e-11
-2.500000000e-03	1.896707732e-01	-4.760590152e-04	2.501181377e-11
-2.600000000e-03	1.896707774e-01	-4.741306325e-04	8.602652600e-12
-2.700000000e-03	1.896707816e-01	-4.722022495e-04	2.497964285e-11
-2.800000000e-03	1.896707857e-01	-4.702738664e-04	1.079434871e-11
-2.900000000e-03	1.896707897e-01	-4.683454831e-04	1.387363528e-11
-3.000000000e-03	1.896707937e-01	-4.664170997e-04	1.288938236e-11
-3.100000000e-03	1.896707977e-01	-4.644887161e-04	1.596880504e-11
-3.200000000e-03	1.896708015e-01	-4.625603324e-04	4.560419214e-12
-3.300000000e-03	1.896708054e-01	-4.606319485e-04	9.356904732e-12
-3.400000000e-03	1.896708091e-01	-4.587035645e-04	1.615427704e-11
-3.500000000e-03	1.896708128e-01	-4.567751804e-04	1.526210732e-11
-3.600000000e-03	1.896708165e-01	-4.548467961e-04	1.712531956e-10
-3.700000000e-03	1.896708200e-01	-4.529184117e-04	7.566842464e-12
-3.800000000e-03	1.896708236e-01	-4.509900272e-04	1.038590554e-11
-3.900000000e-03	1.896708270e-01	-4.490616425e-04	3.202131765e-11
-4.000000000e-03	1.896708304e-01	-4.471332577e-04	9.768116519e-12
-4.100000000e-03	1.896708338e-01	-4.452048728e-04	1.292654005e-11
-4.200000000e-03	1.896708371e-01	-4.432764878e-04	1.648513519e-11
-4.300000000e-03	1.896708403e-01	-4.413481027e-04	1.971430107e-11
-4.400000000e-03	1.896708435e-01	-4.394197174e-04	1.290491313e-11
-4.500000000e-03	1.896708466e-01	-4.374913321e-04	2.599595355e-11
-4.600000000e-03	1.896708496e-01	-4.355629466e-04	3.947581726e-11
-4.700000000e-03	1.896708526e-01	-4.336345610e-04	1.438786715e-11
-4.800000000e-03	1.896708556e-01	-4.317061754e-04	6.037894866e-11
-4.900000000e-03	1.896708584e-01	-4.297777896e-04	1.396769563e-11
-5.000000000e-03	1.896708613e-01	-4.278494038e-04	3.320560635e-11
-5.100000000e-03	1.896708640e-01	-4.259210178e-04	7.800151881e-12
-5.200000000e-03	1.896708667e-01	-4.239926318e-04	2.310313198e-11
-5.300000000e-03	1.896708694e-01	-4.220642457e-04	1.417253524e-11
-5.400000000e-03	1.896708719e-01	-4.201358595e-04	9.814030315e-12
-5.500000000e-03	1.896708745e-01	-4.182074732e-04	3.844060323e-11
-5.600000000e-03	1.896708769e-01	-4.162790868e-04	1.368804646e-11
-5.700000000e-03	1.896708793e-01	-4.143507004e-04	1.211637162e-11
-5.800000000e-03	1.896708817e-01	-4.124223139e-04	1.200417012e-11
-5.900000000e-03	1.896708840e-01	-4.104939274e-04	1.271523858e-11
-6.000000000e-03	1.896708862e-01	-4.085655408e-04	1.577818519e-11
-6.100000000e-03	1.896708884e-01	-4.066371541e-04	4.410600044e-11
-6.200000000e-03	1.896708905e-01	-4.047087673e-04	1.217040166e-11
-6.300000000e-03	1.896708925e-01	-4.027803805e-04	9.814952242e-12
-6.400000000e-03	1.896708945e-01	-4.008519937e-04	2.735705426e-11
-6.500000000e-03	1.896708965e-01	-3.989236068e-04	1.864485026e-11
-6.600000000e-03	1.896708983e-01	-3.969952199e-04	1.324443293e-11
-6.700000000e-03	1.896709002e-01	-3.950668329e-04	6.475298939e-12
-6.800000000e-03	1.896709019e-01	-3.931384458e-04	1.833909558e-11
-6.900000000e-03	1.896709036e-01	-3.912100588e-04	6.179921167e-12
-7.000000000e-03	1.896709053e-01	-3.892816717e-04	1.151714462e-11
-7.100000000e-03	1.896709068e-01	-3.873532846e-04	5.460888933e-12
-7.200000000e-03	1.896709084e-01	-3.854248974e-04	1.431139627e-11
-7.300000000e-03	1.896709098e-01	-3.834965102e-04	8.046668974e-12
-7.400000000e-03	1.896709112e-01	-3.815681230e-04	1.096916386e-10
-7.500000000e-03	1.896709126e-01	-3.796397358e-04	4.227435154e-11
-7.600000000e-03	1.896709139e-01	-3.777113486e-04	2.271490616e-11
-7.700000000e-03	1.896709151e-01	-3.757829614e-04	1.292351301e-11
-7.800000000e-03	1.896709163e-01	-3.738545741e-04	1.511153132e-11
-7.900000000e-03	1.896709174e-01	-3.719261868e-04	1.227013146e-11
-8.000000000e-03	1.896709184e-01	-3.699977996e-04	1.017719498e-11
-8.100000000e-03	1.896709194e-01	-3.680694123e-04	1.636458438e-11
-8.200000000e-03	1.896709204e-01	-3.661410251e-04	7.371243144e-12
-8.300000000e-03	1.896709213e-01	-3.642126378e-04	3.593572214e-11
-8.400000000e-03	1.896709221e-01	-3.622842505e-04	6.677174714e-12
-8.500000000e-03	1.896709228e-01	-3.603558633e-04	3.843734716e-11
-8.600000000e-03	1.896709235e-01	-3.584274761e-04	2.597193531e-11
-8.700000000e-03	1.896709242e-01	-3.564990889e-04	8.281982370e-12
-8.800000000e-03	1.896709248e-01	-3.545707017e-04	8.623627554e-12
-8.900000000e-03	1.896709253e-01	-3.526423145e-04	1.232350795e-11
-9.000000000e-03	1.896709258e-01	-3.507139274e-04	7.621029149e-12
-9.100000000e-03	1.896709262e-01	-3.487855403e-04	2.384875078e-11
-9.200000000e-03	1.896709265e-01	-3.468571532e-04	1.626677675e-11
-9.300000000e-03	1.896709268e-01	-3.449287661e-04	6.978279744e-12
-9.400000000e-03	1.896709270e-01	-3.430003791e-04	1.815685697e-11
-9.500000000e-03	1.896709272e-01	-3.410719922e-04	1.490583794e-11
-9.600000000e-03	1.896709273e-01	-3.391436053e-04	1.703931494e-11
-9.700000000e-03	1.896709274e-01	-3.372152184e-04	6.725445548e-12
-9.800000000e-03	1.896709274e-01	-3.352868316e-04	9.268123722e-12
-9.900000000e-03	1.896709273e-01	-3.333584448e-04	3.534606722e-11
-1.000000000e-02	1.896709272e-01	-3.314300581e-04	5.849962617e-12
-1.010000000e-02	1.896709270e-01	-3.295016714e-04	9.354445488e-12
-1.020000000e-02	1.896709268e-01	-3.275732848e-04	2.417806577e-11
-1.030000000e-02	1.896709265e-01	-3.256448983e-04	1.943241457e-11
-1.040000000e-02	1.896709261e-01	-3.237165118e-04	1.010644375e-11
-1.050000000e-02	1.896709257e-01	-3.217881254e-04	1.649781879e-11
-1.060000000e-02	1.896709252e-01	-3.198597391e-04	1.319771114e-11
-1.070000000e-02	1.896709247e-01	-3.179313529e-04	1.506818387e-11
-1.080000000e-02	1.896709241e-01	-3.160029667e-04	1.269504984e-11
-1.090000000e-02	1.896709235e-01	-3.140745807e-04	1.211524976e-11
-1.100000000e-02	1.896709228e-01	-3.121461947e-04	2.456689330e-11
-1.110000000e-02	1.896709220e-01	-3.102178088e-04	1.294352322e-11
-1.120000000e-02	1.896709212e-01	-3.082894230e-04	1.793746355e-11
-1.130000000e-02	1.896709203e-01	-3.063610372e-04	6.586935362e-12
-1.140000000e-02	1.896709193e-01	-3.044326516e-04	1.018979948e-11
-1.150000000e-02	1.896709183e-01	-3.025042661e-04	1.549491877e-11
-1.160000000e-02	1.896709173e-01	-3.005758807e-04	2.268622767e-11
-1.170000000e-02	1.896709161e-01	-2.986474954e-04	4.808647050e-11
-1.180000000e-02	1.896709150e-01	-2.967191102e-04	5.347617301e-12
-1.190000000e-02	1.896709137e-01	-2.947907251e-04	1.592849832e-11
-1.200000000e-02	1.896709124e-01	-2.928623401e-04	1.461330955e-11
-1.210000000e-02	1.896709111e-01	-2.909339553e-04	9.905857981e-12
-1.220000000e-02	1.896709097e-01	-2.890055705e-04	1.623449630e-11
-1.230000000e-02	1.896709082e-01	-2.870771859e-04	9.333041507e-12
-1.240000000e-02	1.896709067e-01	-2.851488014e-04	2.307811753e-11
-1.250000000e-02	1.896709051e-01	-2.832204171e-04	7.274377247e-12
-1.260000000e-02	1.896709034e-01	-2.812920329e-04	1.132493249e-11
-1.270000000e-02	1.896709017e-01	-2.793636488e-04	1.204498374e-11
-1.280000000e-02	1.896708999e-01	-2.774352649e-04	5.351533504e-11
-1.290000000e-02	1.896708981e-01	-2.755068811e-04	1.189140104e-11
-1.300000000e-02	1.896708962e-01	-2.735784974e-04	2.318291869e-11
-1.310000000e-02	1.896708943e-01	-2.716501139e-04	1.223167885e-11
-1.320000000e-02	1.896708923e-01	-2.697217305e-04	2.176405822e-11
-1.330000000e-02	1.896708902e-01	-2.677933474e-04	7.664267256e-12
-1.340000000e-02	1.896708881e-01	-2.658649643e-04	7.158213330e-12
-1.350000000e-02	1.896708859e-01	-2.639365814e-04	8.168539627e-12
-1.360000000e-02	1.896708837e-01	-2.620081987e-04	1.797363596e-11
-1.370000000e-02	1.896708814e-01	-2.600798162e-04	8.631141054e-12
-1.380000000e-02	1.896708790e-01	-2.581514338e-04	1.423806481e-11
-1.390000000e-02	1.896708766e-01	-2.562230516e-04	1.148293354e-11
-1.400000000e-02	1.896708742e-01	-2.542946695e-04	7.916675098e-12
-1.410000000e-02	1.896708716e-01	-2.523662877e-04	6.923804674e-12
-1.420000000e-02	1.896708690e-01	-2.504379060e-04	6.806457389e-12
-1.430000000e-02	1.896708664e-01	-2.485095245e-04	3.040692649e-11
-1.440000000e-02	1.896708637e-01	-2.465811432e-04	2.258639098e-11
-1.450000000e-02	1.896708609e-01	-2.446527621e-04	2.103248406e-11
-1.460000000e-02	1.896708581e-01	-2.427243812e-04	1.325176523e-11
-1.470000000e-02	1.896708552e-01	-2.407960004e-04	4.569737464e-11
-1.480000000e-02	1.896708523e-01	-2.388676199e-04	7.871744626e-12
-1.490000000e-02	1.896708493e-01	-2.369392396e-04	9.722858064e-11
-1.500000000e-02	1.896708462e-01	-2.350108595e-04	1.323332983e-11
-1.510000000e-02	1.896708431e-01	-2.330824796e-04	1.010261525e-11
-1.520000000e-02	1.896708399e-01	-2.311540999e-04	8.565540330e-12
-1.530000000e-02	1.896708367e-01	-2.292257204e-04	5.683444933e-11
-1.540000000e-02	1.896708334e-01	-2.272973411e-04	1.249649953e-10
-1.550000000e-02	1.896708300e-01	-2.253689620e-04	9.338347811e-12
-1.560000000e-02	1.896708266e-01	-2.234405832e-04	5.907208834e-12
-1.570000000e-02	1.896708232e-01	-2.215122046e-04	8.391853152e-11
-1.580000000e-02	1.896708196e-01	-2.195838262e-04	6.410290155e-12
-1.590000000e-02	1.896708160e-01	-2.176554481e-04	2.033204186e-11
-1.600000000e-02	1.896708124e-01	-2.157270702e-04	6.152573594e-12
-1.610000000e-02	1.896708087e-01	-2.137986925e-04	1.106711384e-11
-1.620000000e-02	1.896708049e-01	-2.118703151e-04	8.454117257e-12
-1.630000000e-02	1.896708011e-01	-2.099419379e-04	1.920423649e-11
-1.640000000e-02	1.896707972e-01	-2.080135610e-04	8.783644114e-12
-1.650000000e-02	1.896707933e-01	-2.060851843e-04	1.046010891e-11
-1.660000000e-02	1.896707893e-01	-2.041568079e-04	1.375662602e-11
-1.670000000e-02	1.896707852e-01	-2.022284317e-04	7.236984301e-12
-1.680000000e-02	1.896707811e-01	-2.003000558e-04	3.285981030e-11
-1.690000000e-02	1.896707769e-01	-1.983716801e-04	1.021303506e-11
-1.700000000e-02	1.896707727e-01	-1.964433047e-04	6.897719682e-12
-1.710000000e-02	1.896707684e-01	-1.945149296e-04	1.467435242e-11
-1.720000000e-02	1.896707640e-01	-1.925865547e-04	1.154977034e-11
-1.730000000e-02	1.896707596e-01	-1.906581801e-04	1.477516170e-11
-1.740000000e-02	1.896707552e-01	-1.887298058e-04	2.586984598e-11
-1.750000000e-02	1.896707506e-01	-1.868014318e-04	1.146249401e-11
-1.760000000e-02	1.896707460e-01	-1.848730581e-04	1.437355047e-11
-1.770000000e-02	1.896707414e-01	-1.829446846e-04	2.776773605e-11
-1.780000000e-02	1.896707367e-01	-1.810163114e-04	1.811620649e-11
-1.790000000e-02	1.896707319e-01	-1.790879385e-04	1.206561020e-11
-1.800000000e-02	1.896707271e-01	-1.771595660e-04	1.892540864e-11
-1.810000000e-02	1.896707222e-01	-1.752311937e-04	2.180435448e-11
-1.820000000e-02	1.896707173e-01	-1.733028217e-04	1.881946209e-11
-1.830000000e-02	1.896707123e-01	-1.713744500e-04	1.784611774e-11
-1.840000000e-02	1.896707072e-01	-1.694460786e-04	2.033872707e-11
-1.850000000e-02	1.896707021e-01	-1.675177076e-04	4.039972679e-11
-1.860000000e-02	1.896706969e-01	-1.655893368e-04	1.609247294e-11
-1.870000000e-02	1.896706917e-01	-1.636609664e-04	2.495678224e-11
-1.880000000e-02	1.896706864e-01	-1.617325962e-04	3.031837349e-11
-1.890000000e-02	1.896706811e-01	-1.598042264e-04	7.917472939e-12
-1.900000000e-02	1.896706757e-01	-1.578758570e-04	5.790953763e-12
-1.910000000e-02	1.896706702e-01	-1.559474878e-04	4.755517285e-11
-1.920000000e-02	1.896706647e-01	-1.540191190e-04	1.240133591e-11
-1.930000000e-02	1.896706591e-01	-1.520907505e-04	1.385961420e-11
-1.940000000e-02	1.896706534e-01	-1.501623824e-04	1.504070601e-11
-1.950000000e-02	1.896706477e-01	-1.482340146e-04	1.595696341e-11
-1.960000000e-02	1.896706420e-01	-1.463056471e-04	9.910624254e-12
-1.970000000e-02	1.896706361e-01	-1.443772800e-04	1.364649222e-11
-1.980000000e-02	1.896706303e-01	-1.424489132e-04	6.425280545e-11
-1.990000000e-02	1.896706243e-01	-1.405205468e-04	1.635827440e-11
-2.000000000e-02	1.896706183e-01	-1.385921807e-04	3.231748966e-11
-2.010000000e-02	1.896706123e-01	-1.366638150e-04	1.139599242e-11
-2.020000000e-02	1.896706062e-01	-1.347354496e-04	9.693676492e-12
-2.030000000e-02	1.896706000e-01	-1.328070846e-04	8.520293629e-12
-2.040000000e-02	1.896705937e-01	-1.308787200e-04	1.239722928e-11
-2.050000000e-02	1.896705875e-01	-1.289503558e-04	2.326898022e-11
-2.060000000e-02	1.896705811e-01	-1.270219919e-04	4.354654887e-11
-2.070000000e-02	1.896705747e-01	-1.250936284e-04	1.321244719e-11
-2.080000000e-02	1.896705682e-01	-1.231652652e-04	3.062118416e-11
-2.090000000e-02	1.896705617e-01	-1.212369025e-04	1.321130114e-11
-2.100000000e-02	1.896705551e-01	-1.193085401e-04	1.978868461e-11
-2.110000000e-02	1.896705485e-01	-1.173801781e-04	1.391748135e-11
-2.120000000e-02	1.896705418e-01	-1.154518166e-04	1.162440811e-11
-2.130000000e-02	1.896705350e-01	-1.135234554e-04	2.638227775e-11
-2.140000000e-02	1.896705282e-01	-1.115950946e-04	2.333161307e-11
-2.150000000e-02	1.896705213e-01	-1.096667342e-04	1.511881037e-11
-2.160000000e-02	1.896705144e-01	-1.077383742e-04	9.047331675e-12
-2.170000000e-02	1.896705074e-01	-1.058100146e-04	5.925902769e-12
-2.180000000e-02	1.896705003e-01	-1.038816554e-04	2.583776139e-11
-2.190000000e-02	1.896704932e-01	-1.019532966e-04	8.530940576e-12
-2.200000000e-02	1.896704860e-01	-1.000249382e-04	2.012732994e-11
-2.210000000e-02	1.896704788e-01	-9.809658029e-05	2.486389770e-11
-2.220000000e-02	1.896704715e-01	-9.616822276e-05	6.056442143e-12
-2.230000000e-02	1.896704642e-01	-9.423986566e-05	2.607339933e-11
-2.240000000e-02	1.896704568e-01	-9.231150898e-05	1.074612940e-11
-2.250000000e-02	1.896704493e-01	-9.038315273e-05	1.912370143e-11
-2.260000000e-02	1.896704418e-01	-8.845479691e-05	1.182309908e-11
-2.270000000e-02	1.896704342e-01	-8.652644153e-05	2.141904906e-11
-2.280000000e-02	1.896704265e-01	-8.459808659e-05	1.446339617e-11
-2.290000000e-02	1.896704188e-01	-8.266973208e-05	3.008955087e-11
-2.300000000e-02	1.896704111e-01	-8.074137802e-05	1.042098530e-11
-2.310000000e-02	1.896704032e-01	-7.881302440e-05	1.115882117e-11
-2.320000000e-02	1.896703954e-01	-7.688467124e-05	1.112122689e-11
-2.330000000e-02	1.896703874e-01	-7.495631853e-05	1.446937261e-11
-2.340000000e-02	1.896703794e-01	-7.302796627e-05	8.585543420e-12
-2.350000000e-02	1.896703714e-01	-7.109961447e-05	3.477091475e-11
-2.360000000e-02	1.896703633e-01	-6.917126313e-05	1.084077806e-11
-2.370000000e-02	1.896703551e-01	-6.724291225e-05	4.336841411e-11
-2.380000000e-02	1.896703469e-01	-6.531456185e-05	2.138639223e-11
-2.390000000e-02	1.896703386e-01	-6.338621191e-05	9.223533679e-12
-2.400000000e-02	1.896703302e-01	-6.145786245e-05	1.487350269e-11
-2.410000000e-02	1.896703218e-01	-5.952951347e-05	4.364818063e-11
-2.420000000e-02	1.896703134e-01	-5.760116496e-05	1.284996852e-11
-2.430000000e-02	1.896703048e-01	-5.567281693e-05	1.084088818e-11
-2.440000000e-02	1.896702963e-01	-5.374446940e-05	1.170365385e-11
-2.450000000e-02	1.896702876e-01	-5.181612234e-05	1.105543932e-11
-2.460000000e-02	1.896702789e-01	-4.988777578e-05	1.152536596e-11
-2.470000000e-02	1.896702701e-01	-4.795942972e-05	2.515454289e-11
-2.480000000e-02	1.896702613e-01	-4.603108415e-05	1.972132551e-11
-2.490000000e-02	1.896702525e-01	-4.410273908e-05	9.155941038e-12
-2.500000000e-02	1.896702435e-01	-4.217439452e-05	1.095888425e-11
-2.510000000e-02	1.896702345e-01	-4.024605046e-05	2.530480388e-11
-2.520000000e-02	1.896702255e-01	-3.831770691e-05	5.019305877e-12
-2.530000000e-02	1.896702164e-01	-3.638936387e-05	1.658132754e-11
-2.540000000e-02	1.896702072e-01	-3.446102135e-05	9.681464790e-12
-2.550000000e-02	1.896701980e-01	-3.253267935e-05	5.990423677e-12
-2.560000000e-02	1.896701887e-01	-3.060433786e-05	7.138604557e-12
-2.570000000e-02	1.896701793e-01	-2.867599690e-05	8.229771964e-12
-2.580000000e-02	1.896701699e-01	-2.674765647e-05	5.168787981e-12
-2.590000000e-02	1.896701604e-01	-2.481931657e-05	2.698401753e-11
-2.600000000e-02	1.896701509e-01	-2.289097720e-05	1.323414129e-11
-2.610000000e-02	1.896701413e-01	-2.096263837e-05	1.243211389e-11
-2.620000000e-02	1.896701317e-01	-1.903430007e-05	2.717068935e-11
-2.630000000e-02	1.896701220e-01	-1.710596232e-05	1.801059268e-11
-2.640000000e-02	1.896701122e-01	-1.517762511e-05	1.301030166e-11
-2.650000000e-02	1.896701024e-01	-1.324928845e-05	8.678202848e-12
-2.660000000e-02	1.896700926e-01	-1.132095234e-05	3.313770473e-11
-2.670000000e-02	1.896700826e-01	-9.392616786e-06	1.280399647e-11
-2.680000000e-02	1.896700726e-01	-7.464281788e-06	9.835802425e-12
-2.690000000e-02	1.896700626e-01	-5.535947355e-06	4.862704477e-11
-2.700000000e-02	1.896700525e-01	-3.607613475e-06	6.090626671e-12
-2.710000000e-02	1.896700423e-01	-1.679280165e-06	1.313672423e-11
-2.720000000e-02	1.896700321e-01	2.490525760e-07	1.105574324e-11
-2.730000000e-02	1.896700218e-01	2.177384743e-06	2.029555128e-11
-2.740000000e-02	1.896700114e-01	4.105716340e-06	7.470586356e-12
-2.750000000e-02	1.896700010e-01	6.034047357e-06	1.118029228e-11
-2.760000000e-02	1.896699906e-01	7.962377791e-06	1.799795576e-11
-2.770000000e-02	1.896699800e-01	9.890707643e-06	4.395232695e-11
-2.780000000e-02	1.896699695e-01	1.181903691e-05	6.073532530e-12
-2.790000000e-02	1.896699588e-01	1.374736559e-05	1.039015861e-11
-2.800000000e-02	1.896699481e-01	1.567569367e-05	2.745803823e-11
-2.810000000e-02	1.896699374e-01	1.760402116e-05	6.472154292e-11
-2.820000000e-02	1.896699265e-01	1.953234805e-05	2.026872882e-11
-2.830000000e-02	1.896699157e-01	2.146067433e-05	1.391271052e-11
-2.840000000e-02	1.896699047e-01	2.338900002e-05	1.556611519e-11
-2.850000000e-02	1.896698937e-01	2.531732510e-05	2.059557267e-11
-2.860000000e-02	1.896698827e-01	2.724564956e-05	1.257598151e-11
-2.870000000e-02	1.896698716e-01	2.917397341e-05	6.997855304e-12
-2.880000000e-02	1.896698604e-01	3.110229665e-05	1.084236286e-11
-2.890000000e-02	1.896698492e-01	3.303061926e-05	1.604995126e-11
-2.900000000e-02	1.896698379e-01	3.495894126e-05	1.143915993e-11
-2.910000000e-02	1.896698266e-01	3.688726262e-05	2.834641850e-11
-2.920000000e-02	1.896698151e-01	3.881558337e-05	5.102301779e-11
-2.930000000e-02	1.896698037e-01	4.074390347e-05	1.295151969e-11
-2.940000000e-02	1.896697922e-01	4.267222295e-05	1.867912193e-11
-2.950000000e-02	1.896697806e-01	4.460054178e-05	8.055408794e-12
-2.960000000e-02	1.896697689e-01	4.652885998e-05	3.537228806e-11
-2.970000000e-02	1.896697572e-01	4.845717753e-05	5.308057525e-12
-2.980000000e-02	1.896697455e-01	5.038549444e-05	1.410993415e-11
-2.990000000e-02	1.896697337e-01	5.231381069e-05	1.967734834e-11
-3.000000000e-02	1.896697218e-01	5.424212630e-05	1.293484165e-11
