# Im(epsi1)     Re(omega/c)      Im(omega/c)      Eq(det).Opt det CON kz, R=0.5 \mum, mu_c=0.3, Re(epsi1)=3.90solve_det_conkz_vs_kz.py
0.000000000e+00	1.896439854e-01	-5.242087613e-04	1.098996391e-11
-1.000000000e-04	1.896439911e-01	-5.222805143e-04	4.049286358e-11
-2.000000000e-04	1.896439968e-01	-5.203522670e-04	1.042208264e-11
-3.000000000e-04	1.896440023e-01	-5.184240195e-04	1.307172561e-11
-4.000000000e-04	1.896440079e-01	-5.164957718e-04	6.836855859e-12
-5.000000000e-04	1.896440133e-01	-5.145675239e-04	2.001463183e-11
-6.000000000e-04	1.896440187e-01	-5.126392757e-04	1.827948186e-11
-7.000000000e-04	1.896440241e-01	-5.107110273e-04	1.060631939e-11
-8.000000000e-04	1.896440293e-01	-5.087827787e-04	4.197534699e-11
-9.000000000e-04	1.896440346e-01	-5.068545298e-04	1.231814137e-11
-1.000000000e-03	1.896440397e-01	-5.049262808e-04	1.366986096e-11
-1.100000000e-03	1.896440448e-01	-5.029980315e-04	1.327431231e-11
-1.200000000e-03	1.896440499e-01	-5.010697821e-04	8.709585206e-12
-1.300000000e-03	1.896440549e-01	-4.991415324e-04	8.573852175e-12
-1.400000000e-03	1.896440598e-01	-4.972132826e-04	1.110197068e-11
-1.500000000e-03	1.896440647e-01	-4.952850325e-04	3.017906207e-11
-1.600000000e-03	1.896440695e-01	-4.933567822e-04	1.003587504e-11
-1.700000000e-03	1.896440743e-01	-4.914285318e-04	9.613142235e-12
-1.800000000e-03	1.896440790e-01	-4.895002812e-04	8.263827682e-12
-1.900000000e-03	1.896440836e-01	-4.875720303e-04	1.022588886e-11
-2.000000000e-03	1.896440882e-01	-4.856437793e-04	8.427324086e-12
-2.100000000e-03	1.896440927e-01	-4.837155281e-04	1.383659296e-11
-2.200000000e-03	1.896440972e-01	-4.817872768e-04	1.798110220e-11
-2.300000000e-03	1.896441016e-01	-4.798590252e-04	2.456512691e-11
-2.400000000e-03	1.896441059e-01	-4.779307735e-04	1.864878599e-11
-2.500000000e-03	1.896441102e-01	-4.760025217e-04	2.463458930e-11
-2.600000000e-03	1.896441144e-01	-4.740742696e-04	1.471301922e-11
-2.700000000e-03	1.896441186e-01	-4.721460174e-04	7.108966964e-12
-2.800000000e-03	1.896441227e-01	-4.702177651e-04	1.809337819e-11
-2.900000000e-03	1.896441268e-01	-4.682895125e-04	5.585740229e-12
-3.000000000e-03	1.896441307e-01	-4.663612599e-04	9.032897688e-11
-3.100000000e-03	1.896441347e-01	-4.644330071e-04	1.081503479e-11
-3.200000000e-03	1.896441386e-01	-4.625047541e-04	1.095917734e-11
-3.300000000e-03	1.896441424e-01	-4.605765010e-04	1.165446885e-10
-3.400000000e-03	1.896441461e-01	-4.586482477e-04	1.220489469e-11
-3.500000000e-03	1.896441498e-01	-4.567199943e-04	1.141109651e-11
-3.600000000e-03	1.896441535e-01	-4.547917408e-04	1.192818215e-11
-3.700000000e-03	1.896441570e-01	-4.528634872e-04	1.283393620e-11
-3.800000000e-03	1.896441606e-01	-4.509352334e-04	6.673943076e-12
-3.900000000e-03	1.896441640e-01	-4.490069795e-04	1.827210533e-11
-4.000000000e-03	1.896441674e-01	-4.470787254e-04	6.950684750e-12
-4.100000000e-03	1.896441708e-01	-4.451504713e-04	1.807178646e-11
-4.200000000e-03	1.896441741e-01	-4.432222170e-04	1.667182853e-11
-4.300000000e-03	1.896441773e-01	-4.412939626e-04	1.042658382e-10
-4.400000000e-03	1.896441805e-01	-4.393657081e-04	1.087546334e-11
-4.500000000e-03	1.896441836e-01	-4.374374535e-04	1.041333960e-11
-4.600000000e-03	1.896441866e-01	-4.355091988e-04	9.524940752e-12
-4.700000000e-03	1.896441896e-01	-4.335809440e-04	1.500667947e-11
-4.800000000e-03	1.896441926e-01	-4.316526891e-04	8.298169916e-12
-4.900000000e-03	1.896441954e-01	-4.297244341e-04	1.066936271e-11
-5.000000000e-03	1.896441982e-01	-4.277961790e-04	1.363382192e-11
-5.100000000e-03	1.896442010e-01	-4.258679238e-04	9.380934701e-12
-5.200000000e-03	1.896442037e-01	-4.239396685e-04	5.191347005e-11
-5.300000000e-03	1.896442063e-01	-4.220114132e-04	1.297396684e-11
-5.400000000e-03	1.896442089e-01	-4.200831577e-04	2.786603624e-11
-5.500000000e-03	1.896442114e-01	-4.181549022e-04	2.676729491e-11
-5.600000000e-03	1.896442139e-01	-4.162266466e-04	1.197442100e-11
-5.700000000e-03	1.896442163e-01	-4.142983909e-04	1.674608019e-11
-5.800000000e-03	1.896442187e-01	-4.123701352e-04	1.876040800e-11
-5.900000000e-03	1.896442209e-01	-4.104418794e-04	1.441086268e-11
-6.000000000e-03	1.896442232e-01	-4.085136235e-04	1.002716439e-11
-6.100000000e-03	1.896442253e-01	-4.065853676e-04	1.073015220e-11
-6.200000000e-03	1.896442275e-01	-4.046571116e-04	1.235439143e-11
-6.300000000e-03	1.896442295e-01	-4.027288556e-04	4.572605698e-11
-6.400000000e-03	1.896442315e-01	-4.008005995e-04	3.416361424e-11
-6.500000000e-03	1.896442334e-01	-3.988723433e-04	1.281687814e-11
-6.600000000e-03	1.896442353e-01	-3.969440871e-04	7.268999555e-12
-6.700000000e-03	1.896442371e-01	-3.950158309e-04	1.182784715e-11
-6.800000000e-03	1.896442389e-01	-3.930875746e-04	1.509732804e-11
-6.900000000e-03	1.896442406e-01	-3.911593183e-04	1.098762303e-11
-7.000000000e-03	1.896442422e-01	-3.892310620e-04	1.082464333e-10
-7.100000000e-03	1.896442438e-01	-3.873028056e-04	9.329436171e-12
-7.200000000e-03	1.896442453e-01	-3.853745492e-04	1.762793095e-11
-7.300000000e-03	1.896442468e-01	-3.834462928e-04	1.173424612e-11
-7.400000000e-03	1.896442482e-01	-3.815180364e-04	8.085595224e-12
-7.500000000e-03	1.896442496e-01	-3.795897799e-04	7.132155479e-12
-7.600000000e-03	1.896442508e-01	-3.776615234e-04	2.539075816e-11
-7.700000000e-03	1.896442521e-01	-3.757332669e-04	1.299721270e-11
-7.800000000e-03	1.896442532e-01	-3.738050104e-04	2.001586044e-11
-7.900000000e-03	1.896442544e-01	-3.718767539e-04	7.122996145e-12
-8.000000000e-03	1.896442554e-01	-3.699484974e-04	8.180183496e-12
-8.100000000e-03	1.896442564e-01	-3.680202409e-04	7.459378975e-12
-8.200000000e-03	1.896442573e-01	-3.660919844e-04	2.403925373e-11
-8.300000000e-03	1.896442582e-01	-3.641637279e-04	1.794808972e-11
-8.400000000e-03	1.896442590e-01	-3.622354714e-04	2.502627232e-11
-8.500000000e-03	1.896442598e-01	-3.603072149e-04	1.742860111e-11
-8.600000000e-03	1.896442605e-01	-3.583789584e-04	6.150829032e-12
-8.700000000e-03	1.896442611e-01	-3.564507020e-04	7.272200145e-12
-8.800000000e-03	1.896442617e-01	-3.545224455e-04	1.204325345e-11
-8.900000000e-03	1.896442623e-01	-3.525941891e-04	1.092583141e-11
-9.000000000e-03	1.896442627e-01	-3.506659327e-04	1.413639064e-11
-9.100000000e-03	1.896442631e-01	-3.487376764e-04	1.284303688e-11
-9.200000000e-03	1.896442635e-01	-3.468094201e-04	1.515509661e-11
-9.300000000e-03	1.896442638e-01	-3.448811638e-04	2.758724684e-11
-9.400000000e-03	1.896442640e-01	-3.429529075e-04	2.589734962e-11
-9.500000000e-03	1.896442642e-01	-3.410246513e-04	1.282194466e-11
-9.600000000e-03	1.896442643e-01	-3.390963951e-04	1.181688538e-11
-9.700000000e-03	1.896442643e-01	-3.371681390e-04	1.451873393e-11
-9.800000000e-03	1.896442643e-01	-3.352398830e-04	7.068077228e-12
-9.900000000e-03	1.896442643e-01	-3.333116269e-04	1.873393866e-11
-1.000000000e-02	1.896442641e-01	-3.313833710e-04	1.141096890e-11
-1.010000000e-02	1.896442640e-01	-3.294551151e-04	1.109058251e-11
-1.020000000e-02	1.896442637e-01	-3.275268592e-04	2.138939451e-11
-1.030000000e-02	1.896442634e-01	-3.255986035e-04	1.561947916e-11
-1.040000000e-02	1.896442631e-01	-3.236703478e-04	1.078618905e-11
-1.050000000e-02	1.896442627e-01	-3.217420921e-04	1.004962126e-11
-1.060000000e-02	1.896442622e-01	-3.198138366e-04	7.508665722e-12
-1.070000000e-02	1.896442616e-01	-3.178855811e-04	7.460006146e-12
-1.080000000e-02	1.896442611e-01	-3.159573257e-04	5.216797731e-12
-1.090000000e-02	1.896442604e-01	-3.140290703e-04	5.465480476e-12
-1.100000000e-02	1.896442597e-01	-3.121008151e-04	8.822853621e-12
-1.110000000e-02	1.896442589e-01	-3.101725600e-04	5.212886265e-12
-1.120000000e-02	1.896442581e-01	-3.082443049e-04	1.104919125e-11
-1.130000000e-02	1.896442572e-01	-3.063160499e-04	1.457944920e-11
-1.140000000e-02	1.896442563e-01	-3.043877951e-04	1.216502989e-11
-1.150000000e-02	1.896442553e-01	-3.024595403e-04	7.072767381e-12
-1.160000000e-02	1.896442542e-01	-3.005312856e-04	4.223870322e-11
-1.170000000e-02	1.896442531e-01	-2.986030311e-04	1.398916789e-11
-1.180000000e-02	1.896442519e-01	-2.966747766e-04	1.465790705e-11
-1.190000000e-02	1.896442507e-01	-2.947465223e-04	2.994168553e-11
-1.200000000e-02	1.896442494e-01	-2.928182681e-04	1.087720002e-11
-1.210000000e-02	1.896442480e-01	-2.908900140e-04	6.123362294e-12
-1.220000000e-02	1.896442466e-01	-2.889617600e-04	1.446684633e-11
-1.230000000e-02	1.896442451e-01	-2.870335062e-04	1.014444359e-11
-1.240000000e-02	1.896442436e-01	-2.851052524e-04	3.019306388e-11
-1.250000000e-02	1.896442420e-01	-2.831769988e-04	2.345386928e-11
-1.260000000e-02	1.896442404e-01	-2.812487454e-04	2.602239427e-11
-1.270000000e-02	1.896442386e-01	-2.793204921e-04	1.190635054e-11
-1.280000000e-02	1.896442369e-01	-2.773922389e-04	4.293426789e-11
-1.290000000e-02	1.896442351e-01	-2.754639858e-04	8.929237604e-12
-1.300000000e-02	1.896442332e-01	-2.735357329e-04	1.035626819e-11
-1.310000000e-02	1.896442312e-01	-2.716074802e-04	4.787546917e-12
-1.320000000e-02	1.896442292e-01	-2.696792276e-04	2.302574071e-11
-1.330000000e-02	1.896442272e-01	-2.677509751e-04	5.563847468e-12
-1.340000000e-02	1.896442250e-01	-2.658227229e-04	1.315565755e-11
-1.350000000e-02	1.896442229e-01	-2.638944707e-04	1.540016400e-11
-1.360000000e-02	1.896442206e-01	-2.619662188e-04	2.486033973e-11
-1.370000000e-02	1.896442183e-01	-2.600379670e-04	1.580334437e-11
-1.380000000e-02	1.896442160e-01	-2.581097153e-04	1.451191991e-11
-1.390000000e-02	1.896442136e-01	-2.561814639e-04	1.344984101e-11
-1.400000000e-02	1.896442111e-01	-2.542532126e-04	1.135454390e-11
-1.410000000e-02	1.896442086e-01	-2.523249615e-04	4.040531706e-11
-1.420000000e-02	1.896442060e-01	-2.503967106e-04	1.379968845e-11
-1.430000000e-02	1.896442033e-01	-2.484684599e-04	1.114535719e-11
-1.440000000e-02	1.896442006e-01	-2.465402093e-04	3.049077774e-11
-1.450000000e-02	1.896441978e-01	-2.446119589e-04	8.345848280e-12
-1.460000000e-02	1.896441950e-01	-2.426837088e-04	1.733675063e-11
-1.470000000e-02	1.896441921e-01	-2.407554588e-04	1.217980899e-11
-1.480000000e-02	1.896441892e-01	-2.388272091e-04	1.180826109e-10
-1.490000000e-02	1.896441862e-01	-2.368989595e-04	1.707306856e-11
-1.500000000e-02	1.896441831e-01	-2.349707101e-04	1.586874299e-11
-1.510000000e-02	1.896441800e-01	-2.330424609e-04	1.159624395e-11
-1.520000000e-02	1.896441768e-01	-2.311142120e-04	2.690473144e-11
-1.530000000e-02	1.896441736e-01	-2.291859633e-04	9.931814886e-12
-1.540000000e-02	1.896441703e-01	-2.272577148e-04	1.828841982e-11
-1.550000000e-02	1.896441670e-01	-2.253294665e-04	1.809400305e-11
-1.560000000e-02	1.896441635e-01	-2.234012184e-04	1.115849944e-11
-1.570000000e-02	1.896441601e-01	-2.214729705e-04	1.483121721e-11
-1.580000000e-02	1.896441565e-01	-2.195447229e-04	6.508911992e-12
-1.590000000e-02	1.896441529e-01	-2.176164755e-04	2.165945844e-11
-1.600000000e-02	1.896441493e-01	-2.156882284e-04	9.035734201e-12
-1.610000000e-02	1.896441456e-01	-2.137599815e-04	2.524704403e-11
-1.620000000e-02	1.896441418e-01	-2.118317348e-04	7.628260715e-12
-1.630000000e-02	1.896441380e-01	-2.099034884e-04	8.928843403e-12
-1.640000000e-02	1.896441341e-01	-2.079752422e-04	8.879627615e-12
-1.650000000e-02	1.896441302e-01	-2.060469963e-04	8.254452826e-12
-1.660000000e-02	1.896441262e-01	-2.041187506e-04	7.250051910e-12
-1.670000000e-02	1.896441221e-01	-2.021905052e-04	1.104488132e-11
-1.680000000e-02	1.896441180e-01	-2.002622600e-04	6.982646479e-12
-1.690000000e-02	1.896441138e-01	-1.983340151e-04	7.967629668e-12
-1.700000000e-02	1.896441096e-01	-1.964057705e-04	8.910824285e-12
-1.710000000e-02	1.896441053e-01	-1.944775261e-04	7.553233186e-12
-1.720000000e-02	1.896441009e-01	-1.925492820e-04	2.683966051e-11
-1.730000000e-02	1.896440965e-01	-1.906210382e-04	1.664080230e-11
-1.740000000e-02	1.896440921e-01	-1.886927946e-04	1.125807552e-11
-1.750000000e-02	1.896440875e-01	-1.867645513e-04	2.590888325e-11
-1.760000000e-02	1.896440829e-01	-1.848363084e-04	8.378842828e-12
-1.770000000e-02	1.896440783e-01	-1.829080656e-04	1.770097152e-11
-1.780000000e-02	1.896440736e-01	-1.809798232e-04	1.722003485e-11
-1.790000000e-02	1.896440688e-01	-1.790515811e-04	2.018095041e-11
-1.800000000e-02	1.896440640e-01	-1.771233393e-04	7.112083016e-11
-1.810000000e-02	1.896440591e-01	-1.751950978e-04	1.523859847e-11
-1.820000000e-02	1.896440542e-01	-1.732668565e-04	2.025913202e-11
-1.830000000e-02	1.896440492e-01	-1.713386156e-04	1.368990928e-11
-1.840000000e-02	1.896440441e-01	-1.694103750e-04	6.234766127e-12
-1.850000000e-02	1.896440390e-01	-1.674821347e-04	8.330951946e-12
-1.860000000e-02	1.896440338e-01	-1.655538947e-04	1.117746904e-11
-1.870000000e-02	1.896440286e-01	-1.636256550e-04	1.361959309e-11
-1.880000000e-02	1.896440233e-01	-1.616974156e-04	1.222856283e-11
-1.890000000e-02	1.896440180e-01	-1.597691766e-04	8.880365485e-12
-1.900000000e-02	1.896440125e-01	-1.578409379e-04	9.919301042e-12
-1.910000000e-02	1.896440071e-01	-1.559126995e-04	8.619992686e-12
-1.920000000e-02	1.896440015e-01	-1.539844614e-04	1.151845959e-11
-1.930000000e-02	1.896439960e-01	-1.520562237e-04	7.077669276e-12
-1.940000000e-02	1.896439903e-01	-1.501279863e-04	1.403483915e-11
-1.950000000e-02	1.896439846e-01	-1.481997492e-04	2.157948942e-11
-1.960000000e-02	1.896439788e-01	-1.462715125e-04	1.328898865e-11
-1.970000000e-02	1.896439730e-01	-1.443432762e-04	2.353845493e-11
-1.980000000e-02	1.896439671e-01	-1.424150401e-04	3.170725686e-11
-1.990000000e-02	1.896439612e-01	-1.404868045e-04	1.377062351e-11
-2.000000000e-02	1.896439552e-01	-1.385585692e-04	1.990800383e-11
-2.010000000e-02	1.896439491e-01	-1.366303342e-04	1.744354354e-11
-2.020000000e-02	1.896439430e-01	-1.347020996e-04	1.749490942e-10
-2.030000000e-02	1.896439369e-01	-1.327738654e-04	2.939503735e-11
-2.040000000e-02	1.896439306e-01	-1.308456315e-04	1.103038784e-11
-2.050000000e-02	1.896439243e-01	-1.289173980e-04	1.238888649e-11
-2.060000000e-02	1.896439180e-01	-1.269891649e-04	8.021272409e-12
-2.070000000e-02	1.896439116e-01	-1.250609322e-04	1.403288077e-11
-2.080000000e-02	1.896439051e-01	-1.231326998e-04	8.064467586e-12
-2.090000000e-02	1.896438986e-01	-1.212044678e-04	2.060213227e-11
-2.100000000e-02	1.896438920e-01	-1.192762362e-04	1.898299668e-11
-2.110000000e-02	1.896438853e-01	-1.173480050e-04	2.136984658e-11
-2.120000000e-02	1.896438786e-01	-1.154197741e-04	6.707988174e-12
-2.130000000e-02	1.896438719e-01	-1.134915437e-04	1.295560768e-11
-2.140000000e-02	1.896438651e-01	-1.115633137e-04	1.047362157e-11
-2.150000000e-02	1.896438582e-01	-1.096350840e-04	1.428066441e-11
-2.160000000e-02	1.896438512e-01	-1.077068548e-04	8.971030682e-12
-2.170000000e-02	1.896438442e-01	-1.057786259e-04	1.239702845e-11
-2.180000000e-02	1.896438372e-01	-1.038503975e-04	1.065208413e-11
-2.190000000e-02	1.896438301e-01	-1.019221695e-04	7.579969015e-11
-2.200000000e-02	1.896438229e-01	-9.999394189e-05	1.649668403e-11
-2.210000000e-02	1.896438157e-01	-9.806571470e-05	1.064963261e-11
-2.220000000e-02	1.896438084e-01	-9.613748794e-05	4.853832574e-11
-2.230000000e-02	1.896438010e-01	-9.420926159e-05	1.916964769e-11
-2.240000000e-02	1.896437936e-01	-9.228103567e-05	8.201998314e-12
-2.250000000e-02	1.896437861e-01	-9.035281018e-05	8.447981940e-12
-2.260000000e-02	1.896437786e-01	-8.842458512e-05	1.165505978e-11
-2.270000000e-02	1.896437710e-01	-8.649636050e-05	9.907422986e-12
-2.280000000e-02	1.896437634e-01	-8.456813631e-05	9.658940830e-12
-2.290000000e-02	1.896437557e-01	-8.263991256e-05	2.326440203e-11
-2.300000000e-02	1.896437479e-01	-8.071168927e-05	1.077321938e-11
-2.310000000e-02	1.896437401e-01	-7.878346641e-05	6.615056558e-12
-2.320000000e-02	1.896437322e-01	-7.685524401e-05	8.882275306e-12
-2.330000000e-02	1.896437243e-01	-7.492702206e-05	4.668940793e-11
-2.340000000e-02	1.896437163e-01	-7.299880055e-05	1.663873362e-11
-2.350000000e-02	1.896437082e-01	-7.107057952e-05	1.284014848e-11
-2.360000000e-02	1.896437001e-01	-6.914235894e-05	1.423062393e-11
-2.370000000e-02	1.896436920e-01	-6.721413882e-05	2.493297383e-11
-2.380000000e-02	1.896436837e-01	-6.528591918e-05	1.559574423e-11
-2.390000000e-02	1.896436754e-01	-6.335770000e-05	8.885613174e-12
-2.400000000e-02	1.896436671e-01	-6.142948131e-05	2.990425930e-11
-2.410000000e-02	1.896436587e-01	-5.950126308e-05	6.365883388e-12
-2.420000000e-02	1.896436502e-01	-5.757304533e-05	3.564013858e-11
-2.430000000e-02	1.896436417e-01	-5.564482807e-05	3.046207912e-11
-2.440000000e-02	1.896436331e-01	-5.371661129e-05	8.891721929e-12
-2.450000000e-02	1.896436245e-01	-5.178839500e-05	1.427803920e-11
-2.460000000e-02	1.896436158e-01	-4.986017920e-05	1.530854220e-11
-2.470000000e-02	1.896436070e-01	-4.793196389e-05	1.345519809e-11
-2.480000000e-02	1.896435982e-01	-4.600374910e-05	7.343428802e-11
-2.490000000e-02	1.896435893e-01	-4.407553478e-05	1.613234671e-11
-2.500000000e-02	1.896435804e-01	-4.214732097e-05	9.932481776e-12
-2.510000000e-02	1.896435714e-01	-4.021910768e-05	1.445087788e-11
-2.520000000e-02	1.896435623e-01	-3.829089489e-05	1.244385551e-11
-2.530000000e-02	1.896435532e-01	-3.636268261e-05	1.519955097e-11
-2.540000000e-02	1.896435440e-01	-3.443447085e-05	5.836160892e-12
-2.550000000e-02	1.896435348e-01	-3.250625961e-05	2.032191083e-11
-2.560000000e-02	1.896435255e-01	-3.057804889e-05	1.153943011e-11
-2.570000000e-02	1.896435162e-01	-2.864983869e-05	6.903478155e-12
-2.580000000e-02	1.896435068e-01	-2.672162902e-05	5.724078993e-12
-2.590000000e-02	1.896434973e-01	-2.479341987e-05	3.535094461e-11
-2.600000000e-02	1.896434878e-01	-2.286521127e-05	1.831242266e-11
-2.610000000e-02	1.896434782e-01	-2.093700320e-05	9.009879624e-12
-2.620000000e-02	1.896434685e-01	-1.900879567e-05	3.544228613e-11
-2.630000000e-02	1.896434588e-01	-1.708058868e-05	1.224950671e-11
-2.640000000e-02	1.896434491e-01	-1.515238223e-05	9.831676912e-12
-2.650000000e-02	1.896434393e-01	-1.322417633e-05	1.099595536e-11
-2.660000000e-02	1.896434294e-01	-1.129597099e-05	1.497611208e-11
-2.670000000e-02	1.896434194e-01	-9.367766201e-06	3.188378107e-11
-2.680000000e-02	1.896434095e-01	-7.439561953e-06	3.127773403e-11
-2.690000000e-02	1.896433994e-01	-5.511358286e-06	2.376082585e-11
-2.700000000e-02	1.896433893e-01	-3.583155171e-06	9.944229503e-12
-2.710000000e-02	1.896433791e-01	-1.654952624e-06	2.165738684e-11
-2.720000000e-02	1.896433689e-01	2.732493602e-07	1.920943885e-11
-2.730000000e-02	1.896433586e-01	2.201450766e-06	1.752043371e-11
-2.740000000e-02	1.896433483e-01	4.129651587e-06	4.331343095e-11
-2.750000000e-02	1.896433378e-01	6.057851850e-06	7.606659030e-12
-2.760000000e-02	1.896433274e-01	7.986051528e-06	3.166417676e-11
-2.770000000e-02	1.896433169e-01	9.914250612e-06	6.566004937e-12
-2.780000000e-02	1.896433063e-01	1.184244912e-05	3.347489256e-11
-2.790000000e-02	1.896432956e-01	1.377064703e-05	3.834777972e-11
-2.800000000e-02	1.896432849e-01	1.569884435e-05	6.422124035e-12
-2.810000000e-02	1.896432742e-01	1.762704107e-05	1.440780931e-11
-2.820000000e-02	1.896432634e-01	1.955523719e-05	4.213432128e-11
-2.830000000e-02	1.896432525e-01	2.148343273e-05	1.586644369e-11
-2.840000000e-02	1.896432416e-01	2.341162764e-05	1.214089161e-11
-2.850000000e-02	1.896432306e-01	2.533982196e-05	2.667223304e-11
-2.860000000e-02	1.896432195e-01	2.726801566e-05	2.286527907e-11
-2.870000000e-02	1.896432084e-01	2.919620875e-05	6.492571436e-12
-2.880000000e-02	1.896431972e-01	3.112440122e-05	2.918401416e-11
-2.890000000e-02	1.896431860e-01	3.305259308e-05	4.875606841e-11
-2.900000000e-02	1.896431747e-01	3.498078430e-05	1.004039760e-11
-2.910000000e-02	1.896431634e-01	3.690897491e-05	3.442394453e-11
-2.920000000e-02	1.896431520e-01	3.883716488e-05	4.443617582e-11
-2.930000000e-02	1.896431405e-01	4.076535422e-05	1.086048532e-11
-2.940000000e-02	1.896431290e-01	4.269354293e-05	1.494058765e-11
-2.950000000e-02	1.896431174e-01	4.462173100e-05	6.747442773e-12
-2.960000000e-02	1.896431058e-01	4.654991844e-05	3.615684146e-11
-2.970000000e-02	1.896430941e-01	4.847810522e-05	1.212470939e-11
-2.980000000e-02	1.896430823e-01	5.040629137e-05	3.603103196e-11
-2.990000000e-02	1.896430705e-01	5.233447686e-05	1.188613666e-11
-3.000000000e-02	1.896430586e-01	5.426266169e-05	2.279787425e-11
