# Im(epsi1)     Re(omega/c)      Im(omega/c)      Eq(det).Opt det CON kz, R=0.5 \mum, mu_c=0.3, Re(epsi1)=3.90solve_det_conkz_vs_kz.py
0.000000000e+00	1.896945825e-01	-5.242934531e-04	4.568164194e-11
-1.000000000e-04	1.896945882e-01	-5.223649571e-04	1.701631263e-11
-2.000000000e-04	1.896945938e-01	-5.204364610e-04	7.040713863e-12
-3.000000000e-04	1.896945994e-01	-5.185079646e-04	2.167689660e-11
-4.000000000e-04	1.896946049e-01	-5.165794679e-04	2.812244979e-11
-5.000000000e-04	1.896946104e-01	-5.146509711e-04	2.771626475e-11
-6.000000000e-04	1.896946158e-01	-5.127224740e-04	2.739632094e-11
-7.000000000e-04	1.896946211e-01	-5.107939767e-04	1.405523997e-11
-8.000000000e-04	1.896946264e-01	-5.088654791e-04	1.315118352e-11
-9.000000000e-04	1.896946317e-01	-5.069369814e-04	9.992853280e-12
-1.000000000e-03	1.896946368e-01	-5.050084834e-04	8.673392185e-12
-1.100000000e-03	1.896946419e-01	-5.030799853e-04	4.524212485e-12
-1.200000000e-03	1.896946470e-01	-5.011514869e-04	3.021257050e-11
-1.300000000e-03	1.896946520e-01	-4.992229883e-04	2.505569693e-11
-1.400000000e-03	1.896946569e-01	-4.972944895e-04	1.209206242e-11
-1.500000000e-03	1.896946618e-01	-4.953659906e-04	2.610813701e-11
-1.600000000e-03	1.896946666e-01	-4.934374914e-04	9.704528818e-12
-1.700000000e-03	1.896946714e-01	-4.915089920e-04	2.252183395e-10
-1.800000000e-03	1.896946761e-01	-4.895804925e-04	2.070674168e-11
-1.900000000e-03	1.896946807e-01	-4.876519927e-04	6.355577005e-12
-2.000000000e-03	1.896946853e-01	-4.857234928e-04	1.462169482e-11
-2.100000000e-03	1.896946898e-01	-4.837949927e-04	5.665497431e-11
-2.200000000e-03	1.896946943e-01	-4.818664924e-04	1.709684863e-11
-2.300000000e-03	1.896946987e-01	-4.799379920e-04	1.979829955e-11
-2.400000000e-03	1.896947030e-01	-4.780094914e-04	9.375577419e-12
-2.500000000e-03	1.896947073e-01	-4.760809906e-04	9.409192777e-12
-2.600000000e-03	1.896947115e-01	-4.741524896e-04	2.726946345e-11
-2.700000000e-03	1.896947157e-01	-4.722239885e-04	2.568180644e-11
-2.800000000e-03	1.896947198e-01	-4.702954872e-04	1.140729869e-11
-2.900000000e-03	1.896947238e-01	-4.683669858e-04	1.799377204e-11
-3.000000000e-03	1.896947278e-01	-4.664384842e-04	1.827415889e-11
-3.100000000e-03	1.896947318e-01	-4.645099825e-04	4.052406356e-11
-3.200000000e-03	1.896947356e-01	-4.625814806e-04	7.365672192e-12
-3.300000000e-03	1.896947395e-01	-4.606529786e-04	7.974815134e-12
-3.400000000e-03	1.896947432e-01	-4.587244764e-04	6.563463266e-12
-3.500000000e-03	1.896947469e-01	-4.567959741e-04	1.111121076e-11
-3.600000000e-03	1.896947506e-01	-4.548674717e-04	3.208136373e-11
-3.700000000e-03	1.896947541e-01	-4.529389691e-04	1.707627571e-11
-3.800000000e-03	1.896947577e-01	-4.510104664e-04	8.784581747e-12
-3.900000000e-03	1.896947611e-01	-4.490819636e-04	1.451250258e-11
-4.000000000e-03	1.896947645e-01	-4.471534606e-04	7.414945954e-11
-4.100000000e-03	1.896947679e-01	-4.452249576e-04	1.035739305e-11
-4.200000000e-03	1.896947712e-01	-4.432964544e-04	1.575969155e-11
-4.300000000e-03	1.896947744e-01	-4.413679511e-04	8.171860475e-12
-4.400000000e-03	1.896947776e-01	-4.394394477e-04	1.213597395e-11
-4.500000000e-03	1.896947807e-01	-4.375109442e-04	1.149294157e-11
-4.600000000e-03	1.896947837e-01	-4.355824405e-04	3.824306840e-11
-4.700000000e-03	1.896947867e-01	-4.336539368e-04	7.521109264e-12
-4.800000000e-03	1.896947897e-01	-4.317254330e-04	5.278669408e-12
-4.900000000e-03	1.896947925e-01	-4.297969291e-04	8.241751964e-11
-5.000000000e-03	1.896947953e-01	-4.278684251e-04	2.682526506e-11
-5.100000000e-03	1.896947981e-01	-4.259399210e-04	1.755745891e-11
-5.200000000e-03	1.896948008e-01	-4.240114168e-04	8.207450429e-12
-5.300000000e-03	1.896948034e-01	-4.220829125e-04	1.771223735e-11
-5.400000000e-03	1.896948060e-01	-4.201544081e-04	1.275835851e-11
-5.500000000e-03	1.896948086e-01	-4.182259037e-04	2.272454319e-11
-5.600000000e-03	1.896948110e-01	-4.162973992e-04	1.806168407e-11
-5.700000000e-03	1.896948134e-01	-4.143688946e-04	7.247116124e-12
-5.800000000e-03	1.896948158e-01	-4.124403899e-04	5.419035114e-11
-5.900000000e-03	1.896948181e-01	-4.105118852e-04	1.497089272e-11
-6.000000000e-03	1.896948203e-01	-4.085833804e-04	1.627073279e-11
-6.100000000e-03	1.896948225e-01	-4.066548756e-04	1.183716407e-11
-6.200000000e-03	1.896948246e-01	-4.047263707e-04	3.331606497e-11
-6.300000000e-03	1.896948266e-01	-4.027978657e-04	1.717810352e-11
-6.400000000e-03	1.896948286e-01	-4.008693607e-04	8.186767930e-12
-6.500000000e-03	1.896948306e-01	-3.989408557e-04	3.783329784e-12
-6.600000000e-03	1.896948324e-01	-3.970123506e-04	2.393174784e-11
-6.700000000e-03	1.896948342e-01	-3.950838454e-04	1.128193841e-11
-6.800000000e-03	1.896948360e-01	-3.931553403e-04	1.099047533e-11
-6.900000000e-03	1.896948377e-01	-3.912268350e-04	1.108477186e-11
-7.000000000e-03	1.896948393e-01	-3.892983298e-04	9.705317979e-12
-7.100000000e-03	1.896948409e-01	-3.873698245e-04	5.235448070e-11
-7.200000000e-03	1.896948425e-01	-3.854413192e-04	1.197594129e-11
-7.300000000e-03	1.896948439e-01	-3.835128139e-04	1.714907117e-11
-7.400000000e-03	1.896948453e-01	-3.815843085e-04	1.758893338e-11
-7.500000000e-03	1.896948467e-01	-3.796558031e-04	1.604076405e-11
-7.600000000e-03	1.896948480e-01	-3.777272977e-04	1.988490819e-11
-7.700000000e-03	1.896948492e-01	-3.757987923e-04	1.323749117e-11
-7.800000000e-03	1.896948504e-01	-3.738702869e-04	7.505025119e-11
-7.900000000e-03	1.896948515e-01	-3.719417815e-04	7.277727809e-12
-8.000000000e-03	1.896948525e-01	-3.700132761e-04	8.855403466e-12
-8.100000000e-03	1.896948535e-01	-3.680847706e-04	2.702343989e-11
-8.200000000e-03	1.896948545e-01	-3.661562652e-04	9.110096757e-12
-8.300000000e-03	1.896948553e-01	-3.642277598e-04	1.594554561e-11
-8.400000000e-03	1.896948562e-01	-3.622992544e-04	1.141681105e-11
-8.500000000e-03	1.896948569e-01	-3.603707490e-04	8.535069617e-11
-8.600000000e-03	1.896948576e-01	-3.584422436e-04	1.548903022e-11
-8.700000000e-03	1.896948583e-01	-3.565137382e-04	1.061345527e-11
-8.800000000e-03	1.896948589e-01	-3.545852329e-04	7.273852542e-12
-8.900000000e-03	1.896948594e-01	-3.526567276e-04	3.236108315e-11
-9.000000000e-03	1.896948598e-01	-3.507282223e-04	1.417137402e-11
-9.100000000e-03	1.896948603e-01	-3.487997170e-04	3.602677618e-11
-9.200000000e-03	1.896948606e-01	-3.468712118e-04	1.162889086e-11
-9.300000000e-03	1.896948609e-01	-3.449427066e-04	5.633399482e-12
-9.400000000e-03	1.896948611e-01	-3.430142014e-04	2.000604881e-11
-9.500000000e-03	1.896948613e-01	-3.410856963e-04	1.051803323e-11
-9.600000000e-03	1.896948614e-01	-3.391571912e-04	7.712211761e-12
-9.700000000e-03	1.896948615e-01	-3.372286862e-04	1.318818889e-11
-9.800000000e-03	1.896948615e-01	-3.353001812e-04	1.559056375e-11
-9.900000000e-03	1.896948614e-01	-3.333716763e-04	1.432072959e-11
-1.000000000e-02	1.896948613e-01	-3.314431714e-04	2.139704714e-11
-1.010000000e-02	1.896948611e-01	-3.295146666e-04	9.366499712e-12
-1.020000000e-02	1.896948609e-01	-3.275861618e-04	4.108246068e-11
-1.030000000e-02	1.896948606e-01	-3.256576571e-04	1.203275728e-11
-1.040000000e-02	1.896948602e-01	-3.237291525e-04	1.489722635e-11
-1.050000000e-02	1.896948598e-01	-3.218006480e-04	2.256285700e-11
-1.060000000e-02	1.896948593e-01	-3.198721435e-04	1.875036123e-11
-1.070000000e-02	1.896948588e-01	-3.179436391e-04	6.409208589e-12
-1.080000000e-02	1.896948582e-01	-3.160151348e-04	1.615808835e-11
-1.090000000e-02	1.896948575e-01	-3.140866305e-04	7.139588562e-12
-1.100000000e-02	1.896948568e-01	-3.121581264e-04	1.962981645e-11
-1.110000000e-02	1.896948561e-01	-3.102296223e-04	1.037627879e-11
-1.120000000e-02	1.896948552e-01	-3.083011183e-04	1.080531037e-11
-1.130000000e-02	1.896948544e-01	-3.063726145e-04	4.246062890e-11
-1.140000000e-02	1.896948534e-01	-3.044441107e-04	5.979397275e-12
-1.150000000e-02	1.896948524e-01	-3.025156070e-04	6.233210553e-11
-1.160000000e-02	1.896948513e-01	-3.005871034e-04	1.396315636e-11
-1.170000000e-02	1.896948502e-01	-2.986586000e-04	1.507182898e-11
-1.180000000e-02	1.896948490e-01	-2.967300966e-04	3.082247380e-11
-1.190000000e-02	1.896948478e-01	-2.948015934e-04	1.292173019e-11
-1.200000000e-02	1.896948465e-01	-2.928730902e-04	6.448351497e-12
-1.210000000e-02	1.896948452e-01	-2.909445872e-04	7.582074554e-12
-1.220000000e-02	1.896948437e-01	-2.890160843e-04	1.043570733e-11
-1.230000000e-02	1.896948423e-01	-2.870875816e-04	3.143519730e-11
-1.240000000e-02	1.896948407e-01	-2.851590789e-04	1.231129632e-11
-1.250000000e-02	1.896948391e-01	-2.832305764e-04	2.594125659e-11
-1.260000000e-02	1.896948375e-01	-2.813020740e-04	6.110691271e-12
-1.270000000e-02	1.896948358e-01	-2.793735718e-04	1.350900814e-11
-1.280000000e-02	1.896948340e-01	-2.774450697e-04	7.517367728e-12
-1.290000000e-02	1.896948322e-01	-2.755165677e-04	7.665647663e-12
-1.300000000e-02	1.896948303e-01	-2.735880659e-04	7.610382442e-12
-1.310000000e-02	1.896948284e-01	-2.716595643e-04	1.839676018e-11
-1.320000000e-02	1.896948264e-01	-2.697310627e-04	3.196415342e-12
-1.330000000e-02	1.896948243e-01	-2.678025614e-04	3.211102748e-11
-1.340000000e-02	1.896948222e-01	-2.658740602e-04	1.583914788e-11
-1.350000000e-02	1.896948200e-01	-2.639455592e-04	1.529266704e-11
-1.360000000e-02	1.896948178e-01	-2.620170583e-04	1.105281284e-11
-1.370000000e-02	1.896948155e-01	-2.600885576e-04	1.127674520e-11
-1.380000000e-02	1.896948131e-01	-2.581600570e-04	1.888431740e-11
-1.390000000e-02	1.896948107e-01	-2.562315567e-04	8.553974133e-12
-1.400000000e-02	1.896948082e-01	-2.543030565e-04	2.780332771e-11
-1.410000000e-02	1.896948057e-01	-2.523745564e-04	9.376102209e-12
-1.420000000e-02	1.896948031e-01	-2.504460566e-04	7.896340026e-12
-1.430000000e-02	1.896948005e-01	-2.485175570e-04	2.048771746e-11
-1.440000000e-02	1.896947978e-01	-2.465890575e-04	7.161253452e-12
-1.450000000e-02	1.896947950e-01	-2.446605582e-04	1.153049351e-11
-1.460000000e-02	1.896947922e-01	-2.427320591e-04	1.012981733e-11
-1.470000000e-02	1.896947893e-01	-2.408035603e-04	2.248859080e-11
-1.480000000e-02	1.896947863e-01	-2.388750616e-04	1.114870237e-11
-1.490000000e-02	1.896947833e-01	-2.369465631e-04	1.525691079e-11
-1.500000000e-02	1.896947803e-01	-2.350180648e-04	1.899665539e-11
-1.510000000e-02	1.896947772e-01	-2.330895667e-04	1.337912721e-11
-1.520000000e-02	1.896947740e-01	-2.311610689e-04	1.510309541e-11
-1.530000000e-02	1.896947708e-01	-2.292325712e-04	1.078671309e-11
-1.540000000e-02	1.896947675e-01	-2.273040738e-04	1.656970554e-11
-1.550000000e-02	1.896947641e-01	-2.253755766e-04	1.784313589e-11
-1.560000000e-02	1.896947607e-01	-2.234470796e-04	1.749284462e-11
-1.570000000e-02	1.896947572e-01	-2.215185828e-04	1.229606731e-11
-1.580000000e-02	1.896947537e-01	-2.195900863e-04	1.578786253e-11
-1.590000000e-02	1.896947501e-01	-2.176615900e-04	1.454708321e-11
-1.600000000e-02	1.896947465e-01	-2.157330939e-04	1.523069212e-11
-1.610000000e-02	1.896947428e-01	-2.138045981e-04	6.530504309e-12
-1.620000000e-02	1.896947390e-01	-2.118761025e-04	9.995026446e-12
-1.630000000e-02	1.896947352e-01	-2.099476072e-04	1.186671735e-11
-1.640000000e-02	1.896947313e-01	-2.080191121e-04	7.403378238e-12
-1.650000000e-02	1.896947273e-01	-2.060906172e-04	2.315648528e-11
-1.660000000e-02	1.896947233e-01	-2.041621226e-04	3.249845411e-11
-1.670000000e-02	1.896947193e-01	-2.022336283e-04	2.270403789e-11
-1.680000000e-02	1.896947152e-01	-2.003051342e-04	1.663052689e-11
-1.690000000e-02	1.896947110e-01	-1.983766404e-04	2.833978492e-11
-1.700000000e-02	1.896947068e-01	-1.964481469e-04	8.676633040e-12
-1.710000000e-02	1.896947025e-01	-1.945196536e-04	2.167804756e-11
-1.720000000e-02	1.896946981e-01	-1.925911606e-04	1.825734373e-11
-1.730000000e-02	1.896946937e-01	-1.906626678e-04	3.430505199e-11
-1.740000000e-02	1.896946892e-01	-1.887341753e-04	1.653787983e-11
-1.750000000e-02	1.896946847e-01	-1.868056832e-04	1.669599633e-11
-1.760000000e-02	1.896946801e-01	-1.848771913e-04	8.286848282e-12
-1.770000000e-02	1.896946755e-01	-1.829486996e-04	5.728933615e-12
-1.780000000e-02	1.896946708e-01	-1.810202083e-04	1.146724518e-11
-1.790000000e-02	1.896946660e-01	-1.790917173e-04	1.133093432e-11
-1.800000000e-02	1.896946612e-01	-1.771632265e-04	1.645832481e-11
-1.810000000e-02	1.896946563e-01	-1.752347361e-04	1.145145638e-11
-1.820000000e-02	1.896946514e-01	-1.733062459e-04	1.052091341e-11
-1.830000000e-02	1.896946464e-01	-1.713777561e-04	2.115407742e-11
-1.840000000e-02	1.896946413e-01	-1.694492666e-04	2.405242856e-11
-1.850000000e-02	1.896946362e-01	-1.675207773e-04	9.868707292e-12
-1.860000000e-02	1.896946310e-01	-1.655922884e-04	7.471666684e-12
-1.870000000e-02	1.896946258e-01	-1.636637998e-04	8.793998940e-12
-1.880000000e-02	1.896946205e-01	-1.617353115e-04	1.683074512e-11
-1.890000000e-02	1.896946151e-01	-1.598068236e-04	1.497532589e-11
-1.900000000e-02	1.896946097e-01	-1.578783359e-04	5.195782954e-11
-1.910000000e-02	1.896946042e-01	-1.559498486e-04	3.209157460e-11
-1.920000000e-02	1.896945987e-01	-1.540213617e-04	5.993959050e-12
-1.930000000e-02	1.896945931e-01	-1.520928750e-04	1.021063773e-11
-1.940000000e-02	1.896945875e-01	-1.501643887e-04	2.496803986e-11
-1.950000000e-02	1.896945818e-01	-1.482359027e-04	1.889872520e-11
-1.960000000e-02	1.896945760e-01	-1.463074171e-04	1.235651185e-11
-1.970000000e-02	1.896945702e-01	-1.443789318e-04	1.209142754e-11
-1.980000000e-02	1.896945643e-01	-1.424504469e-04	3.278308625e-11
-1.990000000e-02	1.896945584e-01	-1.405219623e-04	2.906481023e-11
-2.000000000e-02	1.896945524e-01	-1.385934781e-04	8.258148568e-12
-2.010000000e-02	1.896945463e-01	-1.366649942e-04	5.248430415e-12
-2.020000000e-02	1.896945402e-01	-1.347365107e-04	1.602411800e-11
-2.030000000e-02	1.896945340e-01	-1.328080275e-04	5.288000821e-12
-2.040000000e-02	1.896945278e-01	-1.308795448e-04	9.274605314e-12
-2.050000000e-02	1.896945215e-01	-1.289510624e-04	2.098768077e-11
-2.060000000e-02	1.896945152e-01	-1.270225803e-04	1.273295786e-11
-2.070000000e-02	1.896945088e-01	-1.250940986e-04	1.378702293e-11
-2.080000000e-02	1.896945023e-01	-1.231656174e-04	1.235245769e-11
-2.090000000e-02	1.896944958e-01	-1.212371365e-04	1.581646724e-10
-2.100000000e-02	1.896944892e-01	-1.193086559e-04	9.000720980e-12
-2.110000000e-02	1.896944825e-01	-1.173801758e-04	8.265379845e-12
-2.120000000e-02	1.896944758e-01	-1.154516960e-04	4.939293359e-12
-2.130000000e-02	1.896944691e-01	-1.135232167e-04	9.200843215e-12
-2.140000000e-02	1.896944622e-01	-1.115947377e-04	5.377530911e-11
-2.150000000e-02	1.896944554e-01	-1.096662592e-04	7.407054907e-12
-2.160000000e-02	1.896944484e-01	-1.077377810e-04	5.021208525e-11
-2.170000000e-02	1.896944414e-01	-1.058093032e-04	1.094178912e-11
-2.180000000e-02	1.896944344e-01	-1.038808259e-04	9.938926799e-12
-2.190000000e-02	1.896944273e-01	-1.019523490e-04	1.212252981e-11
-2.200000000e-02	1.896944201e-01	-1.000238724e-04	9.218241048e-12
-2.210000000e-02	1.896944129e-01	-9.809539634e-05	5.772055792e-12
-2.220000000e-02	1.896944056e-01	-9.616692065e-05	1.020769670e-11
-2.230000000e-02	1.896943982e-01	-9.423844539e-05	1.587415765e-11
-2.240000000e-02	1.896943908e-01	-9.230997056e-05	4.746503882e-11
-2.250000000e-02	1.896943833e-01	-9.038149615e-05	7.791312480e-12
-2.260000000e-02	1.896943758e-01	-8.845302217e-05	2.908724468e-11
-2.270000000e-02	1.896943682e-01	-8.652454863e-05	1.145351398e-11
-2.280000000e-02	1.896943606e-01	-8.459607552e-05	1.356759308e-11
-2.290000000e-02	1.896943529e-01	-8.266760286e-05	1.213686103e-11
-2.300000000e-02	1.896943451e-01	-8.073913064e-05	2.240834920e-11
-2.310000000e-02	1.896943373e-01	-7.881065886e-05	6.679148970e-12
-2.320000000e-02	1.896943294e-01	-7.688218754e-05	6.226815527e-12
-2.330000000e-02	1.896943215e-01	-7.495371667e-05	9.409043484e-12
-2.340000000e-02	1.896943135e-01	-7.302524625e-05	1.261759175e-11
-2.350000000e-02	1.896943054e-01	-7.109677629e-05	1.141990587e-11
-2.360000000e-02	1.896942973e-01	-6.916830679e-05	1.085174271e-11
-2.370000000e-02	1.896942892e-01	-6.723983776e-05	8.574909663e-12
-2.380000000e-02	1.896942809e-01	-6.531136920e-05	1.360678245e-11
-2.390000000e-02	1.896942726e-01	-6.338290110e-05	2.125798626e-11
-2.400000000e-02	1.896942643e-01	-6.145443348e-05	2.035744896e-11
-2.410000000e-02	1.896942559e-01	-5.952596634e-05	4.099518253e-11
-2.420000000e-02	1.896942474e-01	-5.759749967e-05	1.187018333e-11
-2.430000000e-02	1.896942389e-01	-5.566903349e-05	9.994425921e-12
-2.440000000e-02	1.896942303e-01	-5.374056779e-05	1.426536750e-11
-2.450000000e-02	1.896942217e-01	-5.181210258e-05	3.791323880e-11
-2.460000000e-02	1.896942130e-01	-4.988363786e-05	2.697078237e-11
-2.470000000e-02	1.896942042e-01	-4.795517363e-05	1.082449813e-11
-2.480000000e-02	1.896941954e-01	-4.602670990e-05	9.388803830e-12
-2.490000000e-02	1.896941865e-01	-4.409824668e-05	1.051564434e-11
-2.500000000e-02	1.896941776e-01	-4.216978395e-05	1.137117556e-11
-2.510000000e-02	1.896941686e-01	-4.024132173e-05	1.830839514e-11
-2.520000000e-02	1.896941595e-01	-3.831286003e-05	1.380157541e-11
-2.530000000e-02	1.896941504e-01	-3.638439883e-05	1.521878590e-11
-2.540000000e-02	1.896941412e-01	-3.445593815e-05	1.798118174e-11
-2.550000000e-02	1.896941320e-01	-3.252747798e-05	1.804412286e-11
-2.560000000e-02	1.896941227e-01	-3.059901834e-05	1.428129314e-11
-2.570000000e-02	1.896941134e-01	-2.867055922e-05	9.135400653e-12
-2.580000000e-02	1.896941040e-01	-2.674210063e-05	1.752815808e-11
-2.590000000e-02	1.896940945e-01	-2.481364257e-05	1.333292114e-11
-2.600000000e-02	1.896940850e-01	-2.288518504e-05	1.071525469e-11
-2.610000000e-02	1.896940754e-01	-2.095672805e-05	2.319009156e-11
-2.620000000e-02	1.896940658e-01	-1.902827159e-05	1.625820584e-11
-2.630000000e-02	1.896940561e-01	-1.709981568e-05	5.856121788e-12
-2.640000000e-02	1.896940463e-01	-1.517136031e-05	1.309677026e-11
-2.650000000e-02	1.896940365e-01	-1.324290549e-05	1.874316017e-11
-2.660000000e-02	1.896940266e-01	-1.131445122e-05	1.945672413e-11
-2.670000000e-02	1.896940167e-01	-9.385997511e-06	4.910422781e-12
-2.680000000e-02	1.896940067e-01	-7.457544353e-06	1.328183092e-11
-2.690000000e-02	1.896939966e-01	-5.529091755e-06	1.508461745e-11
-2.700000000e-02	1.896939865e-01	-3.600639720e-06	1.355498859e-11
-2.710000000e-02	1.896939763e-01	-1.672188250e-06	2.738535859e-11
-2.720000000e-02	1.896939661e-01	2.562626506e-07	1.118296810e-11
-2.730000000e-02	1.896939558e-01	2.184712979e-06	1.152081975e-11
-2.740000000e-02	1.896939455e-01	4.113162733e-06	8.140092413e-12
-2.750000000e-02	1.896939351e-01	6.041611910e-06	1.735051066e-11
-2.760000000e-02	1.896939246e-01	7.970060506e-06	6.446413088e-12
-2.770000000e-02	1.896939141e-01	9.898508518e-06	1.916647625e-11
-2.780000000e-02	1.896939035e-01	1.182695594e-05	9.174219255e-12
-2.790000000e-02	1.896938929e-01	1.375540278e-05	1.661427497e-11
-2.800000000e-02	1.896938822e-01	1.568384902e-05	1.250022754e-11
-2.810000000e-02	1.896938714e-01	1.761229467e-05	2.254109445e-11
-2.820000000e-02	1.896938606e-01	1.954073972e-05	5.613102434e-12
-2.830000000e-02	1.896938497e-01	2.146918417e-05	8.924330364e-12
-2.840000000e-02	1.896938388e-01	2.339762801e-05	1.113888030e-11
-2.850000000e-02	1.896938278e-01	2.532607125e-05	2.897770677e-11
-2.860000000e-02	1.896938167e-01	2.725451387e-05	1.366523614e-11
-2.870000000e-02	1.896938056e-01	2.918295588e-05	8.783223543e-12
-2.880000000e-02	1.896937945e-01	3.111139728e-05	1.108696192e-11
-2.890000000e-02	1.896937832e-01	3.303983805e-05	3.931646848e-11
-2.900000000e-02	1.896937719e-01	3.496827819e-05	8.031364161e-10
-2.910000000e-02	1.896937606e-01	3.689671774e-05	1.073835970e-11
-2.920000000e-02	1.896937492e-01	3.882515664e-05	1.347799363e-11
-2.930000000e-02	1.896937377e-01	4.075359491e-05	3.721323381e-11
-2.940000000e-02	1.896937262e-01	4.268203254e-05	1.412176554e-11
-2.950000000e-02	1.896937146e-01	4.461046954e-05	9.915174708e-12
-2.960000000e-02	1.896937030e-01	4.653890589e-05	4.571315673e-11
-2.970000000e-02	1.896936913e-01	4.846734160e-05	1.053650621e-10
-2.980000000e-02	1.896936795e-01	5.039577667e-05	9.013113828e-12
-2.990000000e-02	1.896936677e-01	5.232421109e-05	1.209021966e-11
-3.000000000e-02	1.896936558e-01	5.425264485e-05	1.106628739e-11
