# Im(epsi1)     Re(omega/c)      Im(omega/c)      Eq(det).Opt det CON kz, R=0.5 \mum, mu_c=0.3, Re(epsi1)=3.90solve_det_conkz_vs_kz.py
0.000000000e+00	1.896424393e-01	-5.242042617e-04	6.808896340e-12
-1.000000000e-04	1.896424450e-01	-5.222760222e-04	9.535322327e-12
-2.000000000e-04	1.896424506e-01	-5.203477825e-04	5.017881412e-11
-3.000000000e-04	1.896424562e-01	-5.184195425e-04	5.805320049e-11
-4.000000000e-04	1.896424617e-01	-5.164913024e-04	1.093907149e-11
-5.000000000e-04	1.896424672e-01	-5.145630620e-04	7.502434652e-12
-6.000000000e-04	1.896424726e-01	-5.126348214e-04	1.012108599e-11
-7.000000000e-04	1.896424779e-01	-5.107065805e-04	4.900439259e-11
-8.000000000e-04	1.896424832e-01	-5.087783394e-04	1.263417785e-11
-9.000000000e-04	1.896424884e-01	-5.068500982e-04	2.854577304e-11
-1.000000000e-03	1.896424936e-01	-5.049218567e-04	1.661721660e-11
-1.100000000e-03	1.896424987e-01	-5.029936150e-04	1.022895651e-11
-1.200000000e-03	1.896425038e-01	-5.010653731e-04	3.127188891e-11
-1.300000000e-03	1.896425087e-01	-4.991371310e-04	1.099434260e-10
-1.400000000e-03	1.896425137e-01	-4.972088886e-04	8.843837277e-12
-1.500000000e-03	1.896425186e-01	-4.952806461e-04	2.891275621e-11
-1.600000000e-03	1.896425234e-01	-4.933524034e-04	1.852094044e-11
-1.700000000e-03	1.896425281e-01	-4.914241605e-04	7.724825717e-12
-1.800000000e-03	1.896425328e-01	-4.894959175e-04	1.286258623e-11
-1.900000000e-03	1.896425375e-01	-4.875676742e-04	3.403957206e-11
-2.000000000e-03	1.896425420e-01	-4.856394307e-04	8.578084701e-12
-2.100000000e-03	1.896425466e-01	-4.837111871e-04	3.984985978e-11
-2.200000000e-03	1.896425510e-01	-4.817829433e-04	1.236252731e-11
-2.300000000e-03	1.896425554e-01	-4.798546993e-04	1.032675093e-11
-2.400000000e-03	1.896425598e-01	-4.779264552e-04	2.125911119e-11
-2.500000000e-03	1.896425641e-01	-4.759982108e-04	9.174495406e-12
-2.600000000e-03	1.896425683e-01	-4.740699663e-04	2.399278483e-11
-2.700000000e-03	1.896425725e-01	-4.721417217e-04	8.724945100e-12
-2.800000000e-03	1.896425766e-01	-4.702134769e-04	8.749807492e-12
-2.900000000e-03	1.896425806e-01	-4.682852319e-04	9.326526967e-12
-3.000000000e-03	1.896425846e-01	-4.663569868e-04	1.180628272e-10
-3.100000000e-03	1.896425885e-01	-4.644287415e-04	8.146936884e-12
-3.200000000e-03	1.896425924e-01	-4.625004961e-04	2.246114193e-11
-3.300000000e-03	1.896425962e-01	-4.605722506e-04	5.325615966e-11
-3.400000000e-03	1.896426000e-01	-4.586440049e-04	1.412405540e-11
-3.500000000e-03	1.896426037e-01	-4.567157590e-04	1.621174560e-11
-3.600000000e-03	1.896426073e-01	-4.547875131e-04	6.839262745e-12
-3.700000000e-03	1.896426109e-01	-4.528592670e-04	1.258437312e-11
-3.800000000e-03	1.896426144e-01	-4.509310207e-04	6.772400409e-12
-3.900000000e-03	1.896426179e-01	-4.490027744e-04	1.606703370e-11
-4.000000000e-03	1.896426213e-01	-4.470745279e-04	9.456861306e-12
-4.100000000e-03	1.896426246e-01	-4.451462813e-04	5.710380229e-12
-4.200000000e-03	1.896426279e-01	-4.432180346e-04	1.617000088e-11
-4.300000000e-03	1.896426311e-01	-4.412897878e-04	3.002924394e-11
-4.400000000e-03	1.896426343e-01	-4.393615408e-04	1.214832698e-11
-4.500000000e-03	1.896426374e-01	-4.374332938e-04	1.567140368e-11
-4.600000000e-03	1.896426405e-01	-4.355050466e-04	8.453994211e-12
-4.700000000e-03	1.896426435e-01	-4.335767993e-04	1.754562641e-11
-4.800000000e-03	1.896426464e-01	-4.316485520e-04	1.181254786e-11
-4.900000000e-03	1.896426493e-01	-4.297203045e-04	2.049844240e-11
-5.000000000e-03	1.896426521e-01	-4.277920570e-04	5.579484574e-12
-5.100000000e-03	1.896426549e-01	-4.258638093e-04	1.721455230e-11
-5.200000000e-03	1.896426576e-01	-4.239355616e-04	4.760846616e-12
-5.300000000e-03	1.896426602e-01	-4.220073138e-04	1.321398421e-11
-5.400000000e-03	1.896426628e-01	-4.200790659e-04	1.396548405e-11
-5.500000000e-03	1.896426653e-01	-4.181508180e-04	1.286615793e-11
-5.600000000e-03	1.896426678e-01	-4.162225699e-04	3.015836132e-11
-5.700000000e-03	1.896426702e-01	-4.142943218e-04	1.341997454e-11
-5.800000000e-03	1.896426725e-01	-4.123660736e-04	1.092105728e-11
-5.900000000e-03	1.896426748e-01	-4.104378254e-04	9.600790935e-12
-6.000000000e-03	1.896426770e-01	-4.085095770e-04	1.352645042e-11
-6.100000000e-03	1.896426792e-01	-4.065813287e-04	8.838428336e-12
-6.200000000e-03	1.896426813e-01	-4.046530802e-04	8.035956828e-12
-6.300000000e-03	1.896426834e-01	-4.027248317e-04	3.526390063e-11
-6.400000000e-03	1.896426854e-01	-4.007965832e-04	5.817976388e-11
-6.500000000e-03	1.896426873e-01	-3.988683346e-04	1.159741543e-11
-6.600000000e-03	1.896426892e-01	-3.969400860e-04	1.382329071e-11
-6.700000000e-03	1.896426910e-01	-3.950118373e-04	9.917863609e-12
-6.800000000e-03	1.896426927e-01	-3.930835886e-04	4.978344740e-11
-6.900000000e-03	1.896426944e-01	-3.911553398e-04	1.006774160e-11
-7.000000000e-03	1.896426961e-01	-3.892270911e-04	1.165658334e-11
-7.100000000e-03	1.896426977e-01	-3.872988422e-04	1.537893796e-11
-7.200000000e-03	1.896426992e-01	-3.853705934e-04	1.705168937e-11
-7.300000000e-03	1.896427007e-01	-3.834423445e-04	9.425125202e-12
-7.400000000e-03	1.896427021e-01	-3.815140956e-04	4.834473105e-11
-7.500000000e-03	1.896427034e-01	-3.795858467e-04	7.096287002e-12
-7.600000000e-03	1.896427047e-01	-3.776575978e-04	7.191562212e-12
-7.700000000e-03	1.896427059e-01	-3.757293489e-04	7.430573916e-12
-7.800000000e-03	1.896427071e-01	-3.738010999e-04	1.374992538e-11
-7.900000000e-03	1.896427082e-01	-3.718728510e-04	1.023870122e-11
-8.000000000e-03	1.896427093e-01	-3.699446020e-04	1.034597395e-11
-8.100000000e-03	1.896427103e-01	-3.680163530e-04	1.735923379e-11
-8.200000000e-03	1.896427112e-01	-3.660881041e-04	1.626362213e-11
-8.300000000e-03	1.896427121e-01	-3.641598551e-04	1.373470447e-11
-8.400000000e-03	1.896427129e-01	-3.622316062e-04	3.449564686e-11
-8.500000000e-03	1.896427137e-01	-3.603033573e-04	7.278045933e-12
-8.600000000e-03	1.896427144e-01	-3.583751083e-04	1.721121280e-11
-8.700000000e-03	1.896427150e-01	-3.564468594e-04	5.609762840e-12
-8.800000000e-03	1.896427156e-01	-3.545186106e-04	1.167965815e-11
-8.900000000e-03	1.896427161e-01	-3.525903617e-04	1.456488871e-11
-9.000000000e-03	1.896427166e-01	-3.506621129e-04	9.066389460e-12
-9.100000000e-03	1.896427170e-01	-3.487338641e-04	1.049383289e-11
-9.200000000e-03	1.896427173e-01	-3.468056153e-04	1.943543524e-11
-9.300000000e-03	1.896427176e-01	-3.448773666e-04	1.380283505e-11
-9.400000000e-03	1.896427178e-01	-3.429491179e-04	9.693758513e-12
-9.500000000e-03	1.896427180e-01	-3.410208692e-04	1.932234345e-11
-9.600000000e-03	1.896427181e-01	-3.390926206e-04	1.220867814e-11
-9.700000000e-03	1.896427182e-01	-3.371643720e-04	9.437683219e-12
-9.800000000e-03	1.896427182e-01	-3.352361235e-04	1.042083085e-10
-9.900000000e-03	1.896427181e-01	-3.333078750e-04	1.703470360e-11
-1.000000000e-02	1.896427180e-01	-3.313796266e-04	1.433620751e-11
-1.010000000e-02	1.896427178e-01	-3.294513783e-04	1.197443495e-11
-1.020000000e-02	1.896427176e-01	-3.275231300e-04	1.644273471e-11
-1.030000000e-02	1.896427173e-01	-3.255948818e-04	9.174065264e-12
-1.040000000e-02	1.896427169e-01	-3.236666336e-04	1.473831437e-11
-1.050000000e-02	1.896427165e-01	-3.217383855e-04	1.710853744e-11
-1.060000000e-02	1.896427160e-01	-3.198101375e-04	9.769784131e-12
-1.070000000e-02	1.896427155e-01	-3.178818896e-04	9.124176183e-12
-1.080000000e-02	1.896427149e-01	-3.159536417e-04	1.046144936e-11
-1.090000000e-02	1.896427143e-01	-3.140253940e-04	1.919679080e-11
-1.100000000e-02	1.896427136e-01	-3.120971463e-04	3.152009666e-11
-1.110000000e-02	1.896427128e-01	-3.101688987e-04	1.637707136e-11
-1.120000000e-02	1.896427120e-01	-3.082406512e-04	7.191087751e-12
-1.130000000e-02	1.896427111e-01	-3.063124038e-04	8.729816952e-12
-1.140000000e-02	1.896427101e-01	-3.043841565e-04	6.034950103e-12
-1.150000000e-02	1.896427091e-01	-3.024559093e-04	1.271934793e-11
-1.160000000e-02	1.896427081e-01	-3.005276622e-04	9.079619318e-12
-1.170000000e-02	1.896427069e-01	-2.985994152e-04	1.306182731e-11
-1.180000000e-02	1.896427058e-01	-2.966711683e-04	3.208819527e-11
-1.190000000e-02	1.896427045e-01	-2.947429215e-04	1.816482517e-11
-1.200000000e-02	1.896427032e-01	-2.928146748e-04	7.145785625e-12
-1.210000000e-02	1.896427019e-01	-2.908864283e-04	1.296021652e-11
-1.220000000e-02	1.896427005e-01	-2.889581819e-04	1.335148765e-11
-1.230000000e-02	1.896426990e-01	-2.870299356e-04	1.567616776e-11
-1.240000000e-02	1.896426974e-01	-2.851016894e-04	2.117913971e-11
-1.250000000e-02	1.896426959e-01	-2.831734433e-04	9.090881714e-12
-1.260000000e-02	1.896426942e-01	-2.812451974e-04	2.424599118e-11
-1.270000000e-02	1.896426925e-01	-2.793169517e-04	6.618263515e-12
-1.280000000e-02	1.896426907e-01	-2.773887060e-04	1.260380886e-11
-1.290000000e-02	1.896426889e-01	-2.754604606e-04	4.555169959e-11
-1.300000000e-02	1.896426870e-01	-2.735322152e-04	7.189058987e-12
-1.310000000e-02	1.896426851e-01	-2.716039700e-04	1.472461235e-11
-1.320000000e-02	1.896426831e-01	-2.696757250e-04	8.799878960e-12
-1.330000000e-02	1.896426810e-01	-2.677474801e-04	2.167367530e-11
-1.340000000e-02	1.896426789e-01	-2.658192353e-04	6.611695045e-12
-1.350000000e-02	1.896426767e-01	-2.638909908e-04	7.435512836e-12
-1.360000000e-02	1.896426745e-01	-2.619627464e-04	5.544181597e-12
-1.370000000e-02	1.896426722e-01	-2.600345021e-04	1.235398790e-11
-1.380000000e-02	1.896426698e-01	-2.581062580e-04	2.515166821e-11
-1.390000000e-02	1.896426674e-01	-2.561780141e-04	2.622837641e-11
-1.400000000e-02	1.896426649e-01	-2.542497704e-04	2.878550486e-11
-1.410000000e-02	1.896426624e-01	-2.523215269e-04	1.377181806e-11
-1.420000000e-02	1.896426598e-01	-2.503932835e-04	1.439504654e-11
-1.430000000e-02	1.896426572e-01	-2.484650403e-04	1.224645595e-11
-1.440000000e-02	1.896426545e-01	-2.465367973e-04	9.182739753e-12
-1.450000000e-02	1.896426517e-01	-2.446085545e-04	6.844272133e-12
-1.460000000e-02	1.896426489e-01	-2.426803119e-04	9.269865731e-12
-1.470000000e-02	1.896426460e-01	-2.407520695e-04	1.328724027e-11
-1.480000000e-02	1.896426430e-01	-2.388238273e-04	8.217814489e-12
-1.490000000e-02	1.896426400e-01	-2.368955852e-04	1.235530869e-11
-1.500000000e-02	1.896426370e-01	-2.349673434e-04	6.507493518e-12
-1.510000000e-02	1.896426339e-01	-2.330391018e-04	2.810738610e-11
-1.520000000e-02	1.896426307e-01	-2.311108604e-04	1.275531672e-11
-1.530000000e-02	1.896426275e-01	-2.291826193e-04	1.472259525e-11
-1.540000000e-02	1.896426242e-01	-2.272543783e-04	1.403760369e-11
-1.550000000e-02	1.896426208e-01	-2.253261376e-04	2.564701877e-11
-1.560000000e-02	1.896426174e-01	-2.233978970e-04	1.459215314e-11
-1.570000000e-02	1.896426139e-01	-2.214696568e-04	1.063875292e-11
-1.580000000e-02	1.896426104e-01	-2.195414167e-04	2.049338001e-11
-1.590000000e-02	1.896426068e-01	-2.176131769e-04	7.438218728e-12
-1.600000000e-02	1.896426031e-01	-2.156849373e-04	6.541578408e-12
-1.610000000e-02	1.896425994e-01	-2.137566979e-04	1.642044836e-11
-1.620000000e-02	1.896425957e-01	-2.118284588e-04	1.610204750e-11
-1.630000000e-02	1.896425919e-01	-2.099002199e-04	8.792602559e-12
-1.640000000e-02	1.896425880e-01	-2.079719813e-04	1.602481228e-10
-1.650000000e-02	1.896425840e-01	-2.060437429e-04	1.201176375e-11
-1.660000000e-02	1.896425800e-01	-2.041155048e-04	1.465470491e-10
-1.670000000e-02	1.896425760e-01	-2.021872669e-04	1.208313010e-11
-1.680000000e-02	1.896425719e-01	-2.002590293e-04	1.846062969e-11
-1.690000000e-02	1.896425677e-01	-1.983307919e-04	1.487858452e-11
-1.700000000e-02	1.896425634e-01	-1.964025549e-04	1.090162899e-11
-1.710000000e-02	1.896425591e-01	-1.944743180e-04	2.658334400e-11
-1.720000000e-02	1.896425548e-01	-1.925460815e-04	1.232282446e-11
-1.730000000e-02	1.896425504e-01	-1.906178452e-04	7.884956721e-12
-1.740000000e-02	1.896425459e-01	-1.886896092e-04	1.050021869e-10
-1.750000000e-02	1.896425414e-01	-1.867613735e-04	1.180588303e-11
-1.760000000e-02	1.896425368e-01	-1.848331381e-04	5.241759612e-11
-1.770000000e-02	1.896425321e-01	-1.829049029e-04	1.498417053e-11
-1.780000000e-02	1.896425274e-01	-1.809766681e-04	2.511761679e-11
-1.790000000e-02	1.896425227e-01	-1.790484335e-04	1.056017287e-11
-1.800000000e-02	1.896425179e-01	-1.771201992e-04	7.360289637e-12
-1.810000000e-02	1.896425130e-01	-1.751919653e-04	6.834589056e-12
-1.820000000e-02	1.896425080e-01	-1.732637316e-04	1.278700017e-11
-1.830000000e-02	1.896425030e-01	-1.713354982e-04	1.290643724e-11
-1.840000000e-02	1.896424980e-01	-1.694072651e-04	1.908052810e-11
-1.850000000e-02	1.896424929e-01	-1.674790324e-04	1.712591645e-11
-1.860000000e-02	1.896424877e-01	-1.655507999e-04	2.058171965e-11
-1.870000000e-02	1.896424824e-01	-1.636225678e-04	1.007249997e-11
-1.880000000e-02	1.896424772e-01	-1.616943360e-04	1.047756746e-11
-1.890000000e-02	1.896424718e-01	-1.597661045e-04	1.020975578e-11
-1.900000000e-02	1.896424664e-01	-1.578378733e-04	2.465803641e-11
-1.910000000e-02	1.896424609e-01	-1.559096425e-04	7.280130230e-12
-1.920000000e-02	1.896424554e-01	-1.539814120e-04	8.255081310e-12
-1.930000000e-02	1.896424498e-01	-1.520531818e-04	1.180523596e-11
-1.940000000e-02	1.896424442e-01	-1.501249520e-04	9.758358849e-12
-1.950000000e-02	1.896424385e-01	-1.481967225e-04	2.852655271e-11
-1.960000000e-02	1.896424327e-01	-1.462684933e-04	9.957590206e-12
-1.970000000e-02	1.896424269e-01	-1.443402645e-04	2.023866649e-11
-1.980000000e-02	1.896424210e-01	-1.424120361e-04	8.084205973e-12
-1.990000000e-02	1.896424150e-01	-1.404838079e-04	1.081390015e-11
-2.000000000e-02	1.896424090e-01	-1.385555802e-04	9.030850705e-12
-2.010000000e-02	1.896424030e-01	-1.366273528e-04	1.541805297e-11
-2.020000000e-02	1.896423969e-01	-1.346991257e-04	7.542371046e-12
-2.030000000e-02	1.896423907e-01	-1.327708991e-04	6.966759440e-12
-2.040000000e-02	1.896423845e-01	-1.308426727e-04	3.206673993e-11
-2.050000000e-02	1.896423782e-01	-1.289144468e-04	2.404142584e-11
-2.060000000e-02	1.896423718e-01	-1.269862212e-04	2.173167399e-11
-2.070000000e-02	1.896423654e-01	-1.250579960e-04	1.225319936e-11
-2.080000000e-02	1.896423589e-01	-1.231297712e-04	1.020928483e-11
-2.090000000e-02	1.896423524e-01	-1.212015468e-04	7.106121116e-12
-2.100000000e-02	1.896423458e-01	-1.192733227e-04	1.184195602e-11
-2.110000000e-02	1.896423392e-01	-1.173450991e-04	5.740699264e-12
-2.120000000e-02	1.896423325e-01	-1.154168758e-04	2.807427067e-11
-2.130000000e-02	1.896423257e-01	-1.134886529e-04	8.481342783e-12
-2.140000000e-02	1.896423189e-01	-1.115604304e-04	9.296989152e-12
-2.150000000e-02	1.896423120e-01	-1.096322083e-04	1.181610283e-11
-2.160000000e-02	1.896423051e-01	-1.077039867e-04	2.198975950e-11
-2.170000000e-02	1.896422981e-01	-1.057757654e-04	1.619609329e-11
-2.180000000e-02	1.896422910e-01	-1.038475445e-04	9.740003773e-12
-2.190000000e-02	1.896422839e-01	-1.019193240e-04	7.980467690e-12
-2.200000000e-02	1.896422767e-01	-9.999110398e-05	8.802012096e-12
-2.210000000e-02	1.896422695e-01	-9.806288435e-05	8.381356657e-12
-2.220000000e-02	1.896422622e-01	-9.613466514e-05	5.126127560e-12
-2.230000000e-02	1.896422549e-01	-9.420644635e-05	6.338838205e-12
-2.240000000e-02	1.896422475e-01	-9.227822798e-05	1.375754474e-11
-2.250000000e-02	1.896422400e-01	-9.035001004e-05	1.222731032e-11
-2.260000000e-02	1.896422325e-01	-8.842179254e-05	9.477157852e-12
-2.270000000e-02	1.896422249e-01	-8.649357547e-05	2.261979918e-11
-2.280000000e-02	1.896422172e-01	-8.456535884e-05	1.283796097e-11
-2.290000000e-02	1.896422095e-01	-8.263714265e-05	7.461689589e-12
-2.300000000e-02	1.896422018e-01	-8.070892690e-05	1.261178612e-11
-2.310000000e-02	1.896421940e-01	-7.878071159e-05	4.593987362e-11
-2.320000000e-02	1.896421861e-01	-7.685249674e-05	3.082561347e-11
-2.330000000e-02	1.896421781e-01	-7.492428235e-05	1.540413260e-11
-2.340000000e-02	1.896421701e-01	-7.299606840e-05	1.195928323e-11
-2.350000000e-02	1.896421621e-01	-7.106785492e-05	8.141825407e-12
-2.360000000e-02	1.896421540e-01	-6.913964189e-05	3.403303660e-11
-2.370000000e-02	1.896421458e-01	-6.721142933e-05	7.777516379e-12
-2.380000000e-02	1.896421376e-01	-6.528321724e-05	6.117356765e-12
-2.390000000e-02	1.896421293e-01	-6.335500562e-05	4.508960625e-12
-2.400000000e-02	1.896421209e-01	-6.142679448e-05	7.188245565e-12
-2.410000000e-02	1.896421125e-01	-5.949858380e-05	5.075505030e-12
-2.420000000e-02	1.896421041e-01	-5.757037362e-05	5.683940168e-11
-2.430000000e-02	1.896420955e-01	-5.564216390e-05	7.947975616e-12
-2.440000000e-02	1.896420869e-01	-5.371395468e-05	1.831389730e-11
-2.450000000e-02	1.896420783e-01	-5.178574594e-05	9.763027204e-12
-2.460000000e-02	1.896420696e-01	-4.985753770e-05	5.311124995e-12
-2.470000000e-02	1.896420608e-01	-4.792932996e-05	1.115243786e-10
-2.480000000e-02	1.896420520e-01	-4.600112269e-05	1.117604060e-11
-2.490000000e-02	1.896420431e-01	-4.407291594e-05	1.322951144e-11
-2.500000000e-02	1.896420342e-01	-4.214470969e-05	2.089715459e-11
-2.510000000e-02	1.896420252e-01	-4.021650395e-05	1.203511377e-11
-2.520000000e-02	1.896420162e-01	-3.828829871e-05	1.309264626e-11
-2.530000000e-02	1.896420070e-01	-3.636009399e-05	1.648078547e-11
-2.540000000e-02	1.896419979e-01	-3.443188978e-05	1.389272460e-11
-2.550000000e-02	1.896419886e-01	-3.250368609e-05	1.959519176e-11
-2.560000000e-02	1.896419793e-01	-3.057548293e-05	1.286476221e-11
-2.570000000e-02	1.896419700e-01	-2.864728028e-05	1.968736119e-11
-2.580000000e-02	1.896419606e-01	-2.671907816e-05	1.871555631e-11
-2.590000000e-02	1.896419511e-01	-2.479087658e-05	8.360651580e-12
-2.600000000e-02	1.896419416e-01	-2.286267552e-05	1.313359658e-11
-2.610000000e-02	1.896419320e-01	-2.093447501e-05	8.214376916e-12
-2.620000000e-02	1.896419224e-01	-1.900627503e-05	1.132917522e-11
-2.630000000e-02	1.896419127e-01	-1.707807559e-05	1.649901241e-11
-2.640000000e-02	1.896419029e-01	-1.514987668e-05	8.458502337e-11
-2.650000000e-02	1.896418931e-01	-1.322167835e-05	1.168364140e-11
-2.660000000e-02	1.896418832e-01	-1.129348057e-05	3.830016554e-11
-2.670000000e-02	1.896418733e-01	-9.365283328e-06	1.052420619e-11
-2.680000000e-02	1.896418633e-01	-7.437086641e-06	1.815583753e-11
-2.690000000e-02	1.896418532e-01	-5.508890523e-06	1.185699780e-11
-2.700000000e-02	1.896418431e-01	-3.580694960e-06	2.245026311e-11
-2.710000000e-02	1.896418330e-01	-1.652499968e-06	1.743048396e-11
-2.720000000e-02	1.896418227e-01	2.756944511e-07	1.230754602e-11
-2.730000000e-02	1.896418124e-01	2.203888303e-06	1.607626973e-11
-2.740000000e-02	1.896418021e-01	4.132081582e-06	8.995744712e-12
-2.750000000e-02	1.896417917e-01	6.060274283e-06	1.559138665e-11
-2.760000000e-02	1.896417812e-01	7.988466404e-06	8.483397863e-12
-2.770000000e-02	1.896417707e-01	9.916657942e-06	1.739199541e-11
-2.780000000e-02	1.896417601e-01	1.184484888e-05	4.776327913e-11
-2.790000000e-02	1.896417495e-01	1.377303924e-05	5.866268400e-12
-2.800000000e-02	1.896417388e-01	1.570122900e-05	7.739739912e-11
-2.810000000e-02	1.896417280e-01	1.762941818e-05	1.578784818e-11
-2.820000000e-02	1.896417172e-01	1.955760675e-05	1.332538972e-11
-2.830000000e-02	1.896417063e-01	2.148579473e-05	8.923168523e-12
-2.840000000e-02	1.896416954e-01	2.341398209e-05	1.241485429e-11
-2.850000000e-02	1.896416844e-01	2.534216884e-05	1.405804725e-11
-2.860000000e-02	1.896416733e-01	2.727035500e-05	1.254458033e-11
-2.870000000e-02	1.896416622e-01	2.919854053e-05	9.811272217e-12
-2.880000000e-02	1.896416511e-01	3.112672545e-05	1.845020395e-11
-2.890000000e-02	1.896416398e-01	3.305490975e-05	4.365901628e-11
-2.900000000e-02	1.896416285e-01	3.498309342e-05	1.430484151e-11
-2.910000000e-02	1.896416172e-01	3.691127647e-05	2.099950868e-11
-2.920000000e-02	1.896416058e-01	3.883945889e-05	1.924963962e-11
-2.930000000e-02	1.896415943e-01	4.076764068e-05	1.535082903e-11
-2.940000000e-02	1.896415828e-01	4.269582184e-05	6.798123747e-11
-2.950000000e-02	1.896415712e-01	4.462400237e-05	6.651714011e-11
-2.960000000e-02	1.896415596e-01	4.655218223e-05	8.496809895e-12
-2.970000000e-02	1.896415479e-01	4.848036146e-05	1.010319718e-11
-2.980000000e-02	1.896415361e-01	5.040854005e-05	2.626395661e-11
-2.990000000e-02	1.896415243e-01	5.233671799e-05	1.097708473e-11
-3.000000000e-02	1.896415124e-01	5.426489527e-05	2.417480591e-11
