# Im(epsi1)     Re(omega/c)      Im(omega/c)      Eq(det).Opt det CON kz, R=0.5 \mum, mu_c=0.3, Re(epsi1)=3.90solve_det_conkz_vs_kz.py
0.000000000e+00	1.896683121e-01	-5.242646347e-04	2.340110487e-11
-1.000000000e-04	1.896683178e-01	-5.223362684e-04	1.322460219e-11
-2.000000000e-04	1.896683234e-01	-5.204079019e-04	1.062086202e-11
-3.000000000e-04	1.896683290e-01	-5.184795351e-04	1.226067800e-11
-4.000000000e-04	1.896683345e-01	-5.165511682e-04	1.274754520e-11
-5.000000000e-04	1.896683400e-01	-5.146228009e-04	9.988462426e-12
-6.000000000e-04	1.896683454e-01	-5.126944335e-04	1.088561484e-11
-7.000000000e-04	1.896683507e-01	-5.107660659e-04	1.128042898e-11
-8.000000000e-04	1.896683560e-01	-5.088376980e-04	1.089094546e-11
-9.000000000e-04	1.896683612e-01	-5.069093299e-04	8.419565853e-12
-1.000000000e-03	1.896683664e-01	-5.049809616e-04	1.109629460e-11
-1.100000000e-03	1.896683715e-01	-5.030525931e-04	6.746224497e-12
-1.200000000e-03	1.896683765e-01	-5.011242244e-04	2.021802590e-11
-1.300000000e-03	1.896683815e-01	-4.991958554e-04	4.190148827e-11
-1.400000000e-03	1.896683865e-01	-4.972674863e-04	8.422768666e-11
-1.500000000e-03	1.896683913e-01	-4.953391170e-04	1.233230727e-11
-1.600000000e-03	1.896683962e-01	-4.934107475e-04	5.801928318e-12
-1.700000000e-03	1.896684009e-01	-4.914823778e-04	9.717870631e-12
-1.800000000e-03	1.896684056e-01	-4.895540079e-04	2.006410646e-11
-1.900000000e-03	1.896684103e-01	-4.876256378e-04	2.778877754e-11
-2.000000000e-03	1.896684148e-01	-4.856972675e-04	1.437411883e-11
-2.100000000e-03	1.896684194e-01	-4.837688971e-04	2.097725676e-11
-2.200000000e-03	1.896684238e-01	-4.818405265e-04	5.765009450e-12
-2.300000000e-03	1.896684282e-01	-4.799121557e-04	6.979497144e-12
-2.400000000e-03	1.896684326e-01	-4.779837847e-04	6.907560309e-12
-2.500000000e-03	1.896684369e-01	-4.760554136e-04	1.973084022e-11
-2.600000000e-03	1.896684411e-01	-4.741270423e-04	6.218809886e-12
-2.700000000e-03	1.896684453e-01	-4.721986708e-04	1.220035540e-11
-2.800000000e-03	1.896684494e-01	-4.702702992e-04	7.002671523e-12
-2.900000000e-03	1.896684534e-01	-4.683419275e-04	1.775158385e-11
-3.000000000e-03	1.896684574e-01	-4.664135555e-04	6.920857261e-12
-3.100000000e-03	1.896684613e-01	-4.644851835e-04	1.027201569e-11
-3.200000000e-03	1.896684652e-01	-4.625568112e-04	1.281396579e-11
-3.300000000e-03	1.896684690e-01	-4.606284389e-04	7.602592914e-12
-3.400000000e-03	1.896684728e-01	-4.587000664e-04	8.880292653e-12
-3.500000000e-03	1.896684765e-01	-4.567716937e-04	1.067429232e-11
-3.600000000e-03	1.896684801e-01	-4.548433209e-04	7.628633438e-12
-3.700000000e-03	1.896684837e-01	-4.529149480e-04	2.582209640e-11
-3.800000000e-03	1.896684872e-01	-4.509865750e-04	1.282487453e-11
-3.900000000e-03	1.896684907e-01	-4.490582018e-04	3.038971866e-11
-4.000000000e-03	1.896684941e-01	-4.471298285e-04	7.092619888e-12
-4.100000000e-03	1.896684974e-01	-4.452014551e-04	1.404477301e-11
-4.200000000e-03	1.896685007e-01	-4.432730816e-04	1.219431912e-11
-4.300000000e-03	1.896685040e-01	-4.413447079e-04	1.901676004e-11
-4.400000000e-03	1.896685071e-01	-4.394163342e-04	1.891269102e-11
-4.500000000e-03	1.896685102e-01	-4.374879603e-04	9.989506477e-12
-4.600000000e-03	1.896685133e-01	-4.355595863e-04	7.581415072e-12
-4.700000000e-03	1.896685163e-01	-4.336312123e-04	9.182813150e-12
-4.800000000e-03	1.896685192e-01	-4.317028381e-04	1.768543208e-11
-4.900000000e-03	1.896685221e-01	-4.297744638e-04	1.233922495e-11
-5.000000000e-03	1.896685249e-01	-4.278460895e-04	9.054896038e-12
-5.100000000e-03	1.896685277e-01	-4.259177150e-04	7.081063830e-12
-5.200000000e-03	1.896685304e-01	-4.239893405e-04	1.404042237e-11
-5.300000000e-03	1.896685330e-01	-4.220609659e-04	1.077688903e-11
-5.400000000e-03	1.896685356e-01	-4.201325912e-04	1.135385427e-11
-5.500000000e-03	1.896685381e-01	-4.182042164e-04	2.352269644e-11
-5.600000000e-03	1.896685406e-01	-4.162758415e-04	1.213647307e-11
-5.700000000e-03	1.896685430e-01	-4.143474666e-04	1.312276667e-11
-5.800000000e-03	1.896685453e-01	-4.124190916e-04	9.907739851e-12
-5.900000000e-03	1.896685476e-01	-4.104907166e-04	3.126258118e-11
-6.000000000e-03	1.896685499e-01	-4.085623414e-04	3.417975562e-11
-6.100000000e-03	1.896685520e-01	-4.066339662e-04	1.129531684e-11
-6.200000000e-03	1.896685541e-01	-4.047055910e-04	8.100684095e-12
-6.300000000e-03	1.896685562e-01	-4.027772157e-04	1.010687651e-11
-6.400000000e-03	1.896685582e-01	-4.008488403e-04	7.458343712e-12
-6.500000000e-03	1.896685601e-01	-3.989204649e-04	1.728445013e-11
-6.600000000e-03	1.896685620e-01	-3.969920895e-04	1.441267078e-11
-6.700000000e-03	1.896685638e-01	-3.950637140e-04	3.389850708e-11
-6.800000000e-03	1.896685656e-01	-3.931353385e-04	5.455281351e-11
-6.900000000e-03	1.896685673e-01	-3.912069629e-04	4.212397086e-11
-7.000000000e-03	1.896685689e-01	-3.892785873e-04	1.688762916e-11
-7.100000000e-03	1.896685705e-01	-3.873502117e-04	1.052844370e-11
-7.200000000e-03	1.896685720e-01	-3.854218360e-04	1.593872309e-11
-7.300000000e-03	1.896685735e-01	-3.834934604e-04	8.611616072e-12
-7.400000000e-03	1.896685749e-01	-3.815650847e-04	2.622913207e-11
-7.500000000e-03	1.896685763e-01	-3.796367089e-04	4.921786999e-12
-7.600000000e-03	1.896685775e-01	-3.777083332e-04	2.396674099e-11
-7.700000000e-03	1.896685788e-01	-3.757799574e-04	3.449375790e-11
-7.800000000e-03	1.896685799e-01	-3.738515817e-04	7.454419405e-12
-7.900000000e-03	1.896685811e-01	-3.719232059e-04	7.777793058e-12
-8.000000000e-03	1.896685821e-01	-3.699948302e-04	5.358276999e-12
-8.100000000e-03	1.896685831e-01	-3.680664544e-04	9.363829345e-12
-8.200000000e-03	1.896685840e-01	-3.661380786e-04	9.790018775e-11
-8.300000000e-03	1.896685849e-01	-3.642097029e-04	2.137732127e-11
-8.400000000e-03	1.896685857e-01	-3.622813271e-04	3.376157014e-11
-8.500000000e-03	1.896685865e-01	-3.603529513e-04	6.914588033e-12
-8.600000000e-03	1.896685872e-01	-3.584245756e-04	2.562072376e-11
-8.700000000e-03	1.896685878e-01	-3.564961999e-04	9.159069340e-12
-8.800000000e-03	1.896685884e-01	-3.545678242e-04	1.551823281e-11
-8.900000000e-03	1.896685890e-01	-3.526394485e-04	6.696701028e-12
-9.000000000e-03	1.896685894e-01	-3.507110729e-04	1.523123630e-11
-9.100000000e-03	1.896685898e-01	-3.487826973e-04	1.790845565e-11
-9.200000000e-03	1.896685902e-01	-3.468543217e-04	1.139457535e-11
-9.300000000e-03	1.896685905e-01	-3.449259462e-04	7.914791403e-12
-9.400000000e-03	1.896685907e-01	-3.429975706e-04	1.770466328e-11
-9.500000000e-03	1.896685909e-01	-3.410691952e-04	1.726404637e-11
-9.600000000e-03	1.896685910e-01	-3.391408198e-04	9.203758919e-12
-9.700000000e-03	1.896685910e-01	-3.372124444e-04	1.114133966e-11
-9.800000000e-03	1.896685910e-01	-3.352840690e-04	7.688255014e-12
-9.900000000e-03	1.896685910e-01	-3.333556938e-04	1.686307244e-11
-1.000000000e-02	1.896685909e-01	-3.314273185e-04	1.296865441e-11
-1.010000000e-02	1.896685907e-01	-3.294989434e-04	1.949414814e-11
-1.020000000e-02	1.896685904e-01	-3.275705683e-04	9.458449747e-12
-1.030000000e-02	1.896685901e-01	-3.256421933e-04	6.287803836e-12
-1.040000000e-02	1.896685898e-01	-3.237138183e-04	9.271084414e-12
-1.050000000e-02	1.896685894e-01	-3.217854434e-04	1.954835119e-11
-1.060000000e-02	1.896685889e-01	-3.198570686e-04	3.048645095e-11
-1.070000000e-02	1.896685884e-01	-3.179286938e-04	1.222237410e-11
-1.080000000e-02	1.896685878e-01	-3.160003192e-04	8.531473561e-12
-1.090000000e-02	1.896685871e-01	-3.140719446e-04	9.757645332e-12
-1.100000000e-02	1.896685864e-01	-3.121435701e-04	1.991030542e-11
-1.110000000e-02	1.896685856e-01	-3.102151957e-04	8.880920156e-12
-1.120000000e-02	1.896685848e-01	-3.082868214e-04	9.232590352e-12
-1.130000000e-02	1.896685839e-01	-3.063584471e-04	3.531456516e-11
-1.140000000e-02	1.896685830e-01	-3.044300730e-04	3.144008276e-11
-1.150000000e-02	1.896685820e-01	-3.025016990e-04	4.211341549e-11
-1.160000000e-02	1.896685809e-01	-3.005733251e-04	8.673121696e-12
-1.170000000e-02	1.896685798e-01	-2.986449513e-04	8.337564282e-12
-1.180000000e-02	1.896685786e-01	-2.967165775e-04	1.293728835e-11
-1.190000000e-02	1.896685774e-01	-2.947882040e-04	1.929034115e-11
-1.200000000e-02	1.896685761e-01	-2.928598305e-04	4.131057630e-10
-1.210000000e-02	1.896685747e-01	-2.909314571e-04	3.007863166e-11
-1.220000000e-02	1.896685733e-01	-2.890030839e-04	2.941904890e-11
-1.230000000e-02	1.896685719e-01	-2.870747108e-04	6.443839292e-12
-1.240000000e-02	1.896685703e-01	-2.851463378e-04	1.452458211e-11
-1.250000000e-02	1.896685687e-01	-2.832179649e-04	1.079059191e-11
-1.260000000e-02	1.896685671e-01	-2.812895922e-04	2.078591149e-11
-1.270000000e-02	1.896685654e-01	-2.793612196e-04	1.181325232e-11
-1.280000000e-02	1.896685636e-01	-2.774328472e-04	9.944749610e-12
-1.290000000e-02	1.896685618e-01	-2.755044749e-04	1.985316795e-11
-1.300000000e-02	1.896685599e-01	-2.735761027e-04	1.960066207e-11
-1.310000000e-02	1.896685580e-01	-2.716477307e-04	1.969040957e-11
-1.320000000e-02	1.896685560e-01	-2.697193589e-04	8.632474756e-12
-1.330000000e-02	1.896685539e-01	-2.677909872e-04	8.996017446e-12
-1.340000000e-02	1.896685518e-01	-2.658626156e-04	1.368440934e-11
-1.350000000e-02	1.896685496e-01	-2.639342442e-04	1.618570972e-11
-1.360000000e-02	1.896685474e-01	-2.620058730e-04	1.271449857e-11
-1.370000000e-02	1.896685451e-01	-2.600775019e-04	1.142163637e-11
-1.380000000e-02	1.896685427e-01	-2.581491311e-04	1.055091837e-11
-1.390000000e-02	1.896685403e-01	-2.562207603e-04	1.311471474e-11
-1.400000000e-02	1.896685378e-01	-2.542923898e-04	4.852567724e-11
-1.410000000e-02	1.896685353e-01	-2.523640194e-04	1.266987431e-11
-1.420000000e-02	1.896685327e-01	-2.504356493e-04	1.622751305e-11
-1.430000000e-02	1.896685301e-01	-2.485072793e-04	2.716834077e-11
-1.440000000e-02	1.896685274e-01	-2.465789094e-04	1.635884386e-11
-1.450000000e-02	1.896685246e-01	-2.446505398e-04	3.753258075e-11
-1.460000000e-02	1.896685218e-01	-2.427221704e-04	8.115443198e-12
-1.470000000e-02	1.896685189e-01	-2.407938012e-04	1.483184672e-11
-1.480000000e-02	1.896685159e-01	-2.388654321e-04	1.745807820e-11
-1.490000000e-02	1.896685129e-01	-2.369370633e-04	1.915077646e-11
-1.500000000e-02	1.896685099e-01	-2.350086947e-04	1.676115665e-11
-1.510000000e-02	1.896685068e-01	-2.330803263e-04	5.649769891e-12
-1.520000000e-02	1.896685036e-01	-2.311519581e-04	1.110294354e-11
-1.530000000e-02	1.896685004e-01	-2.292235901e-04	1.320116714e-11
-1.540000000e-02	1.896684971e-01	-2.272952223e-04	1.289141418e-11
-1.550000000e-02	1.896684937e-01	-2.253668547e-04	3.521232294e-11
-1.560000000e-02	1.896684903e-01	-2.234384874e-04	8.040047875e-12
-1.570000000e-02	1.896684868e-01	-2.215101203e-04	1.053595797e-11
-1.580000000e-02	1.896684833e-01	-2.195817534e-04	7.265638917e-12
-1.590000000e-02	1.896684797e-01	-2.176533868e-04	1.912101642e-11
-1.600000000e-02	1.896684761e-01	-2.157250204e-04	1.325714609e-11
-1.610000000e-02	1.896684723e-01	-2.137966542e-04	4.761489640e-11
-1.620000000e-02	1.896684686e-01	-2.118682882e-04	5.539684812e-11
-1.630000000e-02	1.896684648e-01	-2.099399226e-04	2.005481711e-11
-1.640000000e-02	1.896684609e-01	-2.080115571e-04	2.874979841e-11
-1.650000000e-02	1.896684569e-01	-2.060831919e-04	1.161401703e-11
-1.660000000e-02	1.896684529e-01	-2.041548270e-04	1.616995983e-11
-1.670000000e-02	1.896684489e-01	-2.022264623e-04	1.894666070e-11
-1.680000000e-02	1.896684448e-01	-2.002980979e-04	7.165561331e-12
-1.690000000e-02	1.896684406e-01	-1.983697337e-04	1.281288123e-11
-1.700000000e-02	1.896684364e-01	-1.964413698e-04	8.597803818e-12
-1.710000000e-02	1.896684321e-01	-1.945130062e-04	1.085414248e-11
-1.720000000e-02	1.896684277e-01	-1.925846428e-04	7.005006484e-12
-1.730000000e-02	1.896684233e-01	-1.906562797e-04	6.503545250e-12
-1.740000000e-02	1.896684188e-01	-1.887279169e-04	5.784277459e-12
-1.750000000e-02	1.896684143e-01	-1.867995544e-04	2.065288521e-11
-1.760000000e-02	1.896684097e-01	-1.848711921e-04	1.643558224e-11
-1.770000000e-02	1.896684051e-01	-1.829428302e-04	1.117252374e-11
-1.780000000e-02	1.896684004e-01	-1.810144685e-04	1.736655154e-11
-1.790000000e-02	1.896683956e-01	-1.790861071e-04	5.123811189e-11
-1.800000000e-02	1.896683908e-01	-1.771577460e-04	1.249578861e-11
-1.810000000e-02	1.896683859e-01	-1.752293852e-04	1.475893080e-10
-1.820000000e-02	1.896683810e-01	-1.733010247e-04	1.337802274e-11
-1.830000000e-02	1.896683760e-01	-1.713726646e-04	1.059228818e-11
-1.840000000e-02	1.896683709e-01	-1.694443047e-04	2.264630808e-11
-1.850000000e-02	1.896683658e-01	-1.675159451e-04	7.508475068e-12
-1.860000000e-02	1.896683606e-01	-1.655875858e-04	9.616594398e-12
-1.870000000e-02	1.896683554e-01	-1.636592269e-04	3.648575549e-11
-1.880000000e-02	1.896683501e-01	-1.617308683e-04	2.376991943e-11
-1.890000000e-02	1.896683447e-01	-1.598025100e-04	3.337605321e-11
-1.900000000e-02	1.896683393e-01	-1.578741520e-04	1.324366630e-11
-1.910000000e-02	1.896683339e-01	-1.559457943e-04	2.094280487e-11
-1.920000000e-02	1.896683283e-01	-1.540174370e-04	1.565426365e-11
-1.930000000e-02	1.896683227e-01	-1.520890800e-04	1.675579526e-11
-1.940000000e-02	1.896683171e-01	-1.501607234e-04	9.870459058e-12
-1.950000000e-02	1.896683114e-01	-1.482323670e-04	1.106127705e-11
-1.960000000e-02	1.896683056e-01	-1.463040111e-04	2.169198558e-11
-1.970000000e-02	1.896682998e-01	-1.443756554e-04	1.048656625e-11
-1.980000000e-02	1.896682939e-01	-1.424473002e-04	1.088140864e-11
-1.990000000e-02	1.896682880e-01	-1.405189452e-04	1.112529932e-11
-2.000000000e-02	1.896682820e-01	-1.385905907e-04	9.100672403e-12
-2.010000000e-02	1.896682759e-01	-1.366622364e-04	8.665209485e-12
-2.020000000e-02	1.896682698e-01	-1.347338826e-04	1.122769179e-11
-2.030000000e-02	1.896682636e-01	-1.328055291e-04	1.921310057e-11
-2.040000000e-02	1.896682574e-01	-1.308771760e-04	2.176768391e-11
-2.050000000e-02	1.896682511e-01	-1.289488232e-04	1.601174026e-11
-2.060000000e-02	1.896682448e-01	-1.270204708e-04	8.477051666e-12
-2.070000000e-02	1.896682384e-01	-1.250921188e-04	5.800814402e-12
-2.080000000e-02	1.896682319e-01	-1.231637672e-04	1.450086293e-11
-2.090000000e-02	1.896682254e-01	-1.212354159e-04	9.125726885e-12
-2.100000000e-02	1.896682188e-01	-1.193070650e-04	2.072172403e-11
-2.110000000e-02	1.896682121e-01	-1.173787145e-04	1.378748736e-11
-2.120000000e-02	1.896682054e-01	-1.154503645e-04	1.129151170e-11
-2.130000000e-02	1.896681987e-01	-1.135220148e-04	1.383650295e-11
-2.140000000e-02	1.896681918e-01	-1.115936654e-04	1.176265802e-11
-2.150000000e-02	1.896681850e-01	-1.096653165e-04	2.604125230e-11
-2.160000000e-02	1.896681780e-01	-1.077369680e-04	1.264871157e-11
-2.170000000e-02	1.896681710e-01	-1.058086199e-04	1.177566254e-11
-2.180000000e-02	1.896681640e-01	-1.038802722e-04	1.093171049e-11
-2.190000000e-02	1.896681569e-01	-1.019519250e-04	1.424959338e-11
-2.200000000e-02	1.896681497e-01	-1.000235781e-04	1.114190382e-11
-2.210000000e-02	1.896681425e-01	-9.809523165e-05	1.111822824e-11
-2.220000000e-02	1.896681352e-01	-9.616688561e-05	7.035117779e-12
-2.230000000e-02	1.896681278e-01	-9.423854001e-05	1.750440808e-11
-2.240000000e-02	1.896681204e-01	-9.231019482e-05	9.036740837e-12
-2.250000000e-02	1.896681129e-01	-9.038185007e-05	9.929073425e-12
-2.260000000e-02	1.896681054e-01	-8.845350575e-05	1.836550631e-11
-2.270000000e-02	1.896680978e-01	-8.652516186e-05	2.609815340e-11
-2.280000000e-02	1.896680902e-01	-8.459681841e-05	1.206876352e-11
-2.290000000e-02	1.896680825e-01	-8.266847540e-05	1.333555956e-11
-2.300000000e-02	1.896680747e-01	-8.074013283e-05	2.090949797e-11
-2.310000000e-02	1.896680669e-01	-7.881179071e-05	3.469280066e-11
-2.320000000e-02	1.896680590e-01	-7.688344904e-05	1.037144032e-11
-2.330000000e-02	1.896680511e-01	-7.495510782e-05	6.620351155e-12
-2.340000000e-02	1.896680431e-01	-7.302676706e-05	6.622718673e-12
-2.350000000e-02	1.896680350e-01	-7.109842676e-05	8.269595190e-12
-2.360000000e-02	1.896680269e-01	-6.917008691e-05	3.660487193e-11
-2.370000000e-02	1.896680188e-01	-6.724174754e-05	3.608162759e-11
-2.380000000e-02	1.896680105e-01	-6.531340862e-05	1.100052237e-11
-2.390000000e-02	1.896680022e-01	-6.338507018e-05	7.743825624e-12
-2.400000000e-02	1.896679939e-01	-6.145673221e-05	8.165929462e-12
-2.410000000e-02	1.896679855e-01	-5.952839472e-05	1.003187286e-11
-2.420000000e-02	1.896679770e-01	-5.760005771e-05	1.244251222e-11
-2.430000000e-02	1.896679685e-01	-5.567172118e-05	1.420994149e-11
-2.440000000e-02	1.896679599e-01	-5.374338514e-05	1.167288029e-11
-2.450000000e-02	1.896679513e-01	-5.181504958e-05	1.147373331e-11
-2.460000000e-02	1.896679426e-01	-4.988671452e-05	3.023647673e-11
-2.470000000e-02	1.896679338e-01	-4.795837995e-05	2.101888668e-11
-2.480000000e-02	1.896679250e-01	-4.603004587e-05	1.021787510e-11
-2.490000000e-02	1.896679161e-01	-4.410171230e-05	5.602247335e-12
-2.500000000e-02	1.896679072e-01	-4.217337923e-05	8.489961899e-12
-2.510000000e-02	1.896678982e-01	-4.024504667e-05	2.708552457e-11
-2.520000000e-02	1.896678891e-01	-3.831671461e-05	5.604465270e-12
-2.530000000e-02	1.896678800e-01	-3.638838307e-05	4.832931185e-12
-2.540000000e-02	1.896678708e-01	-3.446005205e-05	6.431163707e-12
-2.550000000e-02	1.896678616e-01	-3.253172154e-05	8.188848311e-12
-2.560000000e-02	1.896678523e-01	-3.060339155e-05	4.175347986e-11
-2.570000000e-02	1.896678430e-01	-2.867506208e-05	6.435779262e-12
-2.580000000e-02	1.896678336e-01	-2.674673314e-05	1.925962202e-11
-2.590000000e-02	1.896678241e-01	-2.481840474e-05	1.341904938e-11
-2.600000000e-02	1.896678146e-01	-2.289007686e-05	8.384552621e-12
-2.610000000e-02	1.896678050e-01	-2.096174953e-05	1.139834455e-11
-2.620000000e-02	1.896677954e-01	-1.903342273e-05	8.576874554e-12
-2.630000000e-02	1.896677857e-01	-1.710509647e-05	2.285880251e-11
-2.640000000e-02	1.896677759e-01	-1.517677076e-05	1.161686783e-11
-2.650000000e-02	1.896677661e-01	-1.324844559e-05	1.031592258e-11
-2.660000000e-02	1.896677562e-01	-1.132012098e-05	1.505441477e-11
-2.670000000e-02	1.896677463e-01	-9.391796920e-06	1.354759958e-11
-2.680000000e-02	1.896677363e-01	-7.463473418e-06	1.181743259e-11
-2.690000000e-02	1.896677262e-01	-5.535150480e-06	5.551978101e-11
-2.700000000e-02	1.896677161e-01	-3.606828094e-06	8.386033617e-12
-2.710000000e-02	1.896677060e-01	-1.678506280e-06	1.669203151e-11
-2.720000000e-02	1.896676957e-01	2.498149677e-07	1.464315692e-11
-2.730000000e-02	1.896676854e-01	2.178135640e-06	1.574624613e-11
-2.740000000e-02	1.896676751e-01	4.106455739e-06	7.098344118e-12
-2.750000000e-02	1.896676647e-01	6.034775258e-06	3.167293076e-11
-2.760000000e-02	1.896676542e-01	7.963094201e-06	8.224430171e-12
-2.770000000e-02	1.896676437e-01	9.891412559e-06	8.861450337e-12
-2.780000000e-02	1.896676331e-01	1.181973033e-05	2.037974648e-11
-2.790000000e-02	1.896676225e-01	1.374804751e-05	1.152404551e-11
-2.800000000e-02	1.896676118e-01	1.567636410e-05	2.789358960e-11
-2.810000000e-02	1.896676010e-01	1.760468009e-05	1.176688682e-11
-2.820000000e-02	1.896675902e-01	1.953299549e-05	1.047736299e-11
-2.830000000e-02	1.896675793e-01	2.146131028e-05	8.266141074e-12
-2.840000000e-02	1.896675684e-01	2.338962446e-05	1.196057490e-11
-2.850000000e-02	1.896675574e-01	2.531793805e-05	1.927264212e-11
-2.860000000e-02	1.896675464e-01	2.724625101e-05	1.682476565e-11
-2.870000000e-02	1.896675352e-01	2.917456337e-05	1.141590173e-11
-2.880000000e-02	1.896675241e-01	3.110287511e-05	1.017829544e-11
-2.890000000e-02	1.896675128e-01	3.303118624e-05	4.083209213e-11
-2.900000000e-02	1.896675016e-01	3.495949673e-05	1.216788185e-11
-2.910000000e-02	1.896674902e-01	3.688780661e-05	1.569024905e-11
-2.920000000e-02	1.896674788e-01	3.881611585e-05	9.699877262e-12
-2.930000000e-02	1.896674673e-01	4.074442446e-05	1.279727209e-11
-2.940000000e-02	1.896674558e-01	4.267273244e-05	7.071278083e-12
-2.950000000e-02	1.896674442e-01	4.460103978e-05	2.172111531e-11
-2.960000000e-02	1.896674326e-01	4.652934648e-05	7.086876655e-12
-2.970000000e-02	1.896674209e-01	4.845765254e-05	3.319892284e-11
-2.980000000e-02	1.896674092e-01	5.038595795e-05	2.601680471e-11
-2.990000000e-02	1.896673973e-01	5.231426271e-05	1.429025709e-11
-3.000000000e-02	1.896673855e-01	5.424256682e-05	9.230014561e-12
