# Im(epsi1)     Re(omega/c)      Im(omega/c)      Eq(det).Opt det CON kz, R=0.5 \mum, mu_c=0.3, Re(epsi1)=3.90solve_det_conkz_vs_kz.py
0.000000000e+00	1.896453403e-01	-5.242126113e-04	8.475807394e-12
-1.000000000e-04	1.896453460e-01	-5.222843576e-04	1.061984670e-11
-2.000000000e-04	1.896453517e-01	-5.203561038e-04	1.390626626e-10
-3.000000000e-04	1.896453573e-01	-5.184278496e-04	1.266650930e-11
-4.000000000e-04	1.896453628e-01	-5.164995953e-04	8.849804437e-12
-5.000000000e-04	1.896453682e-01	-5.145713407e-04	3.261151884e-11
-6.000000000e-04	1.896453736e-01	-5.126430859e-04	1.279818612e-11
-7.000000000e-04	1.896453790e-01	-5.107148309e-04	9.417460276e-12
-8.000000000e-04	1.896453843e-01	-5.087865757e-04	1.407992375e-11
-9.000000000e-04	1.896453895e-01	-5.068583202e-04	9.819943443e-12
-1.000000000e-03	1.896453947e-01	-5.049300646e-04	2.413490763e-11
-1.100000000e-03	1.896453998e-01	-5.030018087e-04	1.683141004e-11
-1.200000000e-03	1.896454048e-01	-5.010735526e-04	4.754947065e-12
-1.300000000e-03	1.896454098e-01	-4.991452963e-04	2.214668927e-11
-1.400000000e-03	1.896454147e-01	-4.972170398e-04	3.201944761e-11
-1.500000000e-03	1.896454196e-01	-4.952887831e-04	1.501977235e-11
-1.600000000e-03	1.896454244e-01	-4.933605263e-04	3.105924441e-11
-1.700000000e-03	1.896454292e-01	-4.914322692e-04	3.925297953e-11
-1.800000000e-03	1.896454339e-01	-4.895040119e-04	1.869227854e-11
-1.900000000e-03	1.896454385e-01	-4.875757545e-04	8.928610322e-12
-2.000000000e-03	1.896454431e-01	-4.856474969e-04	1.272301650e-11
-2.100000000e-03	1.896454476e-01	-4.837192391e-04	2.026479110e-11
-2.200000000e-03	1.896454521e-01	-4.817909811e-04	1.815688615e-11
-2.300000000e-03	1.896454565e-01	-4.798627229e-04	8.294139678e-12
-2.400000000e-03	1.896454608e-01	-4.779344646e-04	1.279605919e-11
-2.500000000e-03	1.896454651e-01	-4.760062061e-04	2.017889902e-11
-2.600000000e-03	1.896454693e-01	-4.740779474e-04	9.061152469e-12
-2.700000000e-03	1.896454735e-01	-4.721496886e-04	1.738522454e-11
-2.800000000e-03	1.896454776e-01	-4.702214296e-04	8.402077139e-12
-2.900000000e-03	1.896454817e-01	-4.682931705e-04	1.350594789e-11
-3.000000000e-03	1.896454857e-01	-4.663649112e-04	2.823130878e-11
-3.100000000e-03	1.896454896e-01	-4.644366518e-04	7.443676423e-12
-3.200000000e-03	1.896454935e-01	-4.625083922e-04	1.025238869e-11
-3.300000000e-03	1.896454973e-01	-4.605801324e-04	1.662592352e-11
-3.400000000e-03	1.896455010e-01	-4.586518726e-04	8.459128923e-12
-3.500000000e-03	1.896455047e-01	-4.567236126e-04	2.205362389e-11
-3.600000000e-03	1.896455084e-01	-4.547953524e-04	1.919315216e-11
-3.700000000e-03	1.896455120e-01	-4.528670921e-04	3.989500112e-11
-3.800000000e-03	1.896455155e-01	-4.509388317e-04	1.739543666e-11
-3.900000000e-03	1.896455190e-01	-4.490105712e-04	1.845518849e-11
-4.000000000e-03	1.896455224e-01	-4.470823105e-04	3.724502907e-11
-4.100000000e-03	1.896455257e-01	-4.451540498e-04	3.968286518e-11
-4.200000000e-03	1.896455290e-01	-4.432257889e-04	7.371189865e-12
-4.300000000e-03	1.896455322e-01	-4.412975279e-04	2.847941630e-11
-4.400000000e-03	1.896455354e-01	-4.393692668e-04	1.645999017e-10
-4.500000000e-03	1.896455385e-01	-4.374410055e-04	1.891329655e-11
-4.600000000e-03	1.896455415e-01	-4.355127442e-04	1.664074875e-11
-4.700000000e-03	1.896455445e-01	-4.335844828e-04	9.592358265e-12
-4.800000000e-03	1.896455475e-01	-4.316562212e-04	2.045647957e-11
-4.900000000e-03	1.896455504e-01	-4.297279596e-04	6.407176192e-12
-5.000000000e-03	1.896455532e-01	-4.277996979e-04	2.877527070e-11
-5.100000000e-03	1.896455559e-01	-4.258714361e-04	8.684796119e-12
-5.200000000e-03	1.896455586e-01	-4.239431742e-04	4.272791125e-11
-5.300000000e-03	1.896455613e-01	-4.220149122e-04	9.015432398e-12
-5.400000000e-03	1.896455638e-01	-4.200866501e-04	1.804205996e-11
-5.500000000e-03	1.896455664e-01	-4.181583880e-04	1.870623448e-11
-5.600000000e-03	1.896455688e-01	-4.162301257e-04	2.022116626e-11
-5.700000000e-03	1.896455712e-01	-4.143018635e-04	1.247321088e-11
-5.800000000e-03	1.896455736e-01	-4.123736011e-04	1.779846102e-11
-5.900000000e-03	1.896455759e-01	-4.104453387e-04	1.943917233e-11
-6.000000000e-03	1.896455781e-01	-4.085170762e-04	1.009851826e-11
-6.100000000e-03	1.896455803e-01	-4.065888136e-04	1.719025395e-11
-6.200000000e-03	1.896455824e-01	-4.046605510e-04	9.285145104e-12
-6.300000000e-03	1.896455844e-01	-4.027322884e-04	9.949737074e-12
-6.400000000e-03	1.896455864e-01	-4.008040256e-04	7.401291010e-12
-6.500000000e-03	1.896455884e-01	-3.988757629e-04	1.610394022e-11
-6.600000000e-03	1.896455902e-01	-3.969475001e-04	1.047017729e-11
-6.700000000e-03	1.896455921e-01	-3.950192372e-04	9.629604729e-12
-6.800000000e-03	1.896455938e-01	-3.930909743e-04	5.989525803e-12
-6.900000000e-03	1.896455955e-01	-3.911627114e-04	1.078724297e-11
-7.000000000e-03	1.896455972e-01	-3.892344484e-04	3.598627437e-11
-7.100000000e-03	1.896455987e-01	-3.873061854e-04	7.534813961e-12
-7.200000000e-03	1.896456003e-01	-3.853779224e-04	1.309050774e-11
-7.300000000e-03	1.896456017e-01	-3.834496594e-04	2.910166409e-11
-7.400000000e-03	1.896456031e-01	-3.815213963e-04	3.144033288e-11
-7.500000000e-03	1.896456045e-01	-3.795931332e-04	1.505479781e-11
-7.600000000e-03	1.896456058e-01	-3.776648701e-04	1.564805595e-11
-7.700000000e-03	1.896456070e-01	-3.757366070e-04	1.488690057e-11
-7.800000000e-03	1.896456082e-01	-3.738083439e-04	1.057389996e-11
-7.900000000e-03	1.896456093e-01	-3.718800808e-04	8.276493503e-11
-8.000000000e-03	1.896456103e-01	-3.699518176e-04	1.805065384e-11
-8.100000000e-03	1.896456113e-01	-3.680235545e-04	1.247781588e-11
-8.200000000e-03	1.896456123e-01	-3.660952914e-04	1.623254108e-11
-8.300000000e-03	1.896456132e-01	-3.641670282e-04	1.302630113e-11
-8.400000000e-03	1.896456140e-01	-3.622387651e-04	9.432239046e-12
-8.500000000e-03	1.896456147e-01	-3.603105020e-04	2.326532822e-11
-8.600000000e-03	1.896456154e-01	-3.583822389e-04	3.921167683e-11
-8.700000000e-03	1.896456161e-01	-3.564539758e-04	2.834410767e-11
-8.800000000e-03	1.896456167e-01	-3.545257128e-04	5.127328536e-11
-8.900000000e-03	1.896456172e-01	-3.525974498e-04	2.298138544e-11
-9.000000000e-03	1.896456176e-01	-3.506691868e-04	5.678251746e-12
-9.100000000e-03	1.896456181e-01	-3.487409238e-04	7.330514014e-12
-9.200000000e-03	1.896456184e-01	-3.468126608e-04	1.026673341e-11
-9.300000000e-03	1.896456187e-01	-3.448843979e-04	1.384755608e-11
-9.400000000e-03	1.896456189e-01	-3.429561350e-04	2.434054339e-11
-9.500000000e-03	1.896456191e-01	-3.410278722e-04	3.534785715e-12
-9.600000000e-03	1.896456192e-01	-3.390996094e-04	1.323663835e-11
-9.700000000e-03	1.896456193e-01	-3.371713467e-04	4.466904708e-11
-9.800000000e-03	1.896456193e-01	-3.352430840e-04	1.890933018e-11
-9.900000000e-03	1.896456192e-01	-3.333148214e-04	7.907250215e-12
-1.000000000e-02	1.896456191e-01	-3.313865588e-04	2.483448159e-11
-1.010000000e-02	1.896456189e-01	-3.294582963e-04	2.102285204e-11
-1.020000000e-02	1.896456187e-01	-3.275300338e-04	1.357489631e-11
-1.030000000e-02	1.896456184e-01	-3.256017714e-04	5.423567363e-12
-1.040000000e-02	1.896456180e-01	-3.236735091e-04	1.723059024e-11
-1.050000000e-02	1.896456176e-01	-3.217452468e-04	8.010088450e-12
-1.060000000e-02	1.896456171e-01	-3.198169846e-04	1.398813980e-11
-1.070000000e-02	1.896456166e-01	-3.178887225e-04	1.674976305e-11
-1.080000000e-02	1.896456160e-01	-3.159604605e-04	9.762519311e-12
-1.090000000e-02	1.896456153e-01	-3.140321985e-04	3.007848614e-11
-1.100000000e-02	1.896456146e-01	-3.121039367e-04	2.220865628e-11
-1.110000000e-02	1.896456139e-01	-3.101756749e-04	1.327117031e-10
-1.120000000e-02	1.896456130e-01	-3.082474132e-04	1.711323721e-11
-1.130000000e-02	1.896456121e-01	-3.063191517e-04	2.594043896e-11
-1.140000000e-02	1.896456112e-01	-3.043908902e-04	1.222389135e-11
-1.150000000e-02	1.896456102e-01	-3.024626288e-04	1.435962477e-11
-1.160000000e-02	1.896456091e-01	-3.005343675e-04	1.460156229e-11
-1.170000000e-02	1.896456080e-01	-2.986061063e-04	6.154310216e-12
-1.180000000e-02	1.896456068e-01	-2.966778452e-04	2.115011689e-11
-1.190000000e-02	1.896456056e-01	-2.947495843e-04	9.147475248e-12
-1.200000000e-02	1.896456043e-01	-2.928213235e-04	1.458109171e-11
-1.210000000e-02	1.896456029e-01	-2.908930627e-04	7.231454054e-12
-1.220000000e-02	1.896456015e-01	-2.889648021e-04	9.562350721e-12
-1.230000000e-02	1.896456001e-01	-2.870365417e-04	7.275522539e-12
-1.240000000e-02	1.896455985e-01	-2.851082813e-04	2.255189498e-11
-1.250000000e-02	1.896455969e-01	-2.831800211e-04	1.689239342e-11
-1.260000000e-02	1.896455953e-01	-2.812517610e-04	1.166651544e-11
-1.270000000e-02	1.896455936e-01	-2.793235011e-04	8.870450869e-12
-1.280000000e-02	1.896455918e-01	-2.773952413e-04	1.134841569e-11
-1.290000000e-02	1.896455900e-01	-2.754669816e-04	1.412641651e-11
-1.300000000e-02	1.896455881e-01	-2.735387221e-04	9.699724049e-12
-1.310000000e-02	1.896455862e-01	-2.716104627e-04	1.279810109e-11
-1.320000000e-02	1.896455842e-01	-2.696822035e-04	1.323076559e-11
-1.330000000e-02	1.896455821e-01	-2.677539444e-04	7.399916643e-12
-1.340000000e-02	1.896455800e-01	-2.658256855e-04	3.166627905e-11
-1.350000000e-02	1.896455778e-01	-2.638974268e-04	1.094557564e-11
-1.360000000e-02	1.896455756e-01	-2.619691682e-04	1.619373031e-11
-1.370000000e-02	1.896455733e-01	-2.600409098e-04	1.469786945e-11
-1.380000000e-02	1.896455709e-01	-2.581126515e-04	8.045012948e-12
-1.390000000e-02	1.896455685e-01	-2.561843934e-04	1.313732676e-11
-1.400000000e-02	1.896455660e-01	-2.542561355e-04	2.809996622e-11
-1.410000000e-02	1.896455635e-01	-2.523278778e-04	6.437348587e-12
-1.420000000e-02	1.896455609e-01	-2.503996203e-04	1.431076494e-11
-1.430000000e-02	1.896455582e-01	-2.484713629e-04	2.236255666e-11
-1.440000000e-02	1.896455555e-01	-2.465431057e-04	4.520697745e-11
-1.450000000e-02	1.896455528e-01	-2.446148488e-04	2.567762395e-11
-1.460000000e-02	1.896455500e-01	-2.426865920e-04	1.498128713e-11
-1.470000000e-02	1.896455471e-01	-2.407583354e-04	1.567596326e-11
-1.480000000e-02	1.896455441e-01	-2.388300790e-04	2.145532203e-11
-1.490000000e-02	1.896455411e-01	-2.369018228e-04	2.825008732e-11
-1.500000000e-02	1.896455381e-01	-2.349735668e-04	1.480638080e-11
-1.510000000e-02	1.896455349e-01	-2.330453110e-04	1.299631142e-11
-1.520000000e-02	1.896455318e-01	-2.311170555e-04	2.657431946e-10
-1.530000000e-02	1.896455285e-01	-2.291888001e-04	2.213530583e-11
-1.540000000e-02	1.896455252e-01	-2.272605450e-04	6.665737298e-12
-1.550000000e-02	1.896455219e-01	-2.253322901e-04	1.191603983e-11
-1.560000000e-02	1.896455185e-01	-2.234040354e-04	9.096113845e-12
-1.570000000e-02	1.896455150e-01	-2.214757809e-04	1.072512223e-11
-1.580000000e-02	1.896455115e-01	-2.195475267e-04	1.328509329e-11
-1.590000000e-02	1.896455079e-01	-2.176192727e-04	7.840636039e-12
-1.600000000e-02	1.896455042e-01	-2.156910189e-04	7.221842897e-12
-1.610000000e-02	1.896455005e-01	-2.137627653e-04	1.344167185e-11
-1.620000000e-02	1.896454968e-01	-2.118345121e-04	1.101523091e-11
-1.630000000e-02	1.896454929e-01	-2.099062590e-04	1.089317324e-11
-1.640000000e-02	1.896454891e-01	-2.079780062e-04	2.297401468e-11
-1.650000000e-02	1.896454851e-01	-2.060497536e-04	1.458354351e-11
-1.660000000e-02	1.896454811e-01	-2.041215013e-04	1.810737050e-11
-1.670000000e-02	1.896454771e-01	-2.021932493e-04	1.348935837e-11
-1.680000000e-02	1.896454729e-01	-2.002649975e-04	1.374417217e-11
-1.690000000e-02	1.896454688e-01	-1.983367460e-04	2.609896939e-11
-1.700000000e-02	1.896454645e-01	-1.964084947e-04	6.062865434e-12
-1.710000000e-02	1.896454602e-01	-1.944802437e-04	8.746845420e-12
-1.720000000e-02	1.896454559e-01	-1.925519930e-04	5.585703762e-11
-1.730000000e-02	1.896454515e-01	-1.906237426e-04	1.216955560e-11
-1.740000000e-02	1.896454470e-01	-1.886954924e-04	6.021816123e-12
-1.750000000e-02	1.896454425e-01	-1.867672425e-04	5.545769061e-11
-1.760000000e-02	1.896454379e-01	-1.848389929e-04	5.978236038e-12
-1.770000000e-02	1.896454332e-01	-1.829107436e-04	1.857106997e-11
-1.780000000e-02	1.896454285e-01	-1.809824945e-04	2.766276458e-11
-1.790000000e-02	1.896454238e-01	-1.790542458e-04	1.458749177e-11
-1.800000000e-02	1.896454189e-01	-1.771259973e-04	7.136748299e-12
-1.810000000e-02	1.896454141e-01	-1.751977492e-04	1.522476746e-11
-1.820000000e-02	1.896454091e-01	-1.732695013e-04	1.019444132e-11
-1.830000000e-02	1.896454041e-01	-1.713412538e-04	1.577619358e-11
-1.840000000e-02	1.896453991e-01	-1.694130065e-04	2.535600472e-11
-1.850000000e-02	1.896453939e-01	-1.674847596e-04	2.752207226e-11
-1.860000000e-02	1.896453888e-01	-1.655565130e-04	1.830126060e-11
-1.870000000e-02	1.896453835e-01	-1.636282667e-04	1.733319803e-11
-1.880000000e-02	1.896453782e-01	-1.617000207e-04	6.256066301e-12
-1.890000000e-02	1.896453729e-01	-1.597717750e-04	7.566807996e-12
-1.900000000e-02	1.896453675e-01	-1.578435297e-04	1.406312511e-11
-1.910000000e-02	1.896453620e-01	-1.559152847e-04	1.433539349e-11
-1.920000000e-02	1.896453565e-01	-1.539870400e-04	1.439456463e-11
-1.930000000e-02	1.896453509e-01	-1.520587956e-04	1.404594258e-11
-1.940000000e-02	1.896453452e-01	-1.501305516e-04	1.298138923e-11
-1.950000000e-02	1.896453395e-01	-1.482023080e-04	1.095752586e-11
-1.960000000e-02	1.896453338e-01	-1.462740646e-04	1.398600161e-11
-1.970000000e-02	1.896453280e-01	-1.443458216e-04	5.646189208e-12
-1.980000000e-02	1.896453221e-01	-1.424175790e-04	1.721934583e-11
-1.990000000e-02	1.896453161e-01	-1.404893367e-04	6.916271177e-12
-2.000000000e-02	1.896453101e-01	-1.385610948e-04	1.331218184e-11
-2.010000000e-02	1.896453041e-01	-1.366328532e-04	1.171085495e-11
-2.020000000e-02	1.896452980e-01	-1.347046120e-04	1.337191297e-11
-2.030000000e-02	1.896452918e-01	-1.327763711e-04	1.990303841e-11
-2.040000000e-02	1.896452856e-01	-1.308481306e-04	1.411292142e-11
-2.050000000e-02	1.896452793e-01	-1.289198905e-04	9.291727659e-12
-2.060000000e-02	1.896452729e-01	-1.269916508e-04	5.458074008e-12
-2.070000000e-02	1.896452665e-01	-1.250634114e-04	7.475015872e-12
-2.080000000e-02	1.896452600e-01	-1.231351724e-04	1.103129367e-11
-2.090000000e-02	1.896452535e-01	-1.212069338e-04	3.587807246e-11
-2.100000000e-02	1.896452469e-01	-1.192786956e-04	7.737492732e-12
-2.110000000e-02	1.896452403e-01	-1.173504577e-04	1.011089539e-11
-2.120000000e-02	1.896452336e-01	-1.154222203e-04	1.291476792e-11
-2.130000000e-02	1.896452268e-01	-1.134939832e-04	9.189605395e-12
-2.140000000e-02	1.896452200e-01	-1.115657465e-04	2.067920542e-11
-2.150000000e-02	1.896452131e-01	-1.096375103e-04	8.013866384e-12
-2.160000000e-02	1.896452062e-01	-1.077092744e-04	1.196898123e-11
-2.170000000e-02	1.896451992e-01	-1.057810390e-04	1.054151707e-11
-2.180000000e-02	1.896451921e-01	-1.038528039e-04	2.425276002e-11
-2.190000000e-02	1.896451850e-01	-1.019245693e-04	1.039759949e-11
-2.200000000e-02	1.896451778e-01	-9.999633505e-05	9.838115606e-12
-2.210000000e-02	1.896451706e-01	-9.806810124e-05	1.357763788e-11
-2.220000000e-02	1.896451633e-01	-9.613986785e-05	1.444268849e-11
-2.230000000e-02	1.896451560e-01	-9.421163489e-05	1.123104129e-11
-2.240000000e-02	1.896451485e-01	-9.228340235e-05	1.882290362e-11
-2.250000000e-02	1.896451411e-01	-9.035517023e-05	5.063791860e-12
-2.260000000e-02	1.896451336e-01	-8.842693854e-05	6.087103301e-11
-2.270000000e-02	1.896451260e-01	-8.649870731e-05	1.796842276e-11
-2.280000000e-02	1.896451183e-01	-8.457047650e-05	7.987780846e-12
-2.290000000e-02	1.896451106e-01	-8.264224613e-05	9.579331880e-12
-2.300000000e-02	1.896451029e-01	-8.071401621e-05	2.762385664e-11
-2.310000000e-02	1.896450950e-01	-7.878578673e-05	2.115089187e-11
-2.320000000e-02	1.896450872e-01	-7.685755770e-05	1.466008925e-11
-2.330000000e-02	1.896450792e-01	-7.492932913e-05	9.023573484e-12
-2.340000000e-02	1.896450712e-01	-7.300110100e-05	3.087797543e-11
-2.350000000e-02	1.896450632e-01	-7.107287335e-05	3.796570848e-11
-2.360000000e-02	1.896450551e-01	-6.914464615e-05	1.619151278e-11
-2.370000000e-02	1.896450469e-01	-6.721641941e-05	1.607279067e-11
-2.380000000e-02	1.896450387e-01	-6.528819314e-05	1.619667930e-11
-2.390000000e-02	1.896450304e-01	-6.335996733e-05	5.960796345e-11
-2.400000000e-02	1.896450220e-01	-6.143174202e-05	1.932806201e-11
-2.410000000e-02	1.896450136e-01	-5.950351717e-05	7.455438115e-12
-2.420000000e-02	1.896450051e-01	-5.757529281e-05	2.121923878e-11
-2.430000000e-02	1.896449966e-01	-5.564706892e-05	1.278605669e-11
-2.440000000e-02	1.896449880e-01	-5.371884552e-05	7.345377055e-12
-2.450000000e-02	1.896449794e-01	-5.179062260e-05	1.268869614e-11
-2.460000000e-02	1.896449707e-01	-4.986240018e-05	2.252977087e-11
-2.470000000e-02	1.896449619e-01	-4.793417826e-05	1.604797740e-11
-2.480000000e-02	1.896449531e-01	-4.600595682e-05	2.098854605e-11
-2.490000000e-02	1.896449442e-01	-4.407773589e-05	2.493393988e-11
-2.500000000e-02	1.896449353e-01	-4.214951547e-05	1.257867928e-11
-2.510000000e-02	1.896449263e-01	-4.022129555e-05	1.083949670e-11
-2.520000000e-02	1.896449172e-01	-3.829307614e-05	5.000271014e-12
-2.530000000e-02	1.896449081e-01	-3.636485724e-05	1.244130311e-11
-2.540000000e-02	1.896448990e-01	-3.443663886e-05	1.221645730e-11
-2.550000000e-02	1.896448897e-01	-3.250842101e-05	1.100895567e-10
-2.560000000e-02	1.896448804e-01	-3.058020365e-05	1.661713120e-11
-2.570000000e-02	1.896448711e-01	-2.865198683e-05	8.193383097e-12
-2.580000000e-02	1.896448617e-01	-2.672377054e-05	2.010059856e-11
-2.590000000e-02	1.896448522e-01	-2.479555477e-05	1.270541623e-11
-2.600000000e-02	1.896448427e-01	-2.286733954e-05	9.938463101e-12
-2.610000000e-02	1.896448331e-01	-2.093912485e-05	9.228097456e-12
-2.620000000e-02	1.896448235e-01	-1.901091070e-05	1.121116086e-11
-2.630000000e-02	1.896448138e-01	-1.708269707e-05	4.758922983e-11
-2.640000000e-02	1.896448040e-01	-1.515448402e-05	1.491718268e-11
-2.650000000e-02	1.896447942e-01	-1.322627149e-05	1.422589753e-11
-2.660000000e-02	1.896447843e-01	-1.129805952e-05	1.511077538e-11
-2.670000000e-02	1.896447744e-01	-9.369848108e-06	1.771288739e-11
-2.680000000e-02	1.896447644e-01	-7.441637251e-06	1.584545251e-11
-2.690000000e-02	1.896447543e-01	-5.513426952e-06	8.565127238e-12
-2.700000000e-02	1.896447442e-01	-3.585217226e-06	5.073997510e-11
-2.710000000e-02	1.896447341e-01	-1.657008044e-06	1.109714983e-11
-2.720000000e-02	1.896447238e-01	2.712005555e-07	1.633959245e-11
-2.730000000e-02	1.896447135e-01	2.199408582e-06	8.234134741e-12
-2.740000000e-02	1.896447032e-01	4.127616039e-06	1.580829542e-11
-2.750000000e-02	1.896446928e-01	6.055822912e-06	1.739009403e-11
-2.760000000e-02	1.896446823e-01	7.984029205e-06	2.465164904e-11
-2.770000000e-02	1.896446718e-01	9.912234923e-06	7.845955127e-12
-2.780000000e-02	1.896446612e-01	1.184044005e-05	3.331762119e-11
-2.790000000e-02	1.896446506e-01	1.376864458e-05	8.507324139e-12
-2.800000000e-02	1.896446399e-01	1.569684852e-05	2.785021247e-11
-2.810000000e-02	1.896446291e-01	1.762505187e-05	8.537510527e-11
-2.820000000e-02	1.896446183e-01	1.955325462e-05	2.478284152e-11
-2.830000000e-02	1.896446074e-01	2.148145677e-05	9.020160047e-12
-2.840000000e-02	1.896445965e-01	2.340965831e-05	1.761929700e-11
-2.850000000e-02	1.896445855e-01	2.533785924e-05	7.632415180e-12
-2.860000000e-02	1.896445744e-01	2.726605957e-05	2.117158967e-11
-2.870000000e-02	1.896445633e-01	2.919425928e-05	1.318218627e-11
-2.880000000e-02	1.896445522e-01	3.112245837e-05	2.287875358e-11
-2.890000000e-02	1.896445409e-01	3.305065685e-05	1.436872051e-11
-2.900000000e-02	1.896445297e-01	3.497885470e-05	9.131621245e-12
-2.910000000e-02	1.896445183e-01	3.690705193e-05	1.012839673e-11
-2.920000000e-02	1.896445069e-01	3.883524853e-05	8.890898679e-12
-2.930000000e-02	1.896444954e-01	4.076344449e-05	8.329671382e-12
-2.940000000e-02	1.896444839e-01	4.269163983e-05	5.308630327e-11
-2.950000000e-02	1.896444723e-01	4.461983452e-05	1.795777696e-11
-2.960000000e-02	1.896444607e-01	4.654802857e-05	4.864884216e-12
-2.970000000e-02	1.896444490e-01	4.847622198e-05	8.082316934e-12
-2.980000000e-02	1.896444372e-01	5.040441475e-05	1.517584065e-11
-2.990000000e-02	1.896444254e-01	5.233260688e-05	8.154442310e-11
-3.000000000e-02	1.896444135e-01	5.426079833e-05	1.384656204e-11
