# Im(epsi1)     Re(omega/c)      Im(omega/c)      Eq(det).Opt det CON kz, R=0.5 \mum, mu_c=0.3, Re(epsi1)=3.90solve_det_conkz_vs_kz.py
0.000000000e+00	1.896483986e-01	-5.242209813e-04	7.221934584e-12
-1.000000000e-04	1.896484043e-01	-5.222927127e-04	1.543474732e-11
-2.000000000e-04	1.896484100e-01	-5.203644439e-04	1.321305637e-11
-3.000000000e-04	1.896484155e-01	-5.184361748e-04	5.401750027e-12
-4.000000000e-04	1.896484211e-01	-5.165079055e-04	1.292091954e-11
-5.000000000e-04	1.896484265e-01	-5.145796360e-04	1.390407793e-11
-6.000000000e-04	1.896484319e-01	-5.126513662e-04	5.508954517e-12
-7.000000000e-04	1.896484373e-01	-5.107230963e-04	1.316499934e-11
-8.000000000e-04	1.896484426e-01	-5.087948261e-04	2.028994280e-11
-9.000000000e-04	1.896484478e-01	-5.068665557e-04	1.068894427e-11
-1.000000000e-03	1.896484530e-01	-5.049382850e-04	1.131369306e-11
-1.100000000e-03	1.896484581e-01	-5.030100142e-04	8.163606231e-12
-1.200000000e-03	1.896484631e-01	-5.010817432e-04	2.190293357e-11
-1.300000000e-03	1.896484681e-01	-4.991534719e-04	1.074601726e-11
-1.400000000e-03	1.896484730e-01	-4.972252005e-04	2.235948083e-11
-1.500000000e-03	1.896484779e-01	-4.952969289e-04	1.945471151e-11
-1.600000000e-03	1.896484827e-01	-4.933686570e-04	1.458110718e-11
-1.700000000e-03	1.896484875e-01	-4.914403850e-04	1.366124084e-11
-1.800000000e-03	1.896484922e-01	-4.895121128e-04	1.279804750e-11
-1.900000000e-03	1.896484968e-01	-4.875838404e-04	8.380377279e-12
-2.000000000e-03	1.896485014e-01	-4.856555678e-04	2.267406963e-11
-2.100000000e-03	1.896485059e-01	-4.837272950e-04	8.831287768e-12
-2.200000000e-03	1.896485104e-01	-4.817990221e-04	1.400224268e-11
-2.300000000e-03	1.896485148e-01	-4.798707490e-04	2.252152378e-11
-2.400000000e-03	1.896485191e-01	-4.779424757e-04	8.569996113e-12
-2.500000000e-03	1.896485234e-01	-4.760142022e-04	1.283984392e-11
-2.600000000e-03	1.896485276e-01	-4.740859286e-04	9.097490548e-12
-2.700000000e-03	1.896485318e-01	-4.721576549e-04	1.791231982e-11
-2.800000000e-03	1.896485359e-01	-4.702293809e-04	1.210653567e-11
-2.900000000e-03	1.896485400e-01	-4.683011068e-04	1.451450384e-11
-3.000000000e-03	1.896485440e-01	-4.663728326e-04	8.446762668e-12
-3.100000000e-03	1.896485479e-01	-4.644445582e-04	1.174120849e-11
-3.200000000e-03	1.896485518e-01	-4.625162836e-04	1.270251273e-11
-3.300000000e-03	1.896485556e-01	-4.605880090e-04	1.620379699e-11
-3.400000000e-03	1.896485593e-01	-4.586597341e-04	7.806101649e-12
-3.500000000e-03	1.896485630e-01	-4.567314592e-04	2.243398952e-11
-3.600000000e-03	1.896485667e-01	-4.548031841e-04	1.008912390e-11
-3.700000000e-03	1.896485703e-01	-4.528749088e-04	3.117032638e-11
-3.800000000e-03	1.896485738e-01	-4.509466335e-04	1.129431583e-11
-3.900000000e-03	1.896485772e-01	-4.490183580e-04	2.495219349e-10
-4.000000000e-03	1.896485807e-01	-4.470900824e-04	1.618881682e-11
-4.100000000e-03	1.896485840e-01	-4.451618066e-04	1.555769283e-11
-4.200000000e-03	1.896485873e-01	-4.432335308e-04	1.093461139e-11
-4.300000000e-03	1.896485905e-01	-4.413052548e-04	1.412446809e-11
-4.400000000e-03	1.896485937e-01	-4.393769788e-04	2.901130651e-11
-4.500000000e-03	1.896485968e-01	-4.374487026e-04	4.261084108e-11
-4.600000000e-03	1.896485998e-01	-4.355204263e-04	1.208764939e-11
-4.700000000e-03	1.896486028e-01	-4.335921499e-04	6.028369315e-12
-4.800000000e-03	1.896486058e-01	-4.316638734e-04	1.915385344e-11
-4.900000000e-03	1.896486086e-01	-4.297355968e-04	1.661233769e-11
-5.000000000e-03	1.896486115e-01	-4.278073202e-04	1.738636555e-11
-5.100000000e-03	1.896486142e-01	-4.258790434e-04	6.871672122e-12
-5.200000000e-03	1.896486169e-01	-4.239507665e-04	4.446114011e-11
-5.300000000e-03	1.896486196e-01	-4.220224896e-04	1.113720160e-11
-5.400000000e-03	1.896486221e-01	-4.200942126e-04	1.006095326e-11
-5.500000000e-03	1.896486247e-01	-4.181659355e-04	6.338448101e-11
-5.600000000e-03	1.896486271e-01	-4.162376583e-04	7.411664566e-12
-5.700000000e-03	1.896486295e-01	-4.143093811e-04	1.385961198e-11
-5.800000000e-03	1.896486319e-01	-4.123811037e-04	1.188255438e-11
-5.900000000e-03	1.896486342e-01	-4.104528263e-04	2.454984746e-11
-6.000000000e-03	1.896486364e-01	-4.085245489e-04	7.757200712e-12
-6.100000000e-03	1.896486386e-01	-4.065962714e-04	8.482606719e-12
-6.200000000e-03	1.896486407e-01	-4.046679938e-04	2.077416087e-11
-6.300000000e-03	1.896486427e-01	-4.027397162e-04	4.497292122e-11
-6.400000000e-03	1.896486447e-01	-4.008114385e-04	2.750097635e-11
-6.500000000e-03	1.896486467e-01	-3.988831608e-04	1.624784302e-11
-6.600000000e-03	1.896486485e-01	-3.969548831e-04	9.375168821e-12
-6.700000000e-03	1.896486504e-01	-3.950266053e-04	1.127475516e-11
-6.800000000e-03	1.896486521e-01	-3.930983274e-04	7.408407144e-12
-6.900000000e-03	1.896486538e-01	-3.911700495e-04	1.455239589e-11
-7.000000000e-03	1.896486555e-01	-3.892417716e-04	1.186845227e-11
-7.100000000e-03	1.896486570e-01	-3.873134937e-04	1.098665667e-11
-7.200000000e-03	1.896486586e-01	-3.853852157e-04	7.405993313e-12
-7.300000000e-03	1.896486600e-01	-3.834569377e-04	1.286832392e-11
-7.400000000e-03	1.896486614e-01	-3.815286597e-04	1.141748618e-11
-7.500000000e-03	1.896486628e-01	-3.796003816e-04	5.498059172e-12
-7.600000000e-03	1.896486641e-01	-3.776721036e-04	1.492418789e-11
-7.700000000e-03	1.896486653e-01	-3.757438255e-04	1.258100003e-11
-7.800000000e-03	1.896486665e-01	-3.738155474e-04	1.417862666e-11
-7.900000000e-03	1.896486676e-01	-3.718872693e-04	2.659185062e-11
-8.000000000e-03	1.896486686e-01	-3.699589913e-04	1.199797725e-11
-8.100000000e-03	1.896486696e-01	-3.680307132e-04	9.722413328e-12
-8.200000000e-03	1.896486706e-01	-3.661024351e-04	9.111354032e-12
-8.300000000e-03	1.896486715e-01	-3.641741570e-04	1.841814372e-11
-8.400000000e-03	1.896486723e-01	-3.622458789e-04	7.246141804e-12
-8.500000000e-03	1.896486730e-01	-3.603176009e-04	1.520653229e-11
-8.600000000e-03	1.896486737e-01	-3.583893228e-04	1.207144676e-11
-8.700000000e-03	1.896486744e-01	-3.564610448e-04	1.275119934e-11
-8.800000000e-03	1.896486750e-01	-3.545327668e-04	1.210230906e-11
-8.900000000e-03	1.896486755e-01	-3.526044888e-04	8.816620737e-12
-9.000000000e-03	1.896486759e-01	-3.506762108e-04	2.890071329e-11
-9.100000000e-03	1.896486764e-01	-3.487479329e-04	2.194119291e-11
-9.200000000e-03	1.896486767e-01	-3.468196550e-04	9.884538894e-12
-9.300000000e-03	1.896486770e-01	-3.448913771e-04	5.064442266e-12
-9.400000000e-03	1.896486772e-01	-3.429630993e-04	3.996696114e-11
-9.500000000e-03	1.896486774e-01	-3.410348215e-04	1.492201156e-11
-9.600000000e-03	1.896486775e-01	-3.391065438e-04	1.890635975e-11
-9.700000000e-03	1.896486776e-01	-3.371782661e-04	1.789407695e-11
-9.800000000e-03	1.896486776e-01	-3.352499884e-04	2.710767674e-11
-9.900000000e-03	1.896486775e-01	-3.333217108e-04	7.436837769e-12
-1.000000000e-02	1.896486774e-01	-3.313934333e-04	1.128043985e-11
-1.010000000e-02	1.896486772e-01	-3.294651558e-04	1.037275151e-11
-1.020000000e-02	1.896486770e-01	-3.275368784e-04	1.964044593e-11
-1.030000000e-02	1.896486767e-01	-3.256086010e-04	1.850830695e-11
-1.040000000e-02	1.896486763e-01	-3.236803238e-04	1.362282222e-11
-1.050000000e-02	1.896486759e-01	-3.217520465e-04	1.032489641e-11
-1.060000000e-02	1.896486754e-01	-3.198237694e-04	7.802300543e-11
-1.070000000e-02	1.896486749e-01	-3.178954923e-04	1.044520252e-11
-1.080000000e-02	1.896486743e-01	-3.159672154e-04	1.775646221e-11
-1.090000000e-02	1.896486736e-01	-3.140389385e-04	1.718670638e-11
-1.100000000e-02	1.896486729e-01	-3.121106616e-04	5.989720280e-11
-1.110000000e-02	1.896486722e-01	-3.101823849e-04	1.402862656e-11
-1.120000000e-02	1.896486713e-01	-3.082541083e-04	7.422631455e-12
-1.130000000e-02	1.896486704e-01	-3.063258317e-04	4.950582171e-11
-1.140000000e-02	1.896486695e-01	-3.043975553e-04	8.155321893e-12
-1.150000000e-02	1.896486685e-01	-3.024692790e-04	2.020767484e-11
-1.160000000e-02	1.896486674e-01	-3.005410027e-04	1.254762109e-11
-1.170000000e-02	1.896486663e-01	-2.986127266e-04	1.914523260e-11
-1.180000000e-02	1.896486651e-01	-2.966844506e-04	8.964926753e-12
-1.190000000e-02	1.896486639e-01	-2.947561747e-04	7.590793251e-12
-1.200000000e-02	1.896486626e-01	-2.928278989e-04	7.557512426e-12
-1.210000000e-02	1.896486613e-01	-2.908996232e-04	1.108059613e-11
-1.220000000e-02	1.896486598e-01	-2.889713476e-04	6.135291853e-12
-1.230000000e-02	1.896486584e-01	-2.870430722e-04	1.106904549e-11
-1.240000000e-02	1.896486568e-01	-2.851147969e-04	1.032499743e-11
-1.250000000e-02	1.896486552e-01	-2.831865217e-04	1.782559141e-11
-1.260000000e-02	1.896486536e-01	-2.812582467e-04	1.197534311e-11
-1.270000000e-02	1.896486519e-01	-2.793299718e-04	1.177966445e-11
-1.280000000e-02	1.896486501e-01	-2.774016970e-04	2.022593777e-11
-1.290000000e-02	1.896486483e-01	-2.754734224e-04	1.060586763e-11
-1.300000000e-02	1.896486464e-01	-2.735451479e-04	9.638499082e-12
-1.310000000e-02	1.896486445e-01	-2.716168736e-04	1.856517991e-11
-1.320000000e-02	1.896486425e-01	-2.696885994e-04	2.242238645e-11
-1.330000000e-02	1.896486404e-01	-2.677603254e-04	8.214931220e-12
-1.340000000e-02	1.896486383e-01	-2.658320515e-04	1.373819156e-11
-1.350000000e-02	1.896486361e-01	-2.639037778e-04	9.454456399e-12
-1.360000000e-02	1.896486339e-01	-2.619755043e-04	3.238650578e-11
-1.370000000e-02	1.896486316e-01	-2.600472309e-04	7.267419361e-12
-1.380000000e-02	1.896486292e-01	-2.581189577e-04	9.602162090e-12
-1.390000000e-02	1.896486268e-01	-2.561906847e-04	2.769986137e-11
-1.400000000e-02	1.896486243e-01	-2.542624118e-04	1.968082133e-11
-1.410000000e-02	1.896486218e-01	-2.523341392e-04	9.022817775e-12
-1.420000000e-02	1.896486192e-01	-2.504058667e-04	6.624649376e-12
-1.430000000e-02	1.896486166e-01	-2.484775943e-04	1.172026754e-11
-1.440000000e-02	1.896486139e-01	-2.465493222e-04	3.133297718e-11
-1.450000000e-02	1.896486111e-01	-2.446210503e-04	8.915312140e-12
-1.460000000e-02	1.896486083e-01	-2.426927785e-04	1.464926376e-11
-1.470000000e-02	1.896486054e-01	-2.407645070e-04	1.683863555e-11
-1.480000000e-02	1.896486024e-01	-2.388362356e-04	2.010906970e-11
-1.490000000e-02	1.896485994e-01	-2.369079645e-04	1.480213059e-11
-1.500000000e-02	1.896485964e-01	-2.349796935e-04	1.693127173e-11
-1.510000000e-02	1.896485933e-01	-2.330514228e-04	1.585720964e-11
-1.520000000e-02	1.896485901e-01	-2.311231523e-04	1.019105989e-11
-1.530000000e-02	1.896485868e-01	-2.291948820e-04	1.540974503e-11
-1.540000000e-02	1.896485835e-01	-2.272666119e-04	1.631211567e-11
-1.550000000e-02	1.896485802e-01	-2.253383420e-04	7.467700909e-12
-1.560000000e-02	1.896485768e-01	-2.234100724e-04	1.013041956e-11
-1.570000000e-02	1.896485733e-01	-2.214818029e-04	1.301007334e-11
-1.580000000e-02	1.896485698e-01	-2.195535337e-04	7.400323997e-12
-1.590000000e-02	1.896485662e-01	-2.176252648e-04	2.541483319e-11
-1.600000000e-02	1.896485625e-01	-2.156969961e-04	1.631320765e-11
-1.610000000e-02	1.896485588e-01	-2.137687276e-04	2.478350171e-11
-1.620000000e-02	1.896485551e-01	-2.118404593e-04	1.138622408e-11
-1.630000000e-02	1.896485512e-01	-2.099121913e-04	1.304995295e-11
-1.640000000e-02	1.896485474e-01	-2.079839236e-04	1.859015626e-11
-1.650000000e-02	1.896485434e-01	-2.060556560e-04	1.504922037e-11
-1.660000000e-02	1.896485394e-01	-2.041273888e-04	2.266179543e-11
-1.670000000e-02	1.896485354e-01	-2.021991218e-04	1.296506211e-11
-1.680000000e-02	1.896485312e-01	-2.002708550e-04	1.494245801e-11
-1.690000000e-02	1.896485271e-01	-1.983425886e-04	1.235896275e-11
-1.700000000e-02	1.896485228e-01	-1.964143223e-04	1.390116747e-11
-1.710000000e-02	1.896485185e-01	-1.944860564e-04	1.005403093e-11
-1.720000000e-02	1.896485142e-01	-1.925577907e-04	1.577921913e-11
-1.730000000e-02	1.896485098e-01	-1.906295253e-04	8.658729936e-12
-1.740000000e-02	1.896485053e-01	-1.887012602e-04	1.226799837e-11
-1.750000000e-02	1.896485008e-01	-1.867729953e-04	7.383287395e-12
-1.760000000e-02	1.896484962e-01	-1.848447308e-04	7.259924350e-12
-1.770000000e-02	1.896484915e-01	-1.829164665e-04	3.108297555e-11
-1.780000000e-02	1.896484868e-01	-1.809882025e-04	1.135930438e-11
-1.790000000e-02	1.896484821e-01	-1.790599388e-04	2.468867177e-11
-1.800000000e-02	1.896484773e-01	-1.771316754e-04	6.088495091e-12
-1.810000000e-02	1.896484724e-01	-1.752034123e-04	2.568172195e-11
-1.820000000e-02	1.896484674e-01	-1.732751495e-04	1.341829459e-11
-1.830000000e-02	1.896484624e-01	-1.713468870e-04	6.180541466e-12
-1.840000000e-02	1.896484574e-01	-1.694186248e-04	9.567765449e-12
-1.850000000e-02	1.896484523e-01	-1.674903629e-04	1.868050755e-11
-1.860000000e-02	1.896484471e-01	-1.655621013e-04	9.303553132e-12
-1.870000000e-02	1.896484418e-01	-1.636338401e-04	1.626231315e-11
-1.880000000e-02	1.896484366e-01	-1.617055791e-04	1.059806196e-11
-1.890000000e-02	1.896484312e-01	-1.597773185e-04	1.299274750e-11
-1.900000000e-02	1.896484258e-01	-1.578490582e-04	2.989728469e-11
-1.910000000e-02	1.896484203e-01	-1.559207982e-04	8.490624464e-11
-1.920000000e-02	1.896484148e-01	-1.539925386e-04	6.791717711e-12
-1.930000000e-02	1.896484092e-01	-1.520642793e-04	6.220096660e-12
-1.940000000e-02	1.896484036e-01	-1.501360203e-04	5.952238065e-12
-1.950000000e-02	1.896483979e-01	-1.482077617e-04	1.683895459e-11
-1.960000000e-02	1.896483921e-01	-1.462795034e-04	8.353364029e-12
-1.970000000e-02	1.896483863e-01	-1.443512454e-04	3.358317924e-11
-1.980000000e-02	1.896483804e-01	-1.424229878e-04	1.164640214e-11
-1.990000000e-02	1.896483745e-01	-1.404947306e-04	2.462795408e-11
-2.000000000e-02	1.896483685e-01	-1.385664737e-04	7.550561404e-12
-2.010000000e-02	1.896483624e-01	-1.366382172e-04	1.580057228e-11
-2.020000000e-02	1.896483563e-01	-1.347099610e-04	3.553547396e-11
-2.030000000e-02	1.896483501e-01	-1.327817052e-04	1.274677572e-11
-2.040000000e-02	1.896483439e-01	-1.308534498e-04	7.486108202e-12
-2.050000000e-02	1.896483376e-01	-1.289251947e-04	9.711714580e-12
-2.060000000e-02	1.896483312e-01	-1.269969400e-04	1.099145825e-11
-2.070000000e-02	1.896483248e-01	-1.250686856e-04	9.268382010e-12
-2.080000000e-02	1.896483184e-01	-1.231404317e-04	6.128591131e-11
-2.090000000e-02	1.896483118e-01	-1.212121781e-04	6.995744188e-12
-2.100000000e-02	1.896483052e-01	-1.192839249e-04	2.303433449e-11
-2.110000000e-02	1.896482986e-01	-1.173556721e-04	5.726477551e-12
-2.120000000e-02	1.896482919e-01	-1.154274197e-04	1.302211961e-11
-2.130000000e-02	1.896482851e-01	-1.134991677e-04	1.351393402e-11
-2.140000000e-02	1.896482783e-01	-1.115709161e-04	6.562528132e-12
-2.150000000e-02	1.896482714e-01	-1.096426649e-04	1.086241410e-11
-2.160000000e-02	1.896482645e-01	-1.077144141e-04	1.449999663e-11
-2.170000000e-02	1.896482575e-01	-1.057861636e-04	9.237558602e-12
-2.180000000e-02	1.896482504e-01	-1.038579136e-04	1.419533372e-11
-2.190000000e-02	1.896482433e-01	-1.019296640e-04	8.281407196e-12
-2.200000000e-02	1.896482361e-01	-1.000014149e-04	1.693426617e-11
-2.210000000e-02	1.896482289e-01	-9.807316610e-05	1.581913146e-11
-2.220000000e-02	1.896482216e-01	-9.614491775e-05	1.910717794e-11
-2.230000000e-02	1.896482143e-01	-9.421666983e-05	1.065647547e-11
-2.240000000e-02	1.896482069e-01	-9.228842233e-05	5.841859409e-12
-2.250000000e-02	1.896481994e-01	-9.036017527e-05	2.240873340e-11
-2.260000000e-02	1.896481919e-01	-8.843192863e-05	1.629101438e-11
-2.270000000e-02	1.896481843e-01	-8.650368243e-05	7.901311402e-12
-2.280000000e-02	1.896481766e-01	-8.457543667e-05	1.796038985e-11
-2.290000000e-02	1.896481689e-01	-8.264719133e-05	2.030314656e-11
-2.300000000e-02	1.896481612e-01	-8.071894646e-05	8.509275819e-12
-2.310000000e-02	1.896481534e-01	-7.879070202e-05	1.121365656e-11
-2.320000000e-02	1.896481455e-01	-7.686245804e-05	1.271982994e-11
-2.330000000e-02	1.896481375e-01	-7.493421450e-05	2.886725406e-11
-2.340000000e-02	1.896481296e-01	-7.300597143e-05	1.500774954e-11
-2.350000000e-02	1.896481215e-01	-7.107772881e-05	1.061170507e-11
-2.360000000e-02	1.896481134e-01	-6.914948665e-05	3.786634757e-11
-2.370000000e-02	1.896481052e-01	-6.722124497e-05	8.449339164e-12
-2.380000000e-02	1.896480970e-01	-6.529300374e-05	1.100727643e-11
-2.390000000e-02	1.896480887e-01	-6.336476299e-05	5.884091307e-12
-2.400000000e-02	1.896480803e-01	-6.143652271e-05	2.884134236e-11
-2.410000000e-02	1.896480719e-01	-5.950828290e-05	1.931632286e-11
-2.420000000e-02	1.896480635e-01	-5.758004358e-05	3.362528143e-11
-2.430000000e-02	1.896480549e-01	-5.565180474e-05	1.454088854e-11
-2.440000000e-02	1.896480464e-01	-5.372356638e-05	3.206850755e-11
-2.450000000e-02	1.896480377e-01	-5.179532851e-05	2.977583597e-11
-2.460000000e-02	1.896480290e-01	-4.986709113e-05	1.441902669e-11
-2.470000000e-02	1.896480203e-01	-4.793885425e-05	2.927290688e-11
-2.480000000e-02	1.896480114e-01	-4.601061787e-05	2.909836197e-11
-2.490000000e-02	1.896480026e-01	-4.408238197e-05	2.980903069e-11
-2.500000000e-02	1.896479936e-01	-4.215414659e-05	1.048502265e-11
-2.510000000e-02	1.896479846e-01	-4.022591172e-05	2.530659966e-11
-2.520000000e-02	1.896479756e-01	-3.829767735e-05	9.480598408e-12
-2.530000000e-02	1.896479665e-01	-3.636944349e-05	1.633138916e-11
-2.540000000e-02	1.896479573e-01	-3.444121015e-05	1.159585351e-11
-2.550000000e-02	1.896479481e-01	-3.251297733e-05	1.528222788e-11
-2.560000000e-02	1.896479388e-01	-3.058474503e-05	1.447148966e-11
-2.570000000e-02	1.896479294e-01	-2.865651325e-05	1.130094871e-11
-2.580000000e-02	1.896479200e-01	-2.672828200e-05	1.244495594e-11
-2.590000000e-02	1.896479105e-01	-2.480005129e-05	2.921689942e-11
-2.600000000e-02	1.896479010e-01	-2.287182110e-05	1.855635639e-11
-2.610000000e-02	1.896478914e-01	-2.094359145e-05	7.172719071e-12
-2.620000000e-02	1.896478818e-01	-1.901536233e-05	9.935931944e-12
-2.630000000e-02	1.896478721e-01	-1.708713377e-05	6.323182269e-12
-2.640000000e-02	1.896478623e-01	-1.515890573e-05	7.000191464e-11
-2.650000000e-02	1.896478525e-01	-1.323067826e-05	7.184151063e-12
-2.660000000e-02	1.896478426e-01	-1.130245134e-05	8.809577473e-12
-2.670000000e-02	1.896478327e-01	-9.374224966e-06	1.070581577e-11
-2.680000000e-02	1.896478227e-01	-7.445999147e-06	1.805089461e-11
-2.690000000e-02	1.896478127e-01	-5.517773895e-06	8.064798404e-12
-2.700000000e-02	1.896478026e-01	-3.589549203e-06	1.078407574e-11
-2.710000000e-02	1.896477924e-01	-1.661325076e-06	1.113091973e-11
-2.720000000e-02	1.896477822e-01	2.668984770e-07	2.200006722e-11
-2.730000000e-02	1.896477719e-01	2.195121469e-06	1.956169740e-11
-2.740000000e-02	1.896477615e-01	4.123343893e-06	9.669465985e-11
-2.750000000e-02	1.896477511e-01	6.051565713e-06	2.230326790e-11
-2.760000000e-02	1.896477406e-01	7.979786963e-06	6.546162419e-12
-2.770000000e-02	1.896477301e-01	9.908007633e-06	1.175924462e-11
-2.780000000e-02	1.896477195e-01	1.183622771e-05	7.316330690e-12
-2.790000000e-02	1.896477089e-01	1.376444721e-05	1.203358218e-11
-2.800000000e-02	1.896476982e-01	1.569266611e-05	9.547037566e-12
-2.810000000e-02	1.896476874e-01	1.762088441e-05	1.537212777e-11
-2.820000000e-02	1.896476766e-01	1.954910211e-05	1.392966126e-11
-2.830000000e-02	1.896476658e-01	2.147731922e-05	1.256514441e-11
-2.840000000e-02	1.896476548e-01	2.340553572e-05	7.134309042e-12
-2.850000000e-02	1.896476438e-01	2.533375161e-05	8.334002252e-12
-2.860000000e-02	1.896476328e-01	2.726196689e-05	1.131101834e-11
-2.870000000e-02	1.896476217e-01	2.919018156e-05	1.060153140e-11
-2.880000000e-02	1.896476105e-01	3.111839561e-05	1.387952587e-11
-2.890000000e-02	1.896475993e-01	3.304660904e-05	1.287497864e-11
-2.900000000e-02	1.896475880e-01	3.497482185e-05	1.546795973e-11
-2.910000000e-02	1.896475766e-01	3.690303403e-05	7.761411855e-12
-2.920000000e-02	1.896475652e-01	3.883124559e-05	7.130511521e-12
-2.930000000e-02	1.896475538e-01	4.075945652e-05	1.793383931e-11
-2.940000000e-02	1.896475422e-01	4.268766680e-05	1.859428214e-11
-2.950000000e-02	1.896475307e-01	4.461587646e-05	1.413900830e-11
-2.960000000e-02	1.896475190e-01	4.654408547e-05	1.170998605e-11
-2.970000000e-02	1.896475073e-01	4.847229383e-05	8.489569709e-12
-2.980000000e-02	1.896474956e-01	5.040050155e-05	8.429258355e-12
-2.990000000e-02	1.896474838e-01	5.232870863e-05	8.291174118e-12
-3.000000000e-02	1.896474719e-01	5.425691505e-05	7.828481995e-12
