# Im(epsi1)     Re(omega/c)      Im(omega/c)      Eq(det).Opt det CON kz, R=0.5 \mum, mu_c=0.3, Re(epsi1)=3.90solve_det_conkz_vs_kz.py
0.000000000e+00	1.896756235e-01	-5.242759427e-04	2.044527034e-11
-1.000000000e-04	1.896756292e-01	-5.223475404e-04	9.799264690e-12
-2.000000000e-04	1.896756348e-01	-5.204191379e-04	1.569066307e-11
-3.000000000e-04	1.896756404e-01	-5.184907351e-04	3.211468022e-11
-4.000000000e-04	1.896756459e-01	-5.165623321e-04	9.119975476e-12
-5.000000000e-04	1.896756514e-01	-5.146339289e-04	1.154022661e-11
-6.000000000e-04	1.896756568e-01	-5.127055255e-04	1.643293343e-11
-7.000000000e-04	1.896756622e-01	-5.107771218e-04	1.224326927e-11
-8.000000000e-04	1.896756674e-01	-5.088487180e-04	9.300357947e-12
-9.000000000e-04	1.896756727e-01	-5.069203139e-04	7.963388488e-12
-1.000000000e-03	1.896756778e-01	-5.049919096e-04	3.500176734e-11
-1.100000000e-03	1.896756829e-01	-5.030635051e-04	1.065893152e-11
-1.200000000e-03	1.896756880e-01	-5.011351004e-04	1.023730123e-11
-1.300000000e-03	1.896756930e-01	-4.992066955e-04	1.051147576e-11
-1.400000000e-03	1.896756979e-01	-4.972782903e-04	1.868493893e-11
-1.500000000e-03	1.896757028e-01	-4.953498850e-04	1.439696644e-11
-1.600000000e-03	1.896757076e-01	-4.934214795e-04	7.379736035e-12
-1.700000000e-03	1.896757124e-01	-4.914930738e-04	1.942753010e-11
-1.800000000e-03	1.896757171e-01	-4.895646679e-04	1.444490826e-11
-1.900000000e-03	1.896757217e-01	-4.876362618e-04	1.800870720e-11
-2.000000000e-03	1.896757263e-01	-4.857078556e-04	7.778843775e-12
-2.100000000e-03	1.896757308e-01	-4.837794491e-04	1.704078407e-11
-2.200000000e-03	1.896757353e-01	-4.818510425e-04	2.166896721e-11
-2.300000000e-03	1.896757397e-01	-4.799226357e-04	1.541816017e-11
-2.400000000e-03	1.896757440e-01	-4.779942288e-04	1.031744530e-11
-2.500000000e-03	1.896757483e-01	-4.760658216e-04	1.534769172e-11
-2.600000000e-03	1.896757525e-01	-4.741374143e-04	9.638373893e-12
-2.700000000e-03	1.896757567e-01	-4.722090069e-04	1.736258018e-11
-2.800000000e-03	1.896757608e-01	-4.702805993e-04	6.438521195e-12
-2.900000000e-03	1.896757649e-01	-4.683521915e-04	1.095598055e-11
-3.000000000e-03	1.896757689e-01	-4.664237836e-04	2.574467067e-11
-3.100000000e-03	1.896757728e-01	-4.644953755e-04	6.576887971e-12
-3.200000000e-03	1.896757767e-01	-4.625669673e-04	1.216048251e-11
-3.300000000e-03	1.896757805e-01	-4.606385589e-04	2.314804311e-11
-3.400000000e-03	1.896757842e-01	-4.587101504e-04	2.076252095e-11
-3.500000000e-03	1.896757879e-01	-4.567817418e-04	6.970409131e-12
-3.600000000e-03	1.896757916e-01	-4.548533330e-04	5.328962951e-12
-3.700000000e-03	1.896757952e-01	-4.529249241e-04	1.233775685e-11
-3.800000000e-03	1.896757987e-01	-4.509965151e-04	1.063581013e-11
-3.900000000e-03	1.896758021e-01	-4.490681059e-04	1.389993341e-11
-4.000000000e-03	1.896758056e-01	-4.471396966e-04	1.349855690e-11
-4.100000000e-03	1.896758089e-01	-4.452112872e-04	3.410336299e-11
-4.200000000e-03	1.896758122e-01	-4.432828777e-04	1.260522943e-11
-4.300000000e-03	1.896758154e-01	-4.413544680e-04	1.034869672e-11
-4.400000000e-03	1.896758186e-01	-4.394260583e-04	8.926704906e-12
-4.500000000e-03	1.896758217e-01	-4.374976484e-04	1.512438533e-11
-4.600000000e-03	1.896758247e-01	-4.355692385e-04	1.130201778e-11
-4.700000000e-03	1.896758277e-01	-4.336408284e-04	1.937053751e-11
-4.800000000e-03	1.896758307e-01	-4.317124182e-04	9.927726563e-12
-4.900000000e-03	1.896758336e-01	-4.297840080e-04	9.143210717e-12
-5.000000000e-03	1.896758364e-01	-4.278555976e-04	1.211881657e-11
-5.100000000e-03	1.896758391e-01	-4.259271872e-04	1.725211390e-11
-5.200000000e-03	1.896758418e-01	-4.239987766e-04	8.617692019e-12
-5.300000000e-03	1.896758445e-01	-4.220703660e-04	9.151078054e-12
-5.400000000e-03	1.896758471e-01	-4.201419553e-04	6.945409138e-12
-5.500000000e-03	1.896758496e-01	-4.182135445e-04	8.004878201e-12
-5.600000000e-03	1.896758520e-01	-4.162851337e-04	1.766654903e-11
-5.700000000e-03	1.896758544e-01	-4.143567228e-04	7.060484129e-12
-5.800000000e-03	1.896758568e-01	-4.124283118e-04	6.428965932e-12
-5.900000000e-03	1.896758591e-01	-4.104999007e-04	1.156366539e-11
-6.000000000e-03	1.896758613e-01	-4.085714896e-04	2.563172000e-11
-6.100000000e-03	1.896758635e-01	-4.066430784e-04	9.377195220e-12
-6.200000000e-03	1.896758656e-01	-4.047146672e-04	1.178068890e-11
-6.300000000e-03	1.896758676e-01	-4.027862559e-04	6.825533805e-12
-6.400000000e-03	1.896758696e-01	-4.008578445e-04	6.127935595e-12
-6.500000000e-03	1.896758716e-01	-3.989294331e-04	9.646213974e-12
-6.600000000e-03	1.896758735e-01	-3.970010217e-04	3.053011564e-11
-6.700000000e-03	1.896758753e-01	-3.950726102e-04	2.052082167e-11
-6.800000000e-03	1.896758770e-01	-3.931441987e-04	1.128820484e-11
-6.900000000e-03	1.896758787e-01	-3.912157871e-04	1.372724589e-11
-7.000000000e-03	1.896758804e-01	-3.892873755e-04	1.205058705e-11
-7.100000000e-03	1.896758820e-01	-3.873589639e-04	1.691334776e-11
-7.200000000e-03	1.896758835e-01	-3.854305522e-04	2.240092025e-11
-7.300000000e-03	1.896758850e-01	-3.835021406e-04	1.149077302e-11
-7.400000000e-03	1.896758864e-01	-3.815737289e-04	1.939002198e-11
-7.500000000e-03	1.896758877e-01	-3.796453171e-04	2.283405147e-11
-7.600000000e-03	1.896758890e-01	-3.777169054e-04	2.286849754e-11
-7.700000000e-03	1.896758902e-01	-3.757884937e-04	2.043138019e-11
-7.800000000e-03	1.896758914e-01	-3.738600819e-04	1.092750636e-11
-7.900000000e-03	1.896758925e-01	-3.719316701e-04	2.224989294e-11
-8.000000000e-03	1.896758936e-01	-3.700032584e-04	9.095679983e-12
-8.100000000e-03	1.896758946e-01	-3.680748466e-04	6.507751139e-12
-8.200000000e-03	1.896758955e-01	-3.661464348e-04	2.296108945e-11
-8.300000000e-03	1.896758964e-01	-3.642180231e-04	3.844071621e-11
-8.400000000e-03	1.896758972e-01	-3.622896113e-04	8.022386233e-12
-8.500000000e-03	1.896758980e-01	-3.603611996e-04	2.281855942e-11
-8.600000000e-03	1.896758987e-01	-3.584327879e-04	5.189370446e-12
-8.700000000e-03	1.896758993e-01	-3.565043762e-04	5.171543321e-12
-8.800000000e-03	1.896758999e-01	-3.545759645e-04	9.721637405e-12
-8.900000000e-03	1.896759004e-01	-3.526475528e-04	1.431711549e-11
-9.000000000e-03	1.896759009e-01	-3.507191412e-04	1.067563494e-11
-9.100000000e-03	1.896759013e-01	-3.487907296e-04	1.266663040e-11
-9.200000000e-03	1.896759016e-01	-3.468623180e-04	9.418223476e-12
-9.300000000e-03	1.896759019e-01	-3.449339064e-04	1.963595338e-11
-9.400000000e-03	1.896759022e-01	-3.430054949e-04	8.819730613e-12
-9.500000000e-03	1.896759023e-01	-3.410770835e-04	3.098004919e-11
-9.600000000e-03	1.896759024e-01	-3.391486720e-04	1.864479118e-11
-9.700000000e-03	1.896759025e-01	-3.372202607e-04	6.952711449e-11
-9.800000000e-03	1.896759025e-01	-3.352918493e-04	2.014451139e-11
-9.900000000e-03	1.896759024e-01	-3.333634381e-04	9.319297913e-12
-1.000000000e-02	1.896759023e-01	-3.314350268e-04	4.231574282e-11
-1.010000000e-02	1.896759021e-01	-3.295066157e-04	2.318976816e-11
-1.020000000e-02	1.896759019e-01	-3.275782046e-04	1.947674099e-11
-1.030000000e-02	1.896759016e-01	-3.256497936e-04	2.093081240e-11
-1.040000000e-02	1.896759012e-01	-3.237213826e-04	1.281213835e-11
-1.050000000e-02	1.896759008e-01	-3.217929717e-04	2.089297748e-11
-1.060000000e-02	1.896759004e-01	-3.198645609e-04	1.810788869e-10
-1.070000000e-02	1.896758998e-01	-3.179361502e-04	4.138689470e-11
-1.080000000e-02	1.896758992e-01	-3.160077395e-04	1.405423233e-11
-1.090000000e-02	1.896758986e-01	-3.140793289e-04	5.293977778e-11
-1.100000000e-02	1.896758979e-01	-3.121509184e-04	2.179274334e-11
-1.110000000e-02	1.896758971e-01	-3.102225080e-04	2.076771663e-11
-1.120000000e-02	1.896758963e-01	-3.082940977e-04	8.947236027e-12
-1.130000000e-02	1.896758954e-01	-3.063656875e-04	7.519919762e-12
-1.140000000e-02	1.896758944e-01	-3.044372774e-04	6.479568226e-12
-1.150000000e-02	1.896758934e-01	-3.025088673e-04	1.796059430e-10
-1.160000000e-02	1.896758924e-01	-3.005804574e-04	1.421910063e-11
-1.170000000e-02	1.896758913e-01	-2.986520476e-04	1.361476331e-11
-1.180000000e-02	1.896758901e-01	-2.967236379e-04	1.625996892e-11
-1.190000000e-02	1.896758888e-01	-2.947952283e-04	5.771306661e-12
-1.200000000e-02	1.896758876e-01	-2.928668189e-04	1.226757089e-11
-1.210000000e-02	1.896758862e-01	-2.909384095e-04	5.531723980e-12
-1.220000000e-02	1.896758848e-01	-2.890100003e-04	1.891822385e-11
-1.230000000e-02	1.896758833e-01	-2.870815912e-04	1.227055848e-11
-1.240000000e-02	1.896758818e-01	-2.851531822e-04	9.134609863e-12
-1.250000000e-02	1.896758802e-01	-2.832247733e-04	1.460549084e-11
-1.260000000e-02	1.896758785e-01	-2.812963646e-04	8.330504722e-12
-1.270000000e-02	1.896758768e-01	-2.793679560e-04	9.809563086e-12
-1.280000000e-02	1.896758751e-01	-2.774395476e-04	2.446236746e-11
-1.290000000e-02	1.896758732e-01	-2.755111393e-04	9.510214085e-12
-1.300000000e-02	1.896758714e-01	-2.735827311e-04	2.445724842e-11
-1.310000000e-02	1.896758694e-01	-2.716543231e-04	2.590853326e-11
-1.320000000e-02	1.896758674e-01	-2.697259153e-04	7.010896278e-12
-1.330000000e-02	1.896758654e-01	-2.677975076e-04	2.784511076e-11
-1.340000000e-02	1.896758632e-01	-2.658691000e-04	1.326295630e-11
-1.350000000e-02	1.896758611e-01	-2.639406926e-04	5.419427791e-12
-1.360000000e-02	1.896758588e-01	-2.620122854e-04	1.207679935e-11
-1.370000000e-02	1.896758565e-01	-2.600838784e-04	1.259692191e-11
-1.380000000e-02	1.896758542e-01	-2.581554715e-04	1.719636563e-11
-1.390000000e-02	1.896758518e-01	-2.562270648e-04	1.851939461e-11
-1.400000000e-02	1.896758493e-01	-2.542986582e-04	2.830323424e-11
-1.410000000e-02	1.896758468e-01	-2.523702519e-04	1.934297532e-11
-1.420000000e-02	1.896758442e-01	-2.504418457e-04	1.100621876e-11
-1.430000000e-02	1.896758415e-01	-2.485134397e-04	1.643007051e-11
-1.440000000e-02	1.896758388e-01	-2.465850339e-04	8.881329377e-12
-1.450000000e-02	1.896758360e-01	-2.446566283e-04	1.464422301e-11
-1.460000000e-02	1.896758332e-01	-2.427282229e-04	3.835144810e-11
-1.470000000e-02	1.896758303e-01	-2.407998176e-04	6.963538313e-12
-1.480000000e-02	1.896758274e-01	-2.388714126e-04	2.309402266e-11
-1.490000000e-02	1.896758244e-01	-2.369430078e-04	1.627495799e-11
-1.500000000e-02	1.896758213e-01	-2.350146032e-04	8.313397129e-12
-1.510000000e-02	1.896758182e-01	-2.330861987e-04	1.176892619e-11
-1.520000000e-02	1.896758150e-01	-2.311577945e-04	9.900770887e-12
-1.530000000e-02	1.896758118e-01	-2.292293906e-04	9.641497939e-12
-1.540000000e-02	1.896758085e-01	-2.273009868e-04	2.304589506e-11
-1.550000000e-02	1.896758052e-01	-2.253725832e-04	1.137236502e-11
-1.560000000e-02	1.896758017e-01	-2.234441799e-04	1.303026271e-11
-1.570000000e-02	1.896757983e-01	-2.215157768e-04	1.096106175e-11
-1.580000000e-02	1.896757947e-01	-2.195873739e-04	6.640119864e-12
-1.590000000e-02	1.896757912e-01	-2.176589713e-04	8.255138218e-12
-1.600000000e-02	1.896757875e-01	-2.157305689e-04	9.120858564e-12
-1.610000000e-02	1.896757838e-01	-2.138021667e-04	1.558957087e-11
-1.620000000e-02	1.896757800e-01	-2.118737648e-04	2.048092719e-11
-1.630000000e-02	1.896757762e-01	-2.099453631e-04	8.324118839e-12
-1.640000000e-02	1.896757723e-01	-2.080169616e-04	2.285018210e-11
-1.650000000e-02	1.896757684e-01	-2.060885605e-04	2.135969164e-11
-1.660000000e-02	1.896757644e-01	-2.041601595e-04	1.361132229e-11
-1.670000000e-02	1.896757603e-01	-2.022317588e-04	1.932734311e-11
-1.680000000e-02	1.896757562e-01	-2.003033584e-04	1.130140804e-11
-1.690000000e-02	1.896757520e-01	-1.983749583e-04	1.527268980e-11
-1.700000000e-02	1.896757478e-01	-1.964465584e-04	1.423798384e-11
-1.710000000e-02	1.896757435e-01	-1.945181587e-04	1.243298415e-11
-1.720000000e-02	1.896757392e-01	-1.925897594e-04	9.584726189e-12
-1.730000000e-02	1.896757348e-01	-1.906613603e-04	2.030546152e-11
-1.740000000e-02	1.896757303e-01	-1.887329615e-04	7.211260699e-12
-1.750000000e-02	1.896757258e-01	-1.868045629e-04	1.422062189e-11
-1.760000000e-02	1.896757212e-01	-1.848761647e-04	8.685593636e-12
-1.770000000e-02	1.896757165e-01	-1.829477667e-04	1.191506567e-11
-1.780000000e-02	1.896757118e-01	-1.810193691e-04	6.171778089e-12
-1.790000000e-02	1.896757071e-01	-1.790909717e-04	1.302304588e-11
-1.800000000e-02	1.896757022e-01	-1.771625746e-04	2.193377652e-11
-1.810000000e-02	1.896756973e-01	-1.752341778e-04	2.314151865e-11
-1.820000000e-02	1.896756924e-01	-1.733057813e-04	6.269198443e-11
-1.830000000e-02	1.896756874e-01	-1.713773851e-04	1.272481898e-11
-1.840000000e-02	1.896756824e-01	-1.694489893e-04	3.120432701e-11
-1.850000000e-02	1.896756772e-01	-1.675205937e-04	6.920220596e-12
-1.860000000e-02	1.896756721e-01	-1.655921984e-04	1.885796688e-11
-1.870000000e-02	1.896756668e-01	-1.636638035e-04	2.039442011e-11
-1.880000000e-02	1.896756615e-01	-1.617354089e-04	6.504877472e-12
-1.890000000e-02	1.896756562e-01	-1.598070146e-04	1.351574586e-11
-1.900000000e-02	1.896756508e-01	-1.578786206e-04	1.470482173e-11
-1.910000000e-02	1.896756453e-01	-1.559502269e-04	1.416095091e-11
-1.920000000e-02	1.896756398e-01	-1.540218336e-04	1.431437399e-11
-1.930000000e-02	1.896756342e-01	-1.520934406e-04	4.209449291e-11
-1.940000000e-02	1.896756285e-01	-1.501650480e-04	1.238940064e-11
-1.950000000e-02	1.896756228e-01	-1.482366557e-04	1.416535837e-11
-1.960000000e-02	1.896756171e-01	-1.463082637e-04	1.034466342e-11
-1.970000000e-02	1.896756113e-01	-1.443798721e-04	7.414633830e-12
-1.980000000e-02	1.896756054e-01	-1.424514808e-04	1.013934498e-11
-1.990000000e-02	1.896755994e-01	-1.405230899e-04	1.327378282e-11
-2.000000000e-02	1.896755934e-01	-1.385946993e-04	7.364407892e-12
-2.010000000e-02	1.896755874e-01	-1.366663091e-04	7.168985733e-12
-2.020000000e-02	1.896755813e-01	-1.347379192e-04	6.691998951e-12
-2.030000000e-02	1.896755751e-01	-1.328095297e-04	1.162677394e-11
-2.040000000e-02	1.896755689e-01	-1.308811406e-04	7.328877543e-12
-2.050000000e-02	1.896755626e-01	-1.289527518e-04	4.223865042e-11
-2.060000000e-02	1.896755562e-01	-1.270243635e-04	1.404316015e-11
-2.070000000e-02	1.896755498e-01	-1.250959755e-04	2.682496500e-11
-2.080000000e-02	1.896755433e-01	-1.231675878e-04	3.534339412e-11
-2.090000000e-02	1.896755368e-01	-1.212392006e-04	1.280972308e-11
-2.100000000e-02	1.896755302e-01	-1.193108137e-04	1.421413462e-11
-2.110000000e-02	1.896755236e-01	-1.173824272e-04	1.261649276e-11
-2.120000000e-02	1.896755169e-01	-1.154540411e-04	1.057417500e-11
-2.130000000e-02	1.896755101e-01	-1.135256554e-04	7.582950834e-12
-2.140000000e-02	1.896755033e-01	-1.115972701e-04	1.758214080e-11
-2.150000000e-02	1.896754964e-01	-1.096688852e-04	1.852705666e-11
-2.160000000e-02	1.896754895e-01	-1.077405007e-04	1.857251738e-11
-2.170000000e-02	1.896754825e-01	-1.058121166e-04	1.608713582e-11
-2.180000000e-02	1.896754754e-01	-1.038837329e-04	7.910592548e-12
-2.190000000e-02	1.896754683e-01	-1.019553497e-04	6.630627110e-12
-2.200000000e-02	1.896754612e-01	-1.000269668e-04	1.769063552e-11
-2.210000000e-02	1.896754539e-01	-9.809858435e-05	6.243121627e-12
-2.220000000e-02	1.896754466e-01	-9.617020232e-05	1.946928271e-11
-2.230000000e-02	1.896754393e-01	-9.424182072e-05	8.900368547e-12
-2.240000000e-02	1.896754319e-01	-9.231343954e-05	2.114219585e-11
-2.250000000e-02	1.896754244e-01	-9.038505878e-05	1.246327407e-11
-2.260000000e-02	1.896754169e-01	-8.845667847e-05	1.123079323e-11
-2.270000000e-02	1.896754093e-01	-8.652829858e-05	6.712813224e-12
-2.280000000e-02	1.896754017e-01	-8.459991913e-05	2.824719487e-11
-2.290000000e-02	1.896753940e-01	-8.267154013e-05	9.725305170e-12
-2.300000000e-02	1.896753862e-01	-8.074316156e-05	1.851581705e-11
-2.310000000e-02	1.896753784e-01	-7.881478344e-05	1.245181531e-11
-2.320000000e-02	1.896753705e-01	-7.688640578e-05	1.555797610e-11
-2.330000000e-02	1.896753626e-01	-7.495802856e-05	9.386609609e-12
-2.340000000e-02	1.896753546e-01	-7.302965180e-05	9.459384035e-12
-2.350000000e-02	1.896753465e-01	-7.110127550e-05	1.043712428e-11
-2.360000000e-02	1.896753384e-01	-6.917289966e-05	1.991959716e-11
-2.370000000e-02	1.896753302e-01	-6.724452428e-05	1.578697706e-11
-2.380000000e-02	1.896753220e-01	-6.531614938e-05	1.702691007e-11
-2.390000000e-02	1.896753137e-01	-6.338777494e-05	1.394264324e-11
-2.400000000e-02	1.896753054e-01	-6.145940097e-05	1.324394902e-11
-2.410000000e-02	1.896752969e-01	-5.953102749e-05	3.772942734e-11
-2.420000000e-02	1.896752885e-01	-5.760265448e-05	5.293086970e-12
-2.430000000e-02	1.896752800e-01	-5.567428195e-05	1.525756166e-11
-2.440000000e-02	1.896752714e-01	-5.374590991e-05	1.016499365e-11
-2.450000000e-02	1.896752627e-01	-5.181753836e-05	1.326736002e-11
-2.460000000e-02	1.896752540e-01	-4.988916729e-05	1.770789441e-11
-2.470000000e-02	1.896752453e-01	-4.796079673e-05	1.006282451e-11
-2.480000000e-02	1.896752365e-01	-4.603242666e-05	1.456277975e-11
-2.490000000e-02	1.896752276e-01	-4.410405709e-05	1.581783313e-11
-2.500000000e-02	1.896752186e-01	-4.217568802e-05	2.484910801e-11
-2.510000000e-02	1.896752096e-01	-4.024731946e-05	1.399847590e-11
-2.520000000e-02	1.896752006e-01	-3.831895141e-05	1.562266242e-11
-2.530000000e-02	1.896751915e-01	-3.639058387e-05	4.922123295e-11
-2.540000000e-02	1.896751823e-01	-3.446221684e-05	1.289994433e-11
-2.550000000e-02	1.896751731e-01	-3.253385034e-05	1.080562765e-11
-2.560000000e-02	1.896751638e-01	-3.060548435e-05	6.491602490e-12
-2.570000000e-02	1.896751544e-01	-2.867711889e-05	1.670450861e-11
-2.580000000e-02	1.896751450e-01	-2.674875396e-05	1.108420803e-11
-2.590000000e-02	1.896751356e-01	-2.482038955e-05	1.377352451e-11
-2.600000000e-02	1.896751260e-01	-2.289202568e-05	1.001428680e-11
-2.610000000e-02	1.896751165e-01	-2.096366234e-05	9.133235931e-12
-2.620000000e-02	1.896751068e-01	-1.903529955e-05	1.438133744e-11
-2.630000000e-02	1.896750971e-01	-1.710693729e-05	1.809633318e-11
-2.640000000e-02	1.896750874e-01	-1.517857558e-05	1.855939738e-11
-2.650000000e-02	1.896750776e-01	-1.325021442e-05	1.848199985e-11
-2.660000000e-02	1.896750677e-01	-1.132185381e-05	1.476422464e-11
-2.670000000e-02	1.896750577e-01	-9.393493752e-06	1.501812511e-11
-2.680000000e-02	1.896750477e-01	-7.465134254e-06	1.871697094e-11
-2.690000000e-02	1.896750377e-01	-5.536775311e-06	7.988133874e-12
-2.700000000e-02	1.896750276e-01	-3.608416933e-06	8.509277477e-12
-2.710000000e-02	1.896750174e-01	-1.680059121e-06	6.462779628e-12
-2.720000000e-02	1.896750072e-01	2.482981208e-07	7.733592461e-12
-2.730000000e-02	1.896749969e-01	2.176654792e-06	1.141317144e-11
-2.740000000e-02	1.896749866e-01	4.105010890e-06	3.813964230e-11
-2.750000000e-02	1.896749761e-01	6.033366407e-06	2.780983732e-11
-2.760000000e-02	1.896749657e-01	7.961721347e-06	8.406206724e-12
-2.770000000e-02	1.896749552e-01	9.890075703e-06	1.854691580e-11
-2.780000000e-02	1.896749446e-01	1.181842947e-05	2.016945739e-11
-2.790000000e-02	1.896749339e-01	1.374678265e-05	1.941283420e-11
-2.800000000e-02	1.896749232e-01	1.567513523e-05	1.760279231e-11
-2.810000000e-02	1.896749125e-01	1.760348722e-05	5.845582949e-12
-2.820000000e-02	1.896749017e-01	1.953183862e-05	1.989679849e-11
-2.830000000e-02	1.896748908e-01	2.146018941e-05	1.406133405e-11
-2.840000000e-02	1.896748799e-01	2.338853959e-05	2.111886037e-11
-2.850000000e-02	1.896748689e-01	2.531688917e-05	9.353860838e-12
-2.860000000e-02	1.896748578e-01	2.724523814e-05	9.201162629e-12
-2.870000000e-02	1.896748467e-01	2.917358649e-05	9.318804697e-12
-2.880000000e-02	1.896748355e-01	3.110193423e-05	5.286298018e-12
-2.890000000e-02	1.896748243e-01	3.303028135e-05	5.099110137e-12
-2.900000000e-02	1.896748130e-01	3.495862784e-05	5.013489233e-12
-2.910000000e-02	1.896748017e-01	3.688697371e-05	1.317764916e-11
-2.920000000e-02	1.896747903e-01	3.881531896e-05	9.227943392e-12
-2.930000000e-02	1.896747788e-01	4.074366357e-05	9.466583159e-12
-2.940000000e-02	1.896747673e-01	4.267200754e-05	2.041171163e-11
-2.950000000e-02	1.896747557e-01	4.460035088e-05	1.689080557e-11
-2.960000000e-02	1.896747441e-01	4.652869358e-05	1.399839048e-11
-2.970000000e-02	1.896747324e-01	4.845703564e-05	8.701550193e-12
-2.980000000e-02	1.896747206e-01	5.038537705e-05	2.272596269e-11
-2.990000000e-02	1.896747088e-01	5.231371780e-05	1.014897219e-11
-3.000000000e-02	1.896746969e-01	5.424205791e-05	5.064836543e-12
