# Im(epsi1)     Re(omega/c)      Im(omega/c)      Eq(det).Opt det CON kz, R=0.5 \mum, mu_c=0.3, Re(epsi1)=3.90solve_det_conkz_vs_kz.py
0.000000000e+00	1.896655333e-01	-5.242596722e-04	2.053381923e-11
-1.000000000e-04	1.896655390e-01	-5.223313196e-04	8.610730397e-12
-2.000000000e-04	1.896655447e-01	-5.204029668e-04	2.103041011e-11
-3.000000000e-04	1.896655503e-01	-5.184746137e-04	7.037625567e-12
-4.000000000e-04	1.896655558e-01	-5.165462604e-04	2.782147407e-11
-5.000000000e-04	1.896655612e-01	-5.146179068e-04	1.639216744e-11
-6.000000000e-04	1.896655666e-01	-5.126895530e-04	8.065420784e-12
-7.000000000e-04	1.896655720e-01	-5.107611991e-04	2.280295063e-11
-8.000000000e-04	1.896655773e-01	-5.088328448e-04	2.031968602e-11
-9.000000000e-04	1.896655825e-01	-5.069044904e-04	7.638033188e-11
-1.000000000e-03	1.896655877e-01	-5.049761358e-04	1.489165399e-11
-1.100000000e-03	1.896655928e-01	-5.030477809e-04	8.080824230e-12
-1.200000000e-03	1.896655978e-01	-5.011194259e-04	8.894092590e-12
-1.300000000e-03	1.896656028e-01	-4.991910706e-04	1.342299635e-11
-1.400000000e-03	1.896656077e-01	-4.972627152e-04	1.229912156e-11
-1.500000000e-03	1.896656126e-01	-4.953343595e-04	1.380704036e-11
-1.600000000e-03	1.896656174e-01	-4.934060036e-04	3.841629722e-11
-1.700000000e-03	1.896656222e-01	-4.914776476e-04	1.173521904e-11
-1.800000000e-03	1.896656269e-01	-4.895492914e-04	2.135927221e-11
-1.900000000e-03	1.896656315e-01	-4.876209349e-04	1.303480590e-11
-2.000000000e-03	1.896656361e-01	-4.856925783e-04	1.912136011e-11
-2.100000000e-03	1.896656406e-01	-4.837642216e-04	2.033615568e-11
-2.200000000e-03	1.896656451e-01	-4.818358646e-04	7.667644221e-12
-2.300000000e-03	1.896656495e-01	-4.799075075e-04	1.946134367e-11
-2.400000000e-03	1.896656538e-01	-4.779791502e-04	1.807068012e-11
-2.500000000e-03	1.896656581e-01	-4.760507927e-04	1.797751868e-11
-2.600000000e-03	1.896656624e-01	-4.741224351e-04	9.554757077e-12
-2.700000000e-03	1.896656665e-01	-4.721940773e-04	8.636368457e-12
-2.800000000e-03	1.896656706e-01	-4.702657193e-04	8.699249541e-12
-2.900000000e-03	1.896656747e-01	-4.683373612e-04	7.649179204e-12
-3.000000000e-03	1.896656787e-01	-4.664090029e-04	1.676346268e-11
-3.100000000e-03	1.896656826e-01	-4.644806445e-04	3.958637909e-11
-3.200000000e-03	1.896656865e-01	-4.625522860e-04	1.730979287e-11
-3.300000000e-03	1.896656903e-01	-4.606239273e-04	1.324158765e-11
-3.400000000e-03	1.896656941e-01	-4.586955684e-04	1.247708618e-11
-3.500000000e-03	1.896656978e-01	-4.567672094e-04	2.711452938e-11
-3.600000000e-03	1.896657014e-01	-4.548388503e-04	1.027015312e-11
-3.700000000e-03	1.896657050e-01	-4.529104911e-04	1.005343508e-11
-3.800000000e-03	1.896657085e-01	-4.509821317e-04	1.742413267e-11
-3.900000000e-03	1.896657120e-01	-4.490537722e-04	2.763531252e-11
-4.000000000e-03	1.896657154e-01	-4.471254125e-04	8.996935811e-12
-4.100000000e-03	1.896657187e-01	-4.451970528e-04	9.888238502e-11
-4.200000000e-03	1.896657220e-01	-4.432686929e-04	2.972183656e-11
-4.300000000e-03	1.896657252e-01	-4.413403329e-04	1.740933901e-11
-4.400000000e-03	1.896657284e-01	-4.394119729e-04	4.660371123e-11
-4.500000000e-03	1.896657315e-01	-4.374836127e-04	1.355943081e-11
-4.600000000e-03	1.896657346e-01	-4.355552524e-04	3.340663289e-11
-4.700000000e-03	1.896657376e-01	-4.336268919e-04	1.635063066e-11
-4.800000000e-03	1.896657405e-01	-4.316985314e-04	2.307143287e-11
-4.900000000e-03	1.896657434e-01	-4.297701708e-04	1.447300262e-11
-5.000000000e-03	1.896657462e-01	-4.278418101e-04	1.032569691e-11
-5.100000000e-03	1.896657490e-01	-4.259134494e-04	1.730444885e-11
-5.200000000e-03	1.896657517e-01	-4.239850885e-04	1.765819617e-11
-5.300000000e-03	1.896657543e-01	-4.220567275e-04	5.307886225e-12
-5.400000000e-03	1.896657569e-01	-4.201283665e-04	2.202767377e-11
-5.500000000e-03	1.896657594e-01	-4.182000054e-04	1.878664513e-11
-5.600000000e-03	1.896657619e-01	-4.162716442e-04	9.618564323e-12
-5.700000000e-03	1.896657643e-01	-4.143432829e-04	1.753943833e-11
-5.800000000e-03	1.896657666e-01	-4.124149216e-04	1.938079556e-11
-5.900000000e-03	1.896657689e-01	-4.104865602e-04	1.078675947e-11
-6.000000000e-03	1.896657711e-01	-4.085581987e-04	1.219481808e-11
-6.100000000e-03	1.896657733e-01	-4.066298372e-04	8.112099683e-12
-6.200000000e-03	1.896657754e-01	-4.047014756e-04	1.868033955e-11
-6.300000000e-03	1.896657775e-01	-4.027731140e-04	1.175865322e-11
-6.400000000e-03	1.896657795e-01	-4.008447523e-04	9.654411764e-11
-6.500000000e-03	1.896657814e-01	-3.989163905e-04	8.570162118e-12
-6.600000000e-03	1.896657833e-01	-3.969880287e-04	1.231549933e-11
-6.700000000e-03	1.896657851e-01	-3.950596669e-04	7.337479499e-12
-6.800000000e-03	1.896657869e-01	-3.931313051e-04	2.139680519e-11
-6.900000000e-03	1.896657886e-01	-3.912029432e-04	2.127525482e-11
-7.000000000e-03	1.896657902e-01	-3.892745812e-04	7.152134688e-11
-7.100000000e-03	1.896657918e-01	-3.873462193e-04	1.333432493e-11
-7.200000000e-03	1.896657933e-01	-3.854178573e-04	1.068549133e-11
-7.300000000e-03	1.896657948e-01	-3.834894952e-04	9.637136650e-12
-7.400000000e-03	1.896657962e-01	-3.815611332e-04	1.769219152e-11
-7.500000000e-03	1.896657975e-01	-3.796327711e-04	1.793089067e-11
-7.600000000e-03	1.896657988e-01	-3.777044091e-04	1.419906612e-11
-7.700000000e-03	1.896658000e-01	-3.757760470e-04	1.630690795e-11
-7.800000000e-03	1.896658012e-01	-3.738476849e-04	1.721580136e-11
-7.900000000e-03	1.896658023e-01	-3.719193228e-04	7.625254663e-12
-8.000000000e-03	1.896658034e-01	-3.699909607e-04	1.707587111e-11
-8.100000000e-03	1.896658044e-01	-3.680625986e-04	1.662626623e-11
-8.200000000e-03	1.896658053e-01	-3.661342365e-04	9.612417266e-12
-8.300000000e-03	1.896658062e-01	-3.642058744e-04	4.697042210e-12
-8.400000000e-03	1.896658070e-01	-3.622775123e-04	1.664174947e-11
-8.500000000e-03	1.896658078e-01	-3.603491502e-04	4.437880541e-11
-8.600000000e-03	1.896658085e-01	-3.584207881e-04	1.738103056e-11
-8.700000000e-03	1.896658091e-01	-3.564924261e-04	8.800028684e-12
-8.800000000e-03	1.896658097e-01	-3.545640640e-04	1.583979166e-11
-8.900000000e-03	1.896658102e-01	-3.526357020e-04	1.262412029e-11
-9.000000000e-03	1.896658107e-01	-3.507073400e-04	3.375381139e-11
-9.100000000e-03	1.896658111e-01	-3.487789781e-04	2.722511178e-11
-9.200000000e-03	1.896658115e-01	-3.468506162e-04	2.034486754e-11
-9.300000000e-03	1.896658117e-01	-3.449222543e-04	1.339098414e-11
-9.400000000e-03	1.896658120e-01	-3.429938924e-04	9.273618421e-12
-9.500000000e-03	1.896658121e-01	-3.410655306e-04	1.429859431e-11
-9.600000000e-03	1.896658123e-01	-3.391371689e-04	1.174364271e-11
-9.700000000e-03	1.896658123e-01	-3.372088071e-04	1.226855784e-11
-9.800000000e-03	1.896658123e-01	-3.352804455e-04	8.993921644e-12
-9.900000000e-03	1.896658123e-01	-3.333520839e-04	1.021403567e-11
-1.000000000e-02	1.896658121e-01	-3.314237223e-04	2.117381423e-11
-1.010000000e-02	1.896658120e-01	-3.294953608e-04	9.770011466e-11
-1.020000000e-02	1.896658117e-01	-3.275669994e-04	1.389520211e-11
-1.030000000e-02	1.896658114e-01	-3.256386380e-04	8.075900789e-12
-1.040000000e-02	1.896658111e-01	-3.237102767e-04	9.431985519e-12
-1.050000000e-02	1.896658106e-01	-3.217819155e-04	1.285112550e-11
-1.060000000e-02	1.896658102e-01	-3.198535543e-04	1.999490209e-11
-1.070000000e-02	1.896658096e-01	-3.179251932e-04	9.958349614e-12
-1.080000000e-02	1.896658090e-01	-3.159968322e-04	1.045451434e-11
-1.090000000e-02	1.896658084e-01	-3.140684713e-04	1.612180786e-11
-1.100000000e-02	1.896658077e-01	-3.121401105e-04	1.088164698e-11
-1.110000000e-02	1.896658069e-01	-3.102117497e-04	1.882620654e-11
-1.120000000e-02	1.896658061e-01	-3.082833891e-04	6.076154490e-11
-1.130000000e-02	1.896658052e-01	-3.063550285e-04	3.782243622e-11
-1.140000000e-02	1.896658043e-01	-3.044266680e-04	1.172253044e-11
-1.150000000e-02	1.896658033e-01	-3.024983077e-04	8.447691985e-12
-1.160000000e-02	1.896658022e-01	-3.005699474e-04	1.820971862e-11
-1.170000000e-02	1.896658011e-01	-2.986415873e-04	1.003596412e-11
-1.180000000e-02	1.896657999e-01	-2.967132272e-04	1.917402101e-11
-1.190000000e-02	1.896657987e-01	-2.947848673e-04	8.862818817e-12
-1.200000000e-02	1.896657974e-01	-2.928565075e-04	6.330979806e-12
-1.210000000e-02	1.896657960e-01	-2.909281478e-04	2.077580658e-11
-1.220000000e-02	1.896657946e-01	-2.889997882e-04	9.442015573e-12
-1.230000000e-02	1.896657931e-01	-2.870714288e-04	1.224472713e-11
-1.240000000e-02	1.896657916e-01	-2.851430694e-04	9.154582280e-11
-1.250000000e-02	1.896657900e-01	-2.832147102e-04	1.820892715e-11
-1.260000000e-02	1.896657884e-01	-2.812863512e-04	1.191327196e-11
-1.270000000e-02	1.896657866e-01	-2.793579923e-04	1.351061639e-11
-1.280000000e-02	1.896657849e-01	-2.774296335e-04	1.074798463e-11
-1.290000000e-02	1.896657831e-01	-2.755012748e-04	6.544114130e-12
-1.300000000e-02	1.896657812e-01	-2.735729163e-04	1.495198136e-11
-1.310000000e-02	1.896657792e-01	-2.716445580e-04	1.167111468e-11
-1.320000000e-02	1.896657772e-01	-2.697161998e-04	3.866926386e-12
-1.330000000e-02	1.896657752e-01	-2.677878418e-04	1.272809886e-11
-1.340000000e-02	1.896657730e-01	-2.658594839e-04	8.411170711e-12
-1.350000000e-02	1.896657709e-01	-2.639311262e-04	1.049577478e-11
-1.360000000e-02	1.896657686e-01	-2.620027686e-04	1.909609299e-11
-1.370000000e-02	1.896657663e-01	-2.600744112e-04	2.626927793e-11
-1.380000000e-02	1.896657640e-01	-2.581460540e-04	9.874065172e-12
-1.390000000e-02	1.896657616e-01	-2.562176969e-04	2.935223731e-11
-1.400000000e-02	1.896657591e-01	-2.542893400e-04	1.234857028e-11
-1.410000000e-02	1.896657566e-01	-2.523609833e-04	2.549887999e-11
-1.420000000e-02	1.896657540e-01	-2.504326268e-04	2.611153083e-11
-1.430000000e-02	1.896657513e-01	-2.485042705e-04	1.277013003e-11
-1.440000000e-02	1.896657486e-01	-2.465759143e-04	1.262732305e-11
-1.450000000e-02	1.896657459e-01	-2.446475584e-04	9.527437897e-12
-1.460000000e-02	1.896657430e-01	-2.427192026e-04	1.594065907e-11
-1.470000000e-02	1.896657402e-01	-2.407908470e-04	9.163225753e-12
-1.480000000e-02	1.896657372e-01	-2.388624917e-04	9.499973365e-12
-1.490000000e-02	1.896657342e-01	-2.369341365e-04	1.349466180e-11
-1.500000000e-02	1.896657312e-01	-2.350057815e-04	7.854798255e-12
-1.510000000e-02	1.896657280e-01	-2.330774268e-04	1.209153709e-11
-1.520000000e-02	1.896657249e-01	-2.311490722e-04	1.188867449e-11
-1.530000000e-02	1.896657216e-01	-2.292207179e-04	9.496591973e-12
-1.540000000e-02	1.896657183e-01	-2.272923638e-04	4.840973666e-11
-1.550000000e-02	1.896657150e-01	-2.253640099e-04	2.360261536e-11
-1.560000000e-02	1.896657116e-01	-2.234356562e-04	1.432666545e-11
-1.570000000e-02	1.896657081e-01	-2.215073028e-04	1.418795005e-11
-1.580000000e-02	1.896657046e-01	-2.195789496e-04	6.822743020e-12
-1.590000000e-02	1.896657010e-01	-2.176505966e-04	1.149090032e-11
-1.600000000e-02	1.896656973e-01	-2.157222438e-04	1.318666183e-11
-1.610000000e-02	1.896656936e-01	-2.137938913e-04	5.484916223e-11
-1.620000000e-02	1.896656899e-01	-2.118655391e-04	1.448407639e-11
-1.630000000e-02	1.896656860e-01	-2.099371870e-04	2.504899151e-11
-1.640000000e-02	1.896656821e-01	-2.080088353e-04	1.083617436e-11
-1.650000000e-02	1.896656782e-01	-2.060804837e-04	1.091589180e-11
-1.660000000e-02	1.896656742e-01	-2.041521324e-04	1.020936016e-11
-1.670000000e-02	1.896656701e-01	-2.022237814e-04	1.013696810e-11
-1.680000000e-02	1.896656660e-01	-2.002954307e-04	1.016024713e-11
-1.690000000e-02	1.896656619e-01	-1.983670802e-04	1.316222565e-11
-1.700000000e-02	1.896656576e-01	-1.964387299e-04	3.328533099e-11
-1.710000000e-02	1.896656533e-01	-1.945103800e-04	1.430391798e-11
-1.720000000e-02	1.896656490e-01	-1.925820303e-04	4.507077921e-11
-1.730000000e-02	1.896656446e-01	-1.906536808e-04	3.301323517e-11
-1.740000000e-02	1.896656401e-01	-1.887253317e-04	2.131456697e-11
-1.750000000e-02	1.896656356e-01	-1.867969828e-04	1.281235012e-11
-1.760000000e-02	1.896656310e-01	-1.848686342e-04	9.862270252e-12
-1.770000000e-02	1.896656263e-01	-1.829402859e-04	1.182629986e-11
-1.780000000e-02	1.896656216e-01	-1.810119379e-04	1.681175435e-11
-1.790000000e-02	1.896656169e-01	-1.790835902e-04	1.123737533e-11
-1.800000000e-02	1.896656120e-01	-1.771552428e-04	1.287111584e-11
-1.810000000e-02	1.896656072e-01	-1.752268956e-04	6.151748413e-11
-1.820000000e-02	1.896656022e-01	-1.732985488e-04	1.364250832e-11
-1.830000000e-02	1.896655972e-01	-1.713702023e-04	1.951131557e-11
-1.840000000e-02	1.896655922e-01	-1.694418561e-04	1.297264386e-11
-1.850000000e-02	1.896655870e-01	-1.675135101e-04	2.204244531e-11
-1.860000000e-02	1.896655819e-01	-1.655851645e-04	1.336405324e-11
-1.870000000e-02	1.896655766e-01	-1.636568193e-04	9.728260867e-12
-1.880000000e-02	1.896655713e-01	-1.617284743e-04	1.569835680e-11
-1.890000000e-02	1.896655660e-01	-1.598001297e-04	1.999785766e-11
-1.900000000e-02	1.896655606e-01	-1.578717853e-04	1.496099274e-11
-1.910000000e-02	1.896655551e-01	-1.559434413e-04	8.421846216e-12
-1.920000000e-02	1.896655496e-01	-1.540150977e-04	1.892882746e-11
-1.930000000e-02	1.896655440e-01	-1.520867543e-04	1.774226619e-11
-1.940000000e-02	1.896655384e-01	-1.501584114e-04	1.002686170e-11
-1.950000000e-02	1.896655327e-01	-1.482300687e-04	4.430873969e-12
-1.960000000e-02	1.896655269e-01	-1.463017264e-04	2.009077542e-11
-1.970000000e-02	1.896655211e-01	-1.443733844e-04	8.477185319e-12
-1.980000000e-02	1.896655152e-01	-1.424450428e-04	7.824144345e-12
-1.990000000e-02	1.896655093e-01	-1.405167015e-04	8.151549087e-12
-2.000000000e-02	1.896655033e-01	-1.385883606e-04	1.023511612e-11
-2.010000000e-02	1.896654972e-01	-1.366600201e-04	1.003931597e-11
-2.020000000e-02	1.896654911e-01	-1.347316799e-04	1.375917430e-11
-2.030000000e-02	1.896654849e-01	-1.328033400e-04	1.769563486e-11
-2.040000000e-02	1.896654787e-01	-1.308750006e-04	9.522120011e-12
-2.050000000e-02	1.896654724e-01	-1.289466615e-04	1.408945048e-11
-2.060000000e-02	1.896654660e-01	-1.270183228e-04	5.271694495e-11
-2.070000000e-02	1.896654596e-01	-1.250899844e-04	3.620815993e-11
-2.080000000e-02	1.896654532e-01	-1.231616464e-04	3.260753118e-11
-2.090000000e-02	1.896654466e-01	-1.212333088e-04	1.128839354e-11
-2.100000000e-02	1.896654400e-01	-1.193049716e-04	2.041614129e-11
-2.110000000e-02	1.896654334e-01	-1.173766348e-04	8.804550417e-12
-2.120000000e-02	1.896654267e-01	-1.154482984e-04	1.042976624e-11
-2.130000000e-02	1.896654199e-01	-1.135199623e-04	2.853467544e-11
-2.140000000e-02	1.896654131e-01	-1.115916267e-04	1.587943189e-11
-2.150000000e-02	1.896654062e-01	-1.096632915e-04	8.717197037e-12
-2.160000000e-02	1.896653993e-01	-1.077349566e-04	1.378722567e-11
-2.170000000e-02	1.896653923e-01	-1.058066222e-04	4.880207502e-12
-2.180000000e-02	1.896653852e-01	-1.038782881e-04	1.131815140e-11
-2.190000000e-02	1.896653781e-01	-1.019499545e-04	1.041385356e-11
-2.200000000e-02	1.896653710e-01	-1.000216213e-04	7.161029229e-12
-2.210000000e-02	1.896653637e-01	-9.809328853e-05	1.866007138e-11
-2.220000000e-02	1.896653564e-01	-9.616495616e-05	1.026946370e-11
-2.230000000e-02	1.896653491e-01	-9.423662422e-05	8.351622852e-12
-2.240000000e-02	1.896653417e-01	-9.230829270e-05	1.350901721e-11
-2.250000000e-02	1.896653342e-01	-9.037996161e-05	1.694928893e-11
-2.260000000e-02	1.896653267e-01	-8.845163095e-05	1.305055078e-11
-2.270000000e-02	1.896653191e-01	-8.652330072e-05	1.478562994e-11
-2.280000000e-02	1.896653115e-01	-8.459497093e-05	1.324630681e-11
-2.290000000e-02	1.896653038e-01	-8.266664158e-05	1.672831870e-11
-2.300000000e-02	1.896652960e-01	-8.073831268e-05	1.013104959e-11
-2.310000000e-02	1.896652882e-01	-7.880998422e-05	9.689998551e-12
-2.320000000e-02	1.896652803e-01	-7.688165622e-05	8.354372114e-11
-2.330000000e-02	1.896652724e-01	-7.495332866e-05	1.178685469e-11
-2.340000000e-02	1.896652644e-01	-7.302500156e-05	1.155569370e-11
-2.350000000e-02	1.896652563e-01	-7.109667492e-05	1.898773190e-11
-2.360000000e-02	1.896652482e-01	-6.916834874e-05	1.676135845e-11
-2.370000000e-02	1.896652400e-01	-6.724002302e-05	8.170452258e-12
-2.380000000e-02	1.896652318e-01	-6.531169777e-05	2.645907627e-11
-2.390000000e-02	1.896652235e-01	-6.338337300e-05	2.151426921e-11
-2.400000000e-02	1.896652152e-01	-6.145504869e-05	1.135931166e-11
-2.410000000e-02	1.896652068e-01	-5.952672486e-05	1.030676992e-11
-2.420000000e-02	1.896651983e-01	-5.759840151e-05	1.814180706e-11
-2.430000000e-02	1.896651898e-01	-5.567007864e-05	1.545967147e-11
-2.440000000e-02	1.896651812e-01	-5.374175627e-05	2.041678420e-11
-2.450000000e-02	1.896651725e-01	-5.181343437e-05	8.402439391e-12
-2.460000000e-02	1.896651638e-01	-4.988511297e-05	1.728038490e-11
-2.470000000e-02	1.896651551e-01	-4.795679206e-05	1.345005006e-11
-2.480000000e-02	1.896651463e-01	-4.602847165e-05	3.009980550e-11
-2.490000000e-02	1.896651374e-01	-4.410015174e-05	8.252228777e-12
-2.500000000e-02	1.896651284e-01	-4.217183233e-05	1.063483994e-11
-2.510000000e-02	1.896651195e-01	-4.024351343e-05	3.018415288e-11
-2.520000000e-02	1.896651104e-01	-3.831519504e-05	2.897864925e-11
-2.530000000e-02	1.896651013e-01	-3.638687716e-05	3.509190086e-11
-2.540000000e-02	1.896650921e-01	-3.445855979e-05	7.480276766e-12
-2.550000000e-02	1.896650829e-01	-3.253024295e-05	2.424775491e-11
-2.560000000e-02	1.896650736e-01	-3.060192662e-05	1.558949608e-11
-2.570000000e-02	1.896650642e-01	-2.867361082e-05	1.076420792e-11
-2.580000000e-02	1.896650548e-01	-2.674529555e-05	9.281710472e-12
-2.590000000e-02	1.896650454e-01	-2.481698080e-05	1.100566324e-11
-2.600000000e-02	1.896650359e-01	-2.288866659e-05	1.707847508e-11
-2.610000000e-02	1.896650263e-01	-2.096035291e-05	1.213853298e-11
-2.620000000e-02	1.896650166e-01	-1.903203978e-05	1.467281973e-11
-2.630000000e-02	1.896650069e-01	-1.710372718e-05	1.833527059e-11
-2.640000000e-02	1.896649972e-01	-1.517541513e-05	3.949206165e-11
-2.650000000e-02	1.896649874e-01	-1.324710363e-05	1.376375069e-11
-2.660000000e-02	1.896649775e-01	-1.131879268e-05	2.195098272e-11
-2.670000000e-02	1.896649675e-01	-9.390482284e-06	1.023518928e-11
-2.680000000e-02	1.896649576e-01	-7.462172442e-06	5.813805513e-11
-2.690000000e-02	1.896649475e-01	-5.533863163e-06	9.066068433e-12
-2.700000000e-02	1.896649374e-01	-3.605554446e-06	7.913573280e-12
-2.710000000e-02	1.896649272e-01	-1.677246293e-06	1.797288961e-11
-2.720000000e-02	1.896649170e-01	2.510612886e-07	1.034044863e-11
-2.730000000e-02	1.896649067e-01	2.179368302e-06	1.789303307e-11
-2.740000000e-02	1.896648964e-01	4.107674737e-06	8.537303799e-12
-2.750000000e-02	1.896648860e-01	6.035980597e-06	1.626145152e-11
-2.760000000e-02	1.896648755e-01	7.964285874e-06	1.605882873e-11
-2.770000000e-02	1.896648650e-01	9.892590570e-06	5.089391335e-11
-2.780000000e-02	1.896648544e-01	1.182089468e-05	9.427351840e-12
-2.790000000e-02	1.896648437e-01	1.374919820e-05	1.294916864e-11
-2.800000000e-02	1.896648330e-01	1.567750112e-05	1.260934001e-11
-2.810000000e-02	1.896648223e-01	1.760580345e-05	1.193163104e-11
-2.820000000e-02	1.896648115e-01	1.953410518e-05	9.646482297e-12
-2.830000000e-02	1.896648006e-01	2.146240631e-05	1.656767092e-11
-2.840000000e-02	1.896647897e-01	2.339070683e-05	1.641803373e-11
-2.850000000e-02	1.896647787e-01	2.531900675e-05	2.485539723e-11
-2.860000000e-02	1.896647676e-01	2.724730606e-05	5.736089821e-12
-2.870000000e-02	1.896647565e-01	2.917560475e-05	2.585278671e-11
-2.880000000e-02	1.896647453e-01	3.110390283e-05	1.186451514e-11
-2.890000000e-02	1.896647341e-01	3.303220029e-05	6.924135454e-12
-2.900000000e-02	1.896647228e-01	3.496049713e-05	9.456456935e-12
-2.910000000e-02	1.896647115e-01	3.688879334e-05	4.050339010e-11
-2.920000000e-02	1.896647001e-01	3.881708892e-05	1.876022465e-11
-2.930000000e-02	1.896646886e-01	4.074538386e-05	3.076885307e-11
-2.940000000e-02	1.896646771e-01	4.267367818e-05	1.073064901e-11
-2.950000000e-02	1.896646655e-01	4.460197186e-05	1.540417054e-11
-2.960000000e-02	1.896646539e-01	4.653026490e-05	1.313401260e-11
-2.970000000e-02	1.896646422e-01	4.845855729e-05	1.025274675e-11
-2.980000000e-02	1.896646304e-01	5.038684904e-05	1.146222223e-11
-2.990000000e-02	1.896646186e-01	5.231514014e-05	2.068806826e-11
-3.000000000e-02	1.896646067e-01	5.424343058e-05	2.291865151e-11
