# Im(epsi1)     Re(omega/c)      Im(omega/c)      Eq(det).Opt det CON kz, R=0.5 \mum, mu_c=0.3, Re(epsi1)=3.90solve_det_conkz_vs_kz.py
0.000000000e+00	1.896581410e-01	-5.242446878e-04	1.365748394e-11
-1.000000000e-04	1.896581467e-01	-5.223163714e-04	2.653593667e-11
-2.000000000e-04	1.896581524e-01	-5.203880549e-04	1.918242306e-11
-3.000000000e-04	1.896581580e-01	-5.184597381e-04	2.687767866e-11
-4.000000000e-04	1.896581635e-01	-5.165314211e-04	2.280407220e-11
-5.000000000e-04	1.896581689e-01	-5.146031038e-04	7.577754954e-12
-6.000000000e-04	1.896581743e-01	-5.126747863e-04	1.602467914e-11
-7.000000000e-04	1.896581797e-01	-5.107464686e-04	2.809650641e-11
-8.000000000e-04	1.896581850e-01	-5.088181507e-04	2.055122511e-11
-9.000000000e-04	1.896581902e-01	-5.068898326e-04	1.382181049e-11
-1.000000000e-03	1.896581954e-01	-5.049615142e-04	1.013150929e-11
-1.100000000e-03	1.896582005e-01	-5.030331957e-04	2.891637006e-11
-1.200000000e-03	1.896582055e-01	-5.011048769e-04	8.130408397e-11
-1.300000000e-03	1.896582105e-01	-4.991765580e-04	1.628932993e-11
-1.400000000e-03	1.896582155e-01	-4.972482388e-04	1.530793334e-11
-1.500000000e-03	1.896582203e-01	-4.953199194e-04	1.010017979e-11
-1.600000000e-03	1.896582251e-01	-4.933915999e-04	9.223354800e-12
-1.700000000e-03	1.896582299e-01	-4.914632801e-04	2.002114475e-11
-1.800000000e-03	1.896582346e-01	-4.895349602e-04	7.248298085e-12
-1.900000000e-03	1.896582392e-01	-4.876066401e-04	9.773029450e-12
-2.000000000e-03	1.896582438e-01	-4.856783198e-04	1.165648836e-11
-2.100000000e-03	1.896582483e-01	-4.837499993e-04	1.731479202e-11
-2.200000000e-03	1.896582528e-01	-4.818216786e-04	4.198270429e-11
-2.300000000e-03	1.896582572e-01	-4.798933578e-04	1.494411906e-11
-2.400000000e-03	1.896582615e-01	-4.779650368e-04	1.041924953e-11
-2.500000000e-03	1.896582658e-01	-4.760367156e-04	5.803262864e-11
-2.600000000e-03	1.896582701e-01	-4.741083943e-04	3.926444098e-11
-2.700000000e-03	1.896582742e-01	-4.721800728e-04	2.091341178e-11
-2.800000000e-03	1.896582783e-01	-4.702517511e-04	5.260453330e-12
-2.900000000e-03	1.896582824e-01	-4.683234293e-04	1.348743735e-11
-3.000000000e-03	1.896582864e-01	-4.663951073e-04	8.495694122e-12
-3.100000000e-03	1.896582903e-01	-4.644667852e-04	4.262596008e-11
-3.200000000e-03	1.896582942e-01	-4.625384629e-04	7.306766098e-12
-3.300000000e-03	1.896582980e-01	-4.606101405e-04	2.233332885e-11
-3.400000000e-03	1.896583018e-01	-4.586818180e-04	8.697162011e-12
-3.500000000e-03	1.896583055e-01	-4.567534953e-04	3.252874108e-11
-3.600000000e-03	1.896583091e-01	-4.548251725e-04	9.907256152e-12
-3.700000000e-03	1.896583127e-01	-4.528968495e-04	6.885669585e-12
-3.800000000e-03	1.896583162e-01	-4.509685264e-04	1.216899011e-11
-3.900000000e-03	1.896583197e-01	-4.490402032e-04	2.646570421e-11
-4.000000000e-03	1.896583231e-01	-4.471118799e-04	6.623850064e-12
-4.100000000e-03	1.896583264e-01	-4.451835564e-04	2.772001515e-11
-4.200000000e-03	1.896583297e-01	-4.432552329e-04	8.410227036e-11
-4.300000000e-03	1.896583329e-01	-4.413269092e-04	5.654257134e-11
-4.400000000e-03	1.896583361e-01	-4.393985854e-04	9.258210898e-12
-4.500000000e-03	1.896583392e-01	-4.374702615e-04	1.648463632e-11
-4.600000000e-03	1.896583423e-01	-4.355419375e-04	6.664757428e-12
-4.700000000e-03	1.896583453e-01	-4.336136133e-04	9.003265623e-12
-4.800000000e-03	1.896583482e-01	-4.316852891e-04	2.902275463e-11
-4.900000000e-03	1.896583511e-01	-4.297569648e-04	1.891976150e-11
-5.000000000e-03	1.896583539e-01	-4.278286404e-04	9.196939157e-12
-5.100000000e-03	1.896583567e-01	-4.259003159e-04	8.324626080e-12
-5.200000000e-03	1.896583594e-01	-4.239719914e-04	1.119300506e-11
-5.300000000e-03	1.896583620e-01	-4.220436667e-04	1.061474703e-11
-5.400000000e-03	1.896583646e-01	-4.201153419e-04	1.834200593e-11
-5.500000000e-03	1.896583671e-01	-4.181870171e-04	1.772037296e-11
-5.600000000e-03	1.896583696e-01	-4.162586922e-04	1.961533725e-11
-5.700000000e-03	1.896583720e-01	-4.143303673e-04	7.384769181e-12
-5.800000000e-03	1.896583743e-01	-4.124020422e-04	1.663167955e-11
-5.900000000e-03	1.896583766e-01	-4.104737171e-04	1.871547658e-11
-6.000000000e-03	1.896583788e-01	-4.085453919e-04	6.568023786e-12
-6.100000000e-03	1.896583810e-01	-4.066170667e-04	1.253745688e-11
-6.200000000e-03	1.896583831e-01	-4.046887414e-04	2.235476679e-11
-6.300000000e-03	1.896583852e-01	-4.027604161e-04	1.660117039e-11
-6.400000000e-03	1.896583872e-01	-4.008320907e-04	1.246991670e-11
-6.500000000e-03	1.896583891e-01	-3.989037652e-04	1.805173866e-11
-6.600000000e-03	1.896583910e-01	-3.969754398e-04	1.242841456e-11
-6.700000000e-03	1.896583928e-01	-3.950471142e-04	1.007021028e-11
-6.800000000e-03	1.896583946e-01	-3.931187887e-04	5.140707950e-11
-6.900000000e-03	1.896583963e-01	-3.911904631e-04	3.642031952e-11
-7.000000000e-03	1.896583979e-01	-3.892621374e-04	6.606873934e-12
-7.100000000e-03	1.896583995e-01	-3.873338117e-04	1.619274960e-11
-7.200000000e-03	1.896584010e-01	-3.854054860e-04	7.685946392e-12
-7.300000000e-03	1.896584025e-01	-3.834771603e-04	9.656462887e-12
-7.400000000e-03	1.896584039e-01	-3.815488346e-04	1.781811450e-11
-7.500000000e-03	1.896584052e-01	-3.796205088e-04	1.980256888e-11
-7.600000000e-03	1.896584065e-01	-3.776921830e-04	1.805469731e-11
-7.700000000e-03	1.896584077e-01	-3.757638572e-04	1.758728394e-11
-7.800000000e-03	1.896584089e-01	-3.738355314e-04	3.553305289e-11
-7.900000000e-03	1.896584100e-01	-3.719072056e-04	1.219329231e-11
-8.000000000e-03	1.896584111e-01	-3.699788798e-04	5.504049529e-12
-8.100000000e-03	1.896584121e-01	-3.680505540e-04	1.307508922e-11
-8.200000000e-03	1.896584130e-01	-3.661222282e-04	6.108251739e-12
-8.300000000e-03	1.896584139e-01	-3.641939024e-04	1.263476024e-11
-8.400000000e-03	1.896584147e-01	-3.622655766e-04	1.129508774e-11
-8.500000000e-03	1.896584155e-01	-3.603372508e-04	8.855108879e-12
-8.600000000e-03	1.896584162e-01	-3.584089250e-04	1.792095635e-11
-8.700000000e-03	1.896584168e-01	-3.564805993e-04	2.306820154e-11
-8.800000000e-03	1.896584174e-01	-3.545522736e-04	2.478329608e-11
-8.900000000e-03	1.896584179e-01	-3.526239478e-04	9.501442300e-12
-9.000000000e-03	1.896584184e-01	-3.506956222e-04	1.379584971e-11
-9.100000000e-03	1.896584188e-01	-3.487672965e-04	2.012197882e-11
-9.200000000e-03	1.896584191e-01	-3.468389709e-04	3.585909793e-11
-9.300000000e-03	1.896584194e-01	-3.449106453e-04	8.661743021e-12
-9.400000000e-03	1.896584197e-01	-3.429823197e-04	6.818260649e-11
-9.500000000e-03	1.896584198e-01	-3.410539942e-04	3.678470170e-11
-9.600000000e-03	1.896584200e-01	-3.391256687e-04	1.490617061e-11
-9.700000000e-03	1.896584200e-01	-3.371973433e-04	7.104636243e-12
-9.800000000e-03	1.896584200e-01	-3.352690180e-04	1.849330680e-11
-9.900000000e-03	1.896584199e-01	-3.333406926e-04	2.211605680e-11
-1.000000000e-02	1.896584198e-01	-3.314123674e-04	2.355101138e-11
-1.010000000e-02	1.896584196e-01	-3.294840422e-04	1.001131393e-11
-1.020000000e-02	1.896584194e-01	-3.275557170e-04	1.775148458e-11
-1.030000000e-02	1.896584191e-01	-3.256273920e-04	1.817135005e-11
-1.040000000e-02	1.896584187e-01	-3.236990669e-04	4.821286844e-12
-1.050000000e-02	1.896584183e-01	-3.217707420e-04	1.403891196e-11
-1.060000000e-02	1.896584179e-01	-3.198424171e-04	2.777048755e-11
-1.070000000e-02	1.896584173e-01	-3.179140924e-04	1.001199348e-11
-1.080000000e-02	1.896584167e-01	-3.159857677e-04	7.780599621e-12
-1.090000000e-02	1.896584161e-01	-3.140574430e-04	1.417895522e-11
-1.100000000e-02	1.896584154e-01	-3.121291185e-04	1.186471688e-11
-1.110000000e-02	1.896584146e-01	-3.102007940e-04	1.573710263e-11
-1.120000000e-02	1.896584138e-01	-3.082724697e-04	1.542509973e-11
-1.130000000e-02	1.896584129e-01	-3.063441454e-04	3.221809680e-11
-1.140000000e-02	1.896584120e-01	-3.044158212e-04	2.348130811e-11
-1.150000000e-02	1.896584110e-01	-3.024874972e-04	1.963638607e-11
-1.160000000e-02	1.896584099e-01	-3.005591732e-04	1.459345226e-11
-1.170000000e-02	1.896584088e-01	-2.986308494e-04	6.264023358e-12
-1.180000000e-02	1.896584076e-01	-2.967025256e-04	7.823929409e-12
-1.190000000e-02	1.896584064e-01	-2.947742020e-04	1.426496140e-11
-1.200000000e-02	1.896584051e-01	-2.928458785e-04	2.176042749e-11
-1.210000000e-02	1.896584037e-01	-2.909175551e-04	8.877787121e-12
-1.220000000e-02	1.896584023e-01	-2.889892318e-04	9.512954390e-12
-1.230000000e-02	1.896584008e-01	-2.870609086e-04	8.623751494e-12
-1.240000000e-02	1.896583993e-01	-2.851325856e-04	1.454834021e-11
-1.250000000e-02	1.896583977e-01	-2.832042627e-04	1.285028728e-11
-1.260000000e-02	1.896583960e-01	-2.812759399e-04	2.820708152e-11
-1.270000000e-02	1.896583943e-01	-2.793476173e-04	1.280495535e-11
-1.280000000e-02	1.896583926e-01	-2.774192948e-04	1.926869854e-11
-1.290000000e-02	1.896583907e-01	-2.754909725e-04	8.714314876e-12
-1.300000000e-02	1.896583889e-01	-2.735626503e-04	7.780943504e-12
-1.310000000e-02	1.896583869e-01	-2.716343282e-04	7.901966331e-12
-1.320000000e-02	1.896583849e-01	-2.697060063e-04	7.569775277e-12
-1.330000000e-02	1.896583829e-01	-2.677776846e-04	9.998731108e-11
-1.340000000e-02	1.896583807e-01	-2.658493630e-04	2.186155800e-11
-1.350000000e-02	1.896583786e-01	-2.639210416e-04	4.032178813e-11
-1.360000000e-02	1.896583763e-01	-2.619927203e-04	3.079391506e-11
-1.370000000e-02	1.896583740e-01	-2.600643992e-04	3.242934279e-11
-1.380000000e-02	1.896583717e-01	-2.581360783e-04	1.436140907e-11
-1.390000000e-02	1.896583693e-01	-2.562077575e-04	8.884634988e-12
-1.400000000e-02	1.896583668e-01	-2.542794369e-04	4.098372379e-11
-1.410000000e-02	1.896583643e-01	-2.523511165e-04	1.348091643e-11
-1.420000000e-02	1.896583617e-01	-2.504227963e-04	8.453240038e-12
-1.430000000e-02	1.896583590e-01	-2.484944763e-04	3.153410294e-11
-1.440000000e-02	1.896583563e-01	-2.465661564e-04	1.188040579e-11
-1.450000000e-02	1.896583535e-01	-2.446378368e-04	8.635619459e-12
-1.460000000e-02	1.896583507e-01	-2.427095173e-04	1.282260621e-11
-1.470000000e-02	1.896583478e-01	-2.407811980e-04	7.278822153e-12
-1.480000000e-02	1.896583449e-01	-2.388528789e-04	1.081182970e-11
-1.490000000e-02	1.896583419e-01	-2.369245601e-04	1.651520151e-11
-1.500000000e-02	1.896583388e-01	-2.349962414e-04	2.070541861e-11
-1.510000000e-02	1.896583357e-01	-2.330679230e-04	4.224914445e-11
-1.520000000e-02	1.896583325e-01	-2.311396047e-04	1.142220350e-11
-1.530000000e-02	1.896583293e-01	-2.292112867e-04	1.072217284e-11
-1.540000000e-02	1.896583260e-01	-2.272829689e-04	1.107990184e-11
-1.550000000e-02	1.896583227e-01	-2.253546513e-04	1.366390119e-11
-1.560000000e-02	1.896583192e-01	-2.234263339e-04	1.093227689e-11
-1.570000000e-02	1.896583158e-01	-2.214980167e-04	1.240274312e-11
-1.580000000e-02	1.896583122e-01	-2.195696998e-04	1.269438895e-11
-1.590000000e-02	1.896583087e-01	-2.176413831e-04	1.385520101e-11
-1.600000000e-02	1.896583050e-01	-2.157130667e-04	7.954547833e-12
-1.610000000e-02	1.896583013e-01	-2.137847505e-04	6.018140060e-12
-1.620000000e-02	1.896582975e-01	-2.118564345e-04	7.764892968e-12
-1.630000000e-02	1.896582937e-01	-2.099281187e-04	1.372530584e-11
-1.640000000e-02	1.896582898e-01	-2.079998033e-04	2.471962844e-11
-1.650000000e-02	1.896582859e-01	-2.060714880e-04	2.562991174e-11
-1.660000000e-02	1.896582819e-01	-2.041431730e-04	1.074368561e-11
-1.670000000e-02	1.896582778e-01	-2.022148583e-04	2.721493580e-11
-1.680000000e-02	1.896582737e-01	-2.002865439e-04	1.079967328e-11
-1.690000000e-02	1.896582695e-01	-1.983582297e-04	1.392686855e-11
-1.700000000e-02	1.896582653e-01	-1.964299157e-04	1.246437384e-11
-1.710000000e-02	1.896582610e-01	-1.945016020e-04	9.064891712e-12
-1.720000000e-02	1.896582567e-01	-1.925732886e-04	1.297344399e-11
-1.730000000e-02	1.896582522e-01	-1.906449755e-04	1.974321593e-11
-1.740000000e-02	1.896582478e-01	-1.887166626e-04	6.590075514e-12
-1.750000000e-02	1.896582432e-01	-1.867883501e-04	1.036895836e-11
-1.760000000e-02	1.896582387e-01	-1.848600378e-04	1.507831705e-11
-1.770000000e-02	1.896582340e-01	-1.829317258e-04	1.025839399e-11
-1.780000000e-02	1.896582293e-01	-1.810034141e-04	4.935404154e-11
-1.790000000e-02	1.896582245e-01	-1.790751026e-04	1.129311421e-11
-1.800000000e-02	1.896582197e-01	-1.771467915e-04	9.987000939e-12
-1.810000000e-02	1.896582148e-01	-1.752184807e-04	4.828414207e-11
-1.820000000e-02	1.896582099e-01	-1.732901701e-04	2.665222356e-11
-1.830000000e-02	1.896582049e-01	-1.713618599e-04	1.077415122e-11
-1.840000000e-02	1.896581998e-01	-1.694335500e-04	1.866716768e-11
-1.850000000e-02	1.896581947e-01	-1.675052404e-04	1.120837454e-11
-1.860000000e-02	1.896581896e-01	-1.655769311e-04	1.019467574e-11
-1.870000000e-02	1.896581843e-01	-1.636486221e-04	2.513552010e-11
-1.880000000e-02	1.896581790e-01	-1.617203134e-04	3.407182368e-11
-1.890000000e-02	1.896581737e-01	-1.597920051e-04	1.838271310e-11
-1.900000000e-02	1.896581683e-01	-1.578636970e-04	1.513791696e-11
-1.910000000e-02	1.896581628e-01	-1.559353894e-04	7.968867349e-12
-1.920000000e-02	1.896581573e-01	-1.540070820e-04	1.192206734e-11
-1.930000000e-02	1.896581517e-01	-1.520787750e-04	2.103269342e-11
-1.940000000e-02	1.896581460e-01	-1.501504683e-04	1.053524210e-11
-1.950000000e-02	1.896581403e-01	-1.482221619e-04	9.869601546e-12
-1.960000000e-02	1.896581346e-01	-1.462938559e-04	1.101940597e-11
-1.970000000e-02	1.896581287e-01	-1.443655502e-04	5.413851001e-12
-1.980000000e-02	1.896581229e-01	-1.424372449e-04	3.864202532e-11
-1.990000000e-02	1.896581169e-01	-1.405089399e-04	1.931564139e-11
-2.000000000e-02	1.896581109e-01	-1.385806353e-04	2.308968123e-11
-2.010000000e-02	1.896581049e-01	-1.366523311e-04	9.681648564e-12
-2.020000000e-02	1.896580988e-01	-1.347240272e-04	1.459340092e-11
-2.030000000e-02	1.896580926e-01	-1.327957236e-04	1.042448244e-11
-2.040000000e-02	1.896580864e-01	-1.308674204e-04	4.147058317e-11
-2.050000000e-02	1.896580801e-01	-1.289391176e-04	2.809642342e-11
-2.060000000e-02	1.896580737e-01	-1.270108152e-04	4.631669567e-11
-2.070000000e-02	1.896580673e-01	-1.250825132e-04	1.936730614e-11
-2.080000000e-02	1.896580608e-01	-1.231542115e-04	1.196546663e-11
-2.090000000e-02	1.896580543e-01	-1.212259102e-04	1.310231217e-11
-2.100000000e-02	1.896580477e-01	-1.192976093e-04	1.864259216e-11
-2.110000000e-02	1.896580411e-01	-1.173693088e-04	8.437098393e-12
-2.120000000e-02	1.896580344e-01	-1.154410086e-04	1.745655946e-11
-2.130000000e-02	1.896580276e-01	-1.135127089e-04	6.137040041e-12
-2.140000000e-02	1.896580208e-01	-1.115844095e-04	1.253430066e-11
-2.150000000e-02	1.896580139e-01	-1.096561106e-04	1.541946098e-11
-2.160000000e-02	1.896580070e-01	-1.077278120e-04	1.469049075e-11
-2.170000000e-02	1.896580000e-01	-1.057995139e-04	1.455102225e-11
-2.180000000e-02	1.896579929e-01	-1.038712162e-04	1.940702737e-11
-2.190000000e-02	1.896579858e-01	-1.019429188e-04	6.791266681e-12
-2.200000000e-02	1.896579786e-01	-1.000146219e-04	2.473246937e-11
-2.210000000e-02	1.896579714e-01	-9.808632545e-05	4.650292657e-11
-2.220000000e-02	1.896579641e-01	-9.615802937e-05	1.221905458e-11
-2.230000000e-02	1.896579568e-01	-9.422973373e-05	1.840773874e-11
-2.240000000e-02	1.896579494e-01	-9.230143850e-05	1.344186308e-11
-2.250000000e-02	1.896579419e-01	-9.037314371e-05	1.128075698e-11
-2.260000000e-02	1.896579344e-01	-8.844484934e-05	1.058471507e-11
-2.270000000e-02	1.896579268e-01	-8.651655542e-05	1.761613291e-11
-2.280000000e-02	1.896579191e-01	-8.458826193e-05	3.533541480e-11
-2.290000000e-02	1.896579114e-01	-8.265996887e-05	1.517235102e-11
-2.300000000e-02	1.896579037e-01	-8.073167627e-05	9.851058304e-12
-2.310000000e-02	1.896578959e-01	-7.880338411e-05	8.800745076e-12
-2.320000000e-02	1.896578880e-01	-7.687509240e-05	1.635354498e-11
-2.330000000e-02	1.896578800e-01	-7.494680114e-05	1.602502543e-11
-2.340000000e-02	1.896578720e-01	-7.301851033e-05	1.170049794e-11
-2.350000000e-02	1.896578640e-01	-7.109021999e-05	1.561835839e-11
-2.360000000e-02	1.896578559e-01	-6.916193011e-05	1.069719261e-11
-2.370000000e-02	1.896578477e-01	-6.723364068e-05	4.615227083e-11
-2.380000000e-02	1.896578395e-01	-6.530535174e-05	1.189390125e-11
-2.390000000e-02	1.896578312e-01	-6.337706326e-05	1.538314001e-11
-2.400000000e-02	1.896578228e-01	-6.144877524e-05	3.113939017e-11
-2.410000000e-02	1.896578144e-01	-5.952048772e-05	1.135310137e-11
-2.420000000e-02	1.896578060e-01	-5.759220066e-05	6.034282967e-11
-2.430000000e-02	1.896577974e-01	-5.566391410e-05	9.784611561e-12
-2.440000000e-02	1.896577888e-01	-5.373562801e-05	2.628388614e-11
-2.450000000e-02	1.896577802e-01	-5.180734241e-05	1.477135631e-11
-2.460000000e-02	1.896577715e-01	-4.987905731e-05	9.282376826e-12
-2.470000000e-02	1.896577627e-01	-4.795077270e-05	2.915528321e-11
-2.480000000e-02	1.896577539e-01	-4.602248859e-05	9.373094677e-12
-2.490000000e-02	1.896577451e-01	-4.409420497e-05	1.626322752e-11
-2.500000000e-02	1.896577361e-01	-4.216592186e-05	1.325424556e-11
-2.510000000e-02	1.896577271e-01	-4.023763926e-05	1.467987534e-11
-2.520000000e-02	1.896577181e-01	-3.830935716e-05	1.634174201e-11
-2.530000000e-02	1.896577090e-01	-3.638107558e-05	1.667897498e-11
-2.540000000e-02	1.896576998e-01	-3.445279452e-05	1.413702775e-11
-2.550000000e-02	1.896576906e-01	-3.252451396e-05	1.123409848e-11
-2.560000000e-02	1.896576813e-01	-3.059623394e-05	9.801601249e-12
-2.570000000e-02	1.896576719e-01	-2.866795444e-05	1.597264564e-11
-2.580000000e-02	1.896576625e-01	-2.673967545e-05	3.785677198e-11
-2.590000000e-02	1.896576530e-01	-2.481139701e-05	7.680059560e-12
-2.600000000e-02	1.896576435e-01	-2.288311910e-05	1.846513086e-11
-2.610000000e-02	1.896576339e-01	-2.095484172e-05	5.041543062e-11
-2.620000000e-02	1.896576243e-01	-1.902656488e-05	9.624596213e-12
-2.630000000e-02	1.896576146e-01	-1.709828858e-05	9.925054210e-12
-2.640000000e-02	1.896576048e-01	-1.517001283e-05	1.094949243e-11
-2.650000000e-02	1.896575950e-01	-1.324173762e-05	5.040263117e-12
-2.660000000e-02	1.896575851e-01	-1.131346297e-05	5.689170059e-11
-2.670000000e-02	1.896575752e-01	-9.385188871e-06	1.076715288e-11
-2.680000000e-02	1.896575652e-01	-7.456915331e-06	1.199388511e-11
-2.690000000e-02	1.896575552e-01	-5.528642345e-06	1.117447802e-11
-2.700000000e-02	1.896575451e-01	-3.600369925e-06	1.210048916e-11
-2.710000000e-02	1.896575349e-01	-1.672098070e-06	1.803852595e-11
-2.720000000e-02	1.896575247e-01	2.561732135e-07	1.066808852e-11
-2.730000000e-02	1.896575144e-01	2.184443928e-06	4.108774540e-11
-2.740000000e-02	1.896575040e-01	4.112714066e-06	7.967098065e-12
-2.750000000e-02	1.896574936e-01	6.040983627e-06	1.423339702e-11
-2.760000000e-02	1.896574832e-01	7.969252607e-06	1.115865905e-11
-2.770000000e-02	1.896574726e-01	9.897521004e-06	1.944590922e-11
-2.780000000e-02	1.896574620e-01	1.182578881e-05	1.040050446e-11
-2.790000000e-02	1.896574514e-01	1.375405604e-05	7.194266321e-12
-2.800000000e-02	1.896574407e-01	1.568232266e-05	1.198046418e-11
-2.810000000e-02	1.896574299e-01	1.761058869e-05	1.351968668e-11
-2.820000000e-02	1.896574191e-01	1.953885410e-05	1.959300214e-10
-2.830000000e-02	1.896574083e-01	2.146711896e-05	2.959708441e-11
-2.840000000e-02	1.896573973e-01	2.339538319e-05	8.672956286e-12
-2.850000000e-02	1.896573863e-01	2.532364681e-05	1.742259233e-11
-2.860000000e-02	1.896573753e-01	2.725190982e-05	1.871120779e-11
-2.870000000e-02	1.896573642e-01	2.918017221e-05	1.149774876e-11
-2.880000000e-02	1.896573530e-01	3.110843399e-05	1.017058884e-11
-2.890000000e-02	1.896573418e-01	3.303669515e-05	2.214739713e-11
-2.900000000e-02	1.896573305e-01	3.496495569e-05	1.660858668e-11
-2.910000000e-02	1.896573191e-01	3.689321560e-05	1.163585471e-11
-2.920000000e-02	1.896573077e-01	3.882147488e-05	7.410169539e-12
-2.930000000e-02	1.896572963e-01	4.074973354e-05	1.092455569e-11
-2.940000000e-02	1.896572848e-01	4.267799155e-05	1.595588724e-11
-2.950000000e-02	1.896572732e-01	4.460624893e-05	1.343777511e-11
-2.960000000e-02	1.896572615e-01	4.653450567e-05	1.458586951e-11
-2.970000000e-02	1.896572498e-01	4.846276177e-05	1.690478370e-11
-2.980000000e-02	1.896572381e-01	5.039101722e-05	9.880455588e-12
-2.990000000e-02	1.896572263e-01	5.231927202e-05	5.087624505e-12
-3.000000000e-02	1.896572144e-01	5.424752617e-05	1.576254951e-11
