# Im(epsi1)     Re(omega/c)      Im(omega/c)      Eq(det).Opt det CON kz, R=0.5 \mum, mu_c=0.3, Re(epsi1)=3.90solve_det_conkz_vs_kz.py
0.000000000e+00	1.896426400e-01	-5.242048522e-04	3.418345422e-11
-1.000000000e-04	1.896426457e-01	-5.222766117e-04	3.483179305e-11
-2.000000000e-04	1.896426513e-01	-5.203483710e-04	2.679192217e-11
-3.000000000e-04	1.896426569e-01	-5.184201301e-04	3.423331222e-11
-4.000000000e-04	1.896426624e-01	-5.164918890e-04	2.770491381e-11
-5.000000000e-04	1.896426679e-01	-5.145636476e-04	6.902702118e-12
-6.000000000e-04	1.896426733e-01	-5.126354060e-04	1.283869501e-11
-7.000000000e-04	1.896426786e-01	-5.107071642e-04	3.920168566e-11
-8.000000000e-04	1.896426839e-01	-5.087789221e-04	5.961074443e-12
-9.000000000e-04	1.896426891e-01	-5.068506799e-04	9.913113597e-12
-1.000000000e-03	1.896426943e-01	-5.049224374e-04	2.985228943e-11
-1.100000000e-03	1.896426994e-01	-5.029941947e-04	1.150817861e-11
-1.200000000e-03	1.896427045e-01	-5.010659518e-04	7.100551449e-12
-1.300000000e-03	1.896427095e-01	-4.991377087e-04	1.315647056e-11
-1.400000000e-03	1.896427144e-01	-4.972094654e-04	8.952773860e-12
-1.500000000e-03	1.896427193e-01	-4.952812219e-04	1.187286942e-11
-1.600000000e-03	1.896427241e-01	-4.933529783e-04	1.530688900e-11
-1.700000000e-03	1.896427288e-01	-4.914247344e-04	9.763946037e-12
-1.800000000e-03	1.896427335e-01	-4.894964903e-04	1.523157767e-11
-1.900000000e-03	1.896427382e-01	-4.875682461e-04	1.196964922e-11
-2.000000000e-03	1.896427427e-01	-4.856400016e-04	1.167029328e-11
-2.100000000e-03	1.896427473e-01	-4.837117570e-04	1.255267050e-11
-2.200000000e-03	1.896427517e-01	-4.817835122e-04	6.022718190e-12
-2.300000000e-03	1.896427561e-01	-4.798552673e-04	3.142986666e-11
-2.400000000e-03	1.896427605e-01	-4.779270221e-04	1.199331741e-11
-2.500000000e-03	1.896427648e-01	-4.759987768e-04	2.535620586e-11
-2.600000000e-03	1.896427690e-01	-4.740705314e-04	1.741116446e-11
-2.700000000e-03	1.896427732e-01	-4.721422857e-04	2.306938028e-11
-2.800000000e-03	1.896427773e-01	-4.702140400e-04	3.885252193e-11
-2.900000000e-03	1.896427813e-01	-4.682857940e-04	1.343489384e-11
-3.000000000e-03	1.896427853e-01	-4.663575479e-04	1.880313443e-11
-3.100000000e-03	1.896427892e-01	-4.644293017e-04	1.586585305e-11
-3.200000000e-03	1.896427931e-01	-4.625010553e-04	1.393105036e-11
-3.300000000e-03	1.896427969e-01	-4.605728087e-04	1.400978347e-11
-3.400000000e-03	1.896428007e-01	-4.586445621e-04	9.189268401e-12
-3.500000000e-03	1.896428044e-01	-4.567163153e-04	2.098840744e-11
-3.600000000e-03	1.896428080e-01	-4.547880683e-04	1.240293502e-11
-3.700000000e-03	1.896428116e-01	-4.528598212e-04	3.035513967e-11
-3.800000000e-03	1.896428151e-01	-4.509315740e-04	1.979699384e-11
-3.900000000e-03	1.896428186e-01	-4.490033267e-04	1.806796717e-11
-4.000000000e-03	1.896428220e-01	-4.470750792e-04	6.018087258e-12
-4.100000000e-03	1.896428253e-01	-4.451468316e-04	1.645609153e-11
-4.200000000e-03	1.896428286e-01	-4.432185839e-04	4.487487390e-11
-4.300000000e-03	1.896428319e-01	-4.412903361e-04	1.156530417e-11
-4.400000000e-03	1.896428350e-01	-4.393620882e-04	2.472103622e-11
-4.500000000e-03	1.896428381e-01	-4.374338402e-04	1.410952321e-11
-4.600000000e-03	1.896428412e-01	-4.355055920e-04	4.531923780e-11
-4.700000000e-03	1.896428442e-01	-4.335773438e-04	7.561740071e-12
-4.800000000e-03	1.896428471e-01	-4.316490955e-04	1.150617241e-11
-4.900000000e-03	1.896428500e-01	-4.297208470e-04	2.471129419e-11
-5.000000000e-03	1.896428528e-01	-4.277925985e-04	1.451343720e-11
-5.100000000e-03	1.896428556e-01	-4.258643499e-04	1.631615645e-10
-5.200000000e-03	1.896428583e-01	-4.239361012e-04	3.045503318e-11
-5.300000000e-03	1.896428609e-01	-4.220078524e-04	1.093718893e-11
-5.400000000e-03	1.896428635e-01	-4.200796035e-04	1.022220399e-11
-5.500000000e-03	1.896428660e-01	-4.181513546e-04	5.425456209e-12
-5.600000000e-03	1.896428685e-01	-4.162231055e-04	9.459926793e-12
-5.700000000e-03	1.896428709e-01	-4.142948564e-04	2.059923348e-11
-5.800000000e-03	1.896428732e-01	-4.123666073e-04	7.593838396e-12
-5.900000000e-03	1.896428755e-01	-4.104383580e-04	8.600242407e-12
-6.000000000e-03	1.896428777e-01	-4.085101087e-04	2.486503870e-11
-6.100000000e-03	1.896428799e-01	-4.065818594e-04	1.773503833e-11
-6.200000000e-03	1.896428820e-01	-4.046536100e-04	1.411842354e-11
-6.300000000e-03	1.896428841e-01	-4.027253605e-04	6.898276567e-12
-6.400000000e-03	1.896428861e-01	-4.007971110e-04	1.111656716e-10
-6.500000000e-03	1.896428880e-01	-3.988688614e-04	1.257799160e-11
-6.600000000e-03	1.896428899e-01	-3.969406118e-04	2.610296002e-11
-6.700000000e-03	1.896428917e-01	-3.950123621e-04	1.321762594e-11
-6.800000000e-03	1.896428935e-01	-3.930841124e-04	2.586235556e-11
-6.900000000e-03	1.896428952e-01	-3.911558627e-04	8.193359929e-12
-7.000000000e-03	1.896428968e-01	-3.892276129e-04	6.916923532e-12
-7.100000000e-03	1.896428984e-01	-3.872993632e-04	2.061454745e-11
-7.200000000e-03	1.896428999e-01	-3.853711133e-04	1.589378234e-11
-7.300000000e-03	1.896429014e-01	-3.834428635e-04	3.700233860e-11
-7.400000000e-03	1.896429028e-01	-3.815146136e-04	3.487576836e-11
-7.500000000e-03	1.896429041e-01	-3.795863637e-04	1.623191922e-11
-7.600000000e-03	1.896429054e-01	-3.776581138e-04	9.496204207e-12
-7.700000000e-03	1.896429066e-01	-3.757298639e-04	1.196755619e-11
-7.800000000e-03	1.896429078e-01	-3.738016140e-04	1.245964563e-11
-7.900000000e-03	1.896429089e-01	-3.718733640e-04	8.823842946e-12
-8.000000000e-03	1.896429100e-01	-3.699451141e-04	1.671824264e-11
-8.100000000e-03	1.896429110e-01	-3.680168642e-04	1.185711933e-11
-8.200000000e-03	1.896429119e-01	-3.660886142e-04	1.673692042e-11
-8.300000000e-03	1.896429128e-01	-3.641603643e-04	1.438826002e-11
-8.400000000e-03	1.896429136e-01	-3.622321144e-04	1.664816052e-11
-8.500000000e-03	1.896429144e-01	-3.603038644e-04	2.864136960e-11
-8.600000000e-03	1.896429151e-01	-3.583756145e-04	1.001639589e-11
-8.700000000e-03	1.896429157e-01	-3.564473647e-04	4.767522928e-12
-8.800000000e-03	1.896429163e-01	-3.545191148e-04	2.067904235e-11
-8.900000000e-03	1.896429168e-01	-3.525908650e-04	1.198707678e-11
-9.000000000e-03	1.896429173e-01	-3.506626152e-04	2.080247869e-11
-9.100000000e-03	1.896429177e-01	-3.487343654e-04	1.241614205e-11
-9.200000000e-03	1.896429180e-01	-3.468061156e-04	7.543481889e-12
-9.300000000e-03	1.896429183e-01	-3.448778659e-04	8.590546279e-12
-9.400000000e-03	1.896429186e-01	-3.429496162e-04	1.311141665e-11
-9.500000000e-03	1.896429187e-01	-3.410213666e-04	7.818265113e-12
-9.600000000e-03	1.896429188e-01	-3.390931170e-04	1.379664397e-11
-9.700000000e-03	1.896429189e-01	-3.371648675e-04	5.805173545e-12
-9.800000000e-03	1.896429189e-01	-3.352366180e-04	1.286354368e-11
-9.900000000e-03	1.896429188e-01	-3.333083685e-04	4.930185859e-12
-1.000000000e-02	1.896429187e-01	-3.313801191e-04	2.007043611e-11
-1.010000000e-02	1.896429185e-01	-3.294518698e-04	1.420372732e-11
-1.020000000e-02	1.896429183e-01	-3.275236205e-04	1.063413965e-11
-1.030000000e-02	1.896429180e-01	-3.255953713e-04	9.131863026e-12
-1.040000000e-02	1.896429176e-01	-3.236671222e-04	9.527306891e-12
-1.050000000e-02	1.896429172e-01	-3.217388731e-04	1.063686278e-11
-1.060000000e-02	1.896429167e-01	-3.198106241e-04	5.859911176e-12
-1.070000000e-02	1.896429162e-01	-3.178823752e-04	1.261653479e-11
-1.080000000e-02	1.896429156e-01	-3.159541264e-04	7.944614704e-12
-1.090000000e-02	1.896429150e-01	-3.140258776e-04	2.140293416e-11
-1.100000000e-02	1.896429143e-01	-3.120976290e-04	9.942462618e-12
-1.110000000e-02	1.896429135e-01	-3.101693804e-04	1.023303173e-11
-1.120000000e-02	1.896429127e-01	-3.082411319e-04	1.296915251e-11
-1.130000000e-02	1.896429118e-01	-3.063128835e-04	1.409697466e-11
-1.140000000e-02	1.896429108e-01	-3.043846352e-04	1.420929033e-11
-1.150000000e-02	1.896429098e-01	-3.024563870e-04	2.078980282e-11
-1.160000000e-02	1.896429088e-01	-3.005281390e-04	6.769664282e-12
-1.170000000e-02	1.896429076e-01	-2.985998910e-04	1.462024914e-11
-1.180000000e-02	1.896429065e-01	-2.966716431e-04	1.207173783e-11
-1.190000000e-02	1.896429052e-01	-2.947433953e-04	1.137274357e-11
-1.200000000e-02	1.896429039e-01	-2.928151477e-04	8.669626048e-12
-1.210000000e-02	1.896429026e-01	-2.908869002e-04	7.726721289e-12
-1.220000000e-02	1.896429012e-01	-2.889586528e-04	1.183492596e-11
-1.230000000e-02	1.896428997e-01	-2.870304055e-04	5.419502478e-12
-1.240000000e-02	1.896428982e-01	-2.851021583e-04	3.543079958e-11
-1.250000000e-02	1.896428966e-01	-2.831739113e-04	2.985032740e-11
-1.260000000e-02	1.896428949e-01	-2.812456644e-04	4.805995122e-12
-1.270000000e-02	1.896428932e-01	-2.793174177e-04	5.699207690e-11
-1.280000000e-02	1.896428914e-01	-2.773891711e-04	2.884759722e-11
-1.290000000e-02	1.896428896e-01	-2.754609246e-04	1.914409981e-11
-1.300000000e-02	1.896428877e-01	-2.735326783e-04	7.710422761e-12
-1.310000000e-02	1.896428858e-01	-2.716044321e-04	9.538562782e-12
-1.320000000e-02	1.896428838e-01	-2.696761861e-04	2.743046618e-11
-1.330000000e-02	1.896428817e-01	-2.677479402e-04	9.937873141e-12
-1.340000000e-02	1.896428796e-01	-2.658196945e-04	3.747075028e-11
-1.350000000e-02	1.896428774e-01	-2.638914489e-04	1.782595166e-11
-1.360000000e-02	1.896428752e-01	-2.619632036e-04	1.268439377e-10
-1.370000000e-02	1.896428729e-01	-2.600349583e-04	2.411051932e-11
-1.380000000e-02	1.896428705e-01	-2.581067133e-04	1.327007932e-11
-1.390000000e-02	1.896428681e-01	-2.561784684e-04	1.291334912e-11
-1.400000000e-02	1.896428657e-01	-2.542502237e-04	1.465322790e-11
-1.410000000e-02	1.896428631e-01	-2.523219792e-04	1.631599229e-11
-1.420000000e-02	1.896428605e-01	-2.503937348e-04	2.551717381e-11
-1.430000000e-02	1.896428579e-01	-2.484654906e-04	1.264006099e-11
-1.440000000e-02	1.896428552e-01	-2.465372467e-04	8.317048726e-12
-1.450000000e-02	1.896428524e-01	-2.446090029e-04	3.814511433e-11
-1.460000000e-02	1.896428496e-01	-2.426807593e-04	9.650829158e-12
-1.470000000e-02	1.896428467e-01	-2.407525159e-04	8.677718433e-12
-1.480000000e-02	1.896428438e-01	-2.388242727e-04	1.726978087e-11
-1.490000000e-02	1.896428408e-01	-2.368960297e-04	1.104230226e-11
-1.500000000e-02	1.896428377e-01	-2.349677869e-04	1.682393187e-11
-1.510000000e-02	1.896428346e-01	-2.330395443e-04	1.454386225e-11
-1.520000000e-02	1.896428314e-01	-2.311113020e-04	8.912887435e-12
-1.530000000e-02	1.896428282e-01	-2.291830598e-04	4.850988979e-12
-1.540000000e-02	1.896428249e-01	-2.272548179e-04	5.180946382e-11
-1.550000000e-02	1.896428215e-01	-2.253265761e-04	7.630155185e-12
-1.560000000e-02	1.896428181e-01	-2.233983346e-04	8.200874191e-12
-1.570000000e-02	1.896428146e-01	-2.214700934e-04	9.675687368e-12
-1.580000000e-02	1.896428111e-01	-2.195418523e-04	2.500193260e-11
-1.590000000e-02	1.896428075e-01	-2.176136115e-04	1.088907437e-11
-1.600000000e-02	1.896428039e-01	-2.156853709e-04	1.321635214e-11
-1.610000000e-02	1.896428002e-01	-2.137571306e-04	1.507069600e-11
-1.620000000e-02	1.896427964e-01	-2.118288905e-04	2.662994115e-11
-1.630000000e-02	1.896427926e-01	-2.099006506e-04	4.492568449e-11
-1.640000000e-02	1.896427887e-01	-2.079724110e-04	1.683514234e-11
-1.650000000e-02	1.896427847e-01	-2.060441717e-04	1.581072619e-11
-1.660000000e-02	1.896427807e-01	-2.041159326e-04	2.303754253e-11
-1.670000000e-02	1.896427767e-01	-2.021876937e-04	1.786409540e-11
-1.680000000e-02	1.896427726e-01	-2.002594551e-04	1.027198055e-11
-1.690000000e-02	1.896427684e-01	-1.983312168e-04	1.481162426e-11
-1.700000000e-02	1.896427642e-01	-1.964029787e-04	1.081216000e-11
-1.710000000e-02	1.896427599e-01	-1.944747409e-04	6.389432983e-11
-1.720000000e-02	1.896427555e-01	-1.925465034e-04	2.325707438e-11
-1.730000000e-02	1.896427511e-01	-1.906182661e-04	7.233035883e-11
-1.740000000e-02	1.896427466e-01	-1.886900292e-04	5.200451301e-12
-1.750000000e-02	1.896427421e-01	-1.867617925e-04	1.646267114e-11
-1.760000000e-02	1.896427375e-01	-1.848335561e-04	1.476286618e-11
-1.770000000e-02	1.896427329e-01	-1.829053199e-04	2.749868364e-11
-1.780000000e-02	1.896427282e-01	-1.809770841e-04	5.175067752e-11
-1.790000000e-02	1.896427234e-01	-1.790488485e-04	9.156874722e-12
-1.800000000e-02	1.896427186e-01	-1.771206133e-04	1.010638054e-10
-1.810000000e-02	1.896427137e-01	-1.751923783e-04	1.734559651e-11
-1.820000000e-02	1.896427087e-01	-1.732641437e-04	1.209822876e-11
-1.830000000e-02	1.896427037e-01	-1.713359093e-04	8.351731269e-12
-1.840000000e-02	1.896426987e-01	-1.694076753e-04	6.531772594e-12
-1.850000000e-02	1.896426936e-01	-1.674794415e-04	5.039075939e-11
-1.860000000e-02	1.896426884e-01	-1.655512081e-04	6.622478525e-11
-1.870000000e-02	1.896426832e-01	-1.636229750e-04	1.047684643e-11
-1.880000000e-02	1.896426779e-01	-1.616947422e-04	1.376612867e-11
-1.890000000e-02	1.896426725e-01	-1.597665097e-04	2.836204118e-11
-1.900000000e-02	1.896426671e-01	-1.578382776e-04	6.451776566e-12
-1.910000000e-02	1.896426616e-01	-1.559100458e-04	1.046547525e-11
-1.920000000e-02	1.896426561e-01	-1.539818143e-04	7.405819823e-12
-1.930000000e-02	1.896426505e-01	-1.520535831e-04	2.448247628e-11
-1.940000000e-02	1.896426449e-01	-1.501253523e-04	2.281401553e-11
-1.950000000e-02	1.896426392e-01	-1.481971218e-04	1.612677637e-11
-1.960000000e-02	1.896426334e-01	-1.462688917e-04	1.091639228e-11
-1.970000000e-02	1.896426276e-01	-1.443406619e-04	5.247849851e-12
-1.980000000e-02	1.896426217e-01	-1.424124325e-04	1.138115184e-11
-1.990000000e-02	1.896426158e-01	-1.404842034e-04	3.763524198e-11
-2.000000000e-02	1.896426098e-01	-1.385559746e-04	1.187509946e-11
-2.010000000e-02	1.896426037e-01	-1.366277463e-04	4.335035018e-11
-2.020000000e-02	1.896425976e-01	-1.346995182e-04	7.136157645e-12
-2.030000000e-02	1.896425914e-01	-1.327712906e-04	1.207674438e-11
-2.040000000e-02	1.896425852e-01	-1.308430633e-04	2.588324268e-11
-2.050000000e-02	1.896425789e-01	-1.289148364e-04	2.754296268e-11
-2.060000000e-02	1.896425725e-01	-1.269866098e-04	1.495133977e-11
-2.070000000e-02	1.896425661e-01	-1.250583836e-04	6.167377861e-12
-2.080000000e-02	1.896425597e-01	-1.231301578e-04	1.660483648e-11
-2.090000000e-02	1.896425531e-01	-1.212019324e-04	7.070809273e-12
-2.100000000e-02	1.896425465e-01	-1.192737074e-04	2.664667949e-11
-2.110000000e-02	1.896425399e-01	-1.173454827e-04	3.340065692e-11
-2.120000000e-02	1.896425332e-01	-1.154172585e-04	6.699729248e-12
-2.130000000e-02	1.896425264e-01	-1.134890346e-04	3.692909290e-11
-2.140000000e-02	1.896425196e-01	-1.115608112e-04	2.432644752e-11
-2.150000000e-02	1.896425127e-01	-1.096325881e-04	3.021007237e-11
-2.160000000e-02	1.896425058e-01	-1.077043654e-04	6.349063714e-12
-2.170000000e-02	1.896424988e-01	-1.057761432e-04	8.582595438e-12
-2.180000000e-02	1.896424917e-01	-1.038479213e-04	5.496490551e-11
-2.190000000e-02	1.896424846e-01	-1.019196998e-04	2.552165032e-11
-2.200000000e-02	1.896424775e-01	-9.999147882e-05	2.620057149e-11
-2.210000000e-02	1.896424702e-01	-9.806325821e-05	1.108764203e-11
-2.220000000e-02	1.896424629e-01	-9.613503802e-05	1.362519123e-11
-2.230000000e-02	1.896424556e-01	-9.420681824e-05	4.553803274e-11
-2.240000000e-02	1.896424482e-01	-9.227859890e-05	2.055628561e-11
-2.250000000e-02	1.896424407e-01	-9.035037998e-05	1.785246853e-11
-2.260000000e-02	1.896424332e-01	-8.842216150e-05	2.339626312e-11
-2.270000000e-02	1.896424256e-01	-8.649394345e-05	1.137439655e-11
-2.280000000e-02	1.896424179e-01	-8.456572584e-05	9.519506633e-12
-2.290000000e-02	1.896424102e-01	-8.263750866e-05	1.215289222e-11
-2.300000000e-02	1.896424025e-01	-8.070929193e-05	8.740271749e-12
-2.310000000e-02	1.896423947e-01	-7.878107566e-05	1.213501434e-11
-2.320000000e-02	1.896423868e-01	-7.685285982e-05	8.438614218e-12
-2.330000000e-02	1.896423788e-01	-7.492464444e-05	9.211759557e-12
-2.340000000e-02	1.896423708e-01	-7.299642952e-05	9.775445497e-12
-2.350000000e-02	1.896423628e-01	-7.106821505e-05	5.935106830e-12
-2.360000000e-02	1.896423547e-01	-6.914000104e-05	1.879797841e-11
-2.370000000e-02	1.896423465e-01	-6.721178751e-05	1.045037468e-11
-2.380000000e-02	1.896423383e-01	-6.528357443e-05	1.092983145e-11
-2.390000000e-02	1.896423300e-01	-6.335536184e-05	1.107124015e-11
-2.400000000e-02	1.896423216e-01	-6.142714970e-05	8.656754299e-12
-2.410000000e-02	1.896423132e-01	-5.949893806e-05	2.058520011e-11
-2.420000000e-02	1.896423048e-01	-5.757072689e-05	3.417448976e-11
-2.430000000e-02	1.896422962e-01	-5.564251620e-05	3.040708474e-11
-2.440000000e-02	1.896422877e-01	-5.371430599e-05	9.896070085e-12
-2.450000000e-02	1.896422790e-01	-5.178609626e-05	4.028577612e-11
-2.460000000e-02	1.896422703e-01	-4.985788705e-05	1.022394043e-11
-2.470000000e-02	1.896422615e-01	-4.792967831e-05	2.319375190e-11
-2.480000000e-02	1.896422527e-01	-4.600147008e-05	8.675415846e-12
-2.490000000e-02	1.896422439e-01	-4.407326234e-05	2.186626134e-11
-2.500000000e-02	1.896422349e-01	-4.214505512e-05	1.447826019e-11
-2.510000000e-02	1.896422259e-01	-4.021684839e-05	1.254293953e-11
-2.520000000e-02	1.896422169e-01	-3.828864218e-05	7.035650717e-12
-2.530000000e-02	1.896422078e-01	-3.636043648e-05	2.127945008e-11
-2.540000000e-02	1.896421986e-01	-3.443223128e-05	2.405608498e-11
-2.550000000e-02	1.896421894e-01	-3.250402662e-05	3.718285412e-11
-2.560000000e-02	1.896421801e-01	-3.057582247e-05	1.590279636e-11
-2.570000000e-02	1.896421707e-01	-2.864761885e-05	1.207707544e-11
-2.580000000e-02	1.896421613e-01	-2.671941575e-05	4.900645173e-12
-2.590000000e-02	1.896421518e-01	-2.479121318e-05	9.916199355e-12
-2.600000000e-02	1.896421423e-01	-2.286301115e-05	6.320163859e-12
-2.610000000e-02	1.896421327e-01	-2.093480965e-05	1.307181767e-11
-2.620000000e-02	1.896421231e-01	-1.900660869e-05	2.263380394e-11
-2.630000000e-02	1.896421134e-01	-1.707840827e-05	6.386904308e-12
-2.640000000e-02	1.896421036e-01	-1.515020840e-05	1.273015098e-11
-2.650000000e-02	1.896420938e-01	-1.322200908e-05	9.311854247e-12
-2.660000000e-02	1.896420839e-01	-1.129381031e-05	3.600850074e-11
-2.670000000e-02	1.896420740e-01	-9.365612087e-06	7.273664318e-12
-2.680000000e-02	1.896420640e-01	-7.437414433e-06	4.331103441e-11
-2.690000000e-02	1.896420540e-01	-5.509217323e-06	8.789624536e-12
-2.700000000e-02	1.896420438e-01	-3.581020779e-06	1.309751885e-11
-2.710000000e-02	1.896420337e-01	-1.652824804e-06	2.062816092e-11
-2.720000000e-02	1.896420234e-01	2.753705994e-07	1.594880695e-11
-2.730000000e-02	1.896420132e-01	2.203565430e-06	9.667616059e-12
-2.740000000e-02	1.896420028e-01	4.131759690e-06	1.373769453e-11
-2.750000000e-02	1.896419924e-01	6.059953368e-06	1.514473939e-11
-2.760000000e-02	1.896419819e-01	7.988146468e-06	6.141476606e-12
-2.770000000e-02	1.896419714e-01	9.916338981e-06	1.610740289e-11
-2.780000000e-02	1.896419608e-01	1.184453091e-05	1.302178942e-11
-2.790000000e-02	1.896419502e-01	1.377272225e-05	1.394520156e-11
-2.800000000e-02	1.896419395e-01	1.570091300e-05	5.322861784e-12
-2.810000000e-02	1.896419287e-01	1.762910315e-05	2.689559947e-11
-2.820000000e-02	1.896419179e-01	1.955729270e-05	7.286753286e-12
-2.830000000e-02	1.896419070e-01	2.148548165e-05	1.105148268e-11
-2.840000000e-02	1.896418961e-01	2.341367000e-05	9.543002609e-12
-2.850000000e-02	1.896418851e-01	2.534185774e-05	7.645590378e-12
-2.860000000e-02	1.896418741e-01	2.727004486e-05	1.111012052e-11
-2.870000000e-02	1.896418629e-01	2.919823137e-05	1.905407447e-11
-2.880000000e-02	1.896418518e-01	3.112641728e-05	1.704398705e-11
-2.890000000e-02	1.896418405e-01	3.305460255e-05	8.954878948e-12
-2.900000000e-02	1.896418293e-01	3.498278719e-05	8.425662511e-11
-2.910000000e-02	1.896418179e-01	3.691097124e-05	7.093609337e-12
-2.920000000e-02	1.896418065e-01	3.883915464e-05	7.171677095e-12
-2.930000000e-02	1.896417950e-01	4.076733741e-05	1.214354361e-11
-2.940000000e-02	1.896417835e-01	4.269551955e-05	6.990750931e-12
-2.950000000e-02	1.896417719e-01	4.462370104e-05	2.092089153e-11
-2.960000000e-02	1.896417603e-01	4.655188191e-05	1.931751852e-11
-2.970000000e-02	1.896417486e-01	4.848006211e-05	2.917216598e-11
-2.980000000e-02	1.896417368e-01	5.040824168e-05	1.061518389e-11
-2.990000000e-02	1.896417250e-01	5.233642061e-05	6.118817353e-12
-3.000000000e-02	1.896417132e-01	5.426459887e-05	1.390337604e-11
