# Im(epsi1)     Re(omega/c)      Im(omega/c)      Eq(det).Opt det CON kz, R=0.5 \mum, mu_c=0.3, Re(epsi1)=3.90solve_det_conkz_vs_kz.py
0.000000000e+00	1.896576985e-01	-5.242437086e-04	1.382467534e-11
-1.000000000e-04	1.896577042e-01	-5.223153944e-04	7.077833949e-12
-2.000000000e-04	1.896577099e-01	-5.203870800e-04	1.182156984e-11
-3.000000000e-04	1.896577155e-01	-5.184587654e-04	1.004056718e-11
-4.000000000e-04	1.896577210e-01	-5.165304505e-04	6.633604892e-12
-5.000000000e-04	1.896577264e-01	-5.146021355e-04	8.808330218e-12
-6.000000000e-04	1.896577318e-01	-5.126738202e-04	2.717759446e-11
-7.000000000e-04	1.896577372e-01	-5.107455046e-04	2.612128266e-11
-8.000000000e-04	1.896577425e-01	-5.088171889e-04	3.153051344e-10
-9.000000000e-04	1.896577477e-01	-5.068888729e-04	9.828333546e-12
-1.000000000e-03	1.896577529e-01	-5.049605568e-04	1.355720123e-11
-1.100000000e-03	1.896577580e-01	-5.030322404e-04	1.829277174e-11
-1.200000000e-03	1.896577630e-01	-5.011039238e-04	6.213636651e-11
-1.300000000e-03	1.896577680e-01	-4.991756070e-04	3.166213910e-11
-1.400000000e-03	1.896577729e-01	-4.972472900e-04	2.610059710e-11
-1.500000000e-03	1.896577778e-01	-4.953189728e-04	1.029846935e-11
-1.600000000e-03	1.896577826e-01	-4.933906554e-04	1.228535200e-11
-1.700000000e-03	1.896577874e-01	-4.914623378e-04	9.972247501e-12
-1.800000000e-03	1.896577921e-01	-4.895340201e-04	9.625107558e-12
-1.900000000e-03	1.896577967e-01	-4.876057021e-04	1.938965244e-11
-2.000000000e-03	1.896578013e-01	-4.856773840e-04	1.929546468e-11
-2.100000000e-03	1.896578058e-01	-4.837490657e-04	1.952704114e-11
-2.200000000e-03	1.896578103e-01	-4.818207472e-04	2.669611579e-11
-2.300000000e-03	1.896578147e-01	-4.798924285e-04	4.665706866e-11
-2.400000000e-03	1.896578190e-01	-4.779641097e-04	8.750192226e-12
-2.500000000e-03	1.896578233e-01	-4.760357907e-04	7.452267768e-12
-2.600000000e-03	1.896578276e-01	-4.741074715e-04	1.066297448e-11
-2.700000000e-03	1.896578317e-01	-4.721791522e-04	1.833599391e-11
-2.800000000e-03	1.896578358e-01	-4.702508327e-04	1.363646821e-11
-2.900000000e-03	1.896578399e-01	-4.683225130e-04	1.517030188e-11
-3.000000000e-03	1.896578439e-01	-4.663941932e-04	1.126128035e-11
-3.100000000e-03	1.896578478e-01	-4.644658733e-04	5.564277875e-11
-3.200000000e-03	1.896578517e-01	-4.625375532e-04	5.805654043e-11
-3.300000000e-03	1.896578555e-01	-4.606092330e-04	4.086082266e-11
-3.400000000e-03	1.896578593e-01	-4.586809126e-04	3.452876131e-11
-3.500000000e-03	1.896578630e-01	-4.567525921e-04	9.045143893e-12
-3.600000000e-03	1.896578666e-01	-4.548242714e-04	1.939919304e-11
-3.700000000e-03	1.896578702e-01	-4.528959506e-04	1.267208906e-11
-3.800000000e-03	1.896578737e-01	-4.509676297e-04	2.021225638e-11
-3.900000000e-03	1.896578772e-01	-4.490393087e-04	1.450796923e-11
-4.000000000e-03	1.896578806e-01	-4.471109875e-04	2.613530825e-11
-4.100000000e-03	1.896578839e-01	-4.451826662e-04	8.724079529e-12
-4.200000000e-03	1.896578872e-01	-4.432543448e-04	8.972302769e-12
-4.300000000e-03	1.896578904e-01	-4.413260233e-04	7.340822108e-12
-4.400000000e-03	1.896578936e-01	-4.393977017e-04	2.447899341e-11
-4.500000000e-03	1.896578967e-01	-4.374693799e-04	1.774525588e-11
-4.600000000e-03	1.896578998e-01	-4.355410581e-04	9.041017960e-12
-4.700000000e-03	1.896579028e-01	-4.336127362e-04	2.152596433e-11
-4.800000000e-03	1.896579057e-01	-4.316844141e-04	1.375800604e-11
-4.900000000e-03	1.896579086e-01	-4.297560920e-04	4.034917605e-11
-5.000000000e-03	1.896579114e-01	-4.278277698e-04	1.346471487e-11
-5.100000000e-03	1.896579141e-01	-4.258994474e-04	1.535405074e-11
-5.200000000e-03	1.896579168e-01	-4.239711250e-04	2.035097357e-11
-5.300000000e-03	1.896579195e-01	-4.220428025e-04	2.249921440e-11
-5.400000000e-03	1.896579221e-01	-4.201144800e-04	1.834522614e-11
-5.500000000e-03	1.896579246e-01	-4.181861573e-04	2.102190967e-11
-5.600000000e-03	1.896579271e-01	-4.162578346e-04	7.702213649e-12
-5.700000000e-03	1.896579295e-01	-4.143295118e-04	7.885930267e-12
-5.800000000e-03	1.896579318e-01	-4.124011889e-04	8.011317695e-12
-5.900000000e-03	1.896579341e-01	-4.104728660e-04	1.746609293e-11
-6.000000000e-03	1.896579363e-01	-4.085445430e-04	8.986699007e-12
-6.100000000e-03	1.896579385e-01	-4.066162199e-04	1.239383124e-11
-6.200000000e-03	1.896579406e-01	-4.046878968e-04	5.837073780e-11
-6.300000000e-03	1.896579427e-01	-4.027595736e-04	4.347362009e-11
-6.400000000e-03	1.896579447e-01	-4.008312504e-04	8.598572883e-12
-6.500000000e-03	1.896579466e-01	-3.989029271e-04	1.211362355e-10
-6.600000000e-03	1.896579485e-01	-3.969746038e-04	1.738004375e-11
-6.700000000e-03	1.896579503e-01	-3.950462805e-04	6.665444751e-12
-6.800000000e-03	1.896579520e-01	-3.931179571e-04	4.093803400e-11
-6.900000000e-03	1.896579537e-01	-3.911896336e-04	1.358199501e-11
-7.000000000e-03	1.896579554e-01	-3.892613102e-04	7.164307490e-12
-7.100000000e-03	1.896579570e-01	-3.873329867e-04	1.020909693e-11
-7.200000000e-03	1.896579585e-01	-3.854046631e-04	8.813056567e-12
-7.300000000e-03	1.896579600e-01	-3.834763396e-04	8.930827024e-12
-7.400000000e-03	1.896579614e-01	-3.815480160e-04	1.747064239e-11
-7.500000000e-03	1.896579627e-01	-3.796196924e-04	6.151562271e-12
-7.600000000e-03	1.896579640e-01	-3.776913688e-04	6.444239566e-12
-7.700000000e-03	1.896579652e-01	-3.757630452e-04	4.419066851e-11
-7.800000000e-03	1.896579664e-01	-3.738347215e-04	2.385667125e-11
-7.900000000e-03	1.896579675e-01	-3.719063979e-04	8.635412867e-12
-8.000000000e-03	1.896579686e-01	-3.699780743e-04	8.653804578e-12
-8.100000000e-03	1.896579696e-01	-3.680497506e-04	1.827669133e-11
-8.200000000e-03	1.896579705e-01	-3.661214270e-04	7.929359824e-12
-8.300000000e-03	1.896579714e-01	-3.641931033e-04	1.138924919e-11
-8.400000000e-03	1.896579722e-01	-3.622647797e-04	2.152226799e-11
-8.500000000e-03	1.896579730e-01	-3.603364561e-04	9.945676717e-12
-8.600000000e-03	1.896579737e-01	-3.584081325e-04	1.707490953e-11
-8.700000000e-03	1.896579743e-01	-3.564798089e-04	1.812556085e-11
-8.800000000e-03	1.896579749e-01	-3.545514854e-04	9.817194809e-12
-8.900000000e-03	1.896579754e-01	-3.526231618e-04	9.696041509e-12
-9.000000000e-03	1.896579759e-01	-3.506948383e-04	1.653356368e-11
-9.100000000e-03	1.896579763e-01	-3.487665148e-04	2.692463121e-11
-9.200000000e-03	1.896579766e-01	-3.468381914e-04	9.619290539e-12
-9.300000000e-03	1.896579769e-01	-3.449098679e-04	9.839980790e-12
-9.400000000e-03	1.896579772e-01	-3.429815446e-04	8.712626451e-12
-9.500000000e-03	1.896579773e-01	-3.410532212e-04	1.667227425e-11
-9.600000000e-03	1.896579774e-01	-3.391248979e-04	2.050160066e-11
-9.700000000e-03	1.896579775e-01	-3.371965747e-04	1.000642702e-11
-9.800000000e-03	1.896579775e-01	-3.352682515e-04	9.903645286e-12
-9.900000000e-03	1.896579774e-01	-3.333399283e-04	1.575595657e-11
-1.000000000e-02	1.896579773e-01	-3.314116052e-04	1.259801907e-11
-1.010000000e-02	1.896579771e-01	-3.294832822e-04	1.304187162e-11
-1.020000000e-02	1.896579769e-01	-3.275549592e-04	3.330478714e-11
-1.030000000e-02	1.896579766e-01	-3.256266363e-04	1.244952945e-11
-1.040000000e-02	1.896579762e-01	-3.236983135e-04	1.550282421e-11
-1.050000000e-02	1.896579758e-01	-3.217699907e-04	8.158156524e-12
-1.060000000e-02	1.896579754e-01	-3.198416680e-04	1.277613157e-11
-1.070000000e-02	1.896579748e-01	-3.179133454e-04	1.146974246e-11
-1.080000000e-02	1.896579742e-01	-3.159850229e-04	2.543450914e-11
-1.090000000e-02	1.896579736e-01	-3.140567004e-04	8.128873986e-12
-1.100000000e-02	1.896579729e-01	-3.121283780e-04	2.779133609e-11
-1.110000000e-02	1.896579721e-01	-3.102000558e-04	8.139081647e-12
-1.120000000e-02	1.896579713e-01	-3.082717336e-04	2.811218514e-11
-1.130000000e-02	1.896579704e-01	-3.063434115e-04	6.827482341e-12
-1.140000000e-02	1.896579694e-01	-3.044150895e-04	7.821806245e-12
-1.150000000e-02	1.896579684e-01	-3.024867676e-04	8.075518566e-12
-1.160000000e-02	1.896579674e-01	-3.005584458e-04	1.492719141e-11
-1.170000000e-02	1.896579663e-01	-2.986301241e-04	8.592405393e-12
-1.180000000e-02	1.896579651e-01	-2.967018025e-04	2.491735841e-11
-1.190000000e-02	1.896579638e-01	-2.947734811e-04	2.075111036e-11
-1.200000000e-02	1.896579625e-01	-2.928451597e-04	4.310990537e-11
-1.210000000e-02	1.896579612e-01	-2.909168385e-04	1.551348642e-11
-1.220000000e-02	1.896579598e-01	-2.889885174e-04	1.496910861e-11
-1.230000000e-02	1.896579583e-01	-2.870601964e-04	1.680064002e-11
-1.240000000e-02	1.896579568e-01	-2.851318755e-04	9.150662463e-12
-1.250000000e-02	1.896579552e-01	-2.832035548e-04	9.294535902e-12
-1.260000000e-02	1.896579535e-01	-2.812752342e-04	4.493962013e-11
-1.270000000e-02	1.896579518e-01	-2.793469138e-04	2.666925285e-11
-1.280000000e-02	1.896579501e-01	-2.774185935e-04	1.090595673e-11
-1.290000000e-02	1.896579482e-01	-2.754902733e-04	1.025218444e-11
-1.300000000e-02	1.896579463e-01	-2.735619532e-04	9.347243933e-12
-1.310000000e-02	1.896579444e-01	-2.716336334e-04	3.369012130e-11
-1.320000000e-02	1.896579424e-01	-2.697053136e-04	1.704385626e-11
-1.330000000e-02	1.896579403e-01	-2.677769941e-04	3.929194198e-11
-1.340000000e-02	1.896579382e-01	-2.658486746e-04	1.889211845e-11
-1.350000000e-02	1.896579360e-01	-2.639203554e-04	8.377147068e-12
-1.360000000e-02	1.896579338e-01	-2.619920363e-04	1.105193637e-11
-1.370000000e-02	1.896579315e-01	-2.600637174e-04	7.514159658e-11
-1.380000000e-02	1.896579292e-01	-2.581353986e-04	4.301146504e-11
-1.390000000e-02	1.896579267e-01	-2.562070800e-04	9.917974946e-12
-1.400000000e-02	1.896579243e-01	-2.542787616e-04	8.313082337e-12
-1.410000000e-02	1.896579217e-01	-2.523504434e-04	9.686819741e-12
-1.420000000e-02	1.896579192e-01	-2.504221253e-04	5.101341071e-12
-1.430000000e-02	1.896579165e-01	-2.484938075e-04	2.023138293e-11
-1.440000000e-02	1.896579138e-01	-2.465654898e-04	4.894615700e-11
-1.450000000e-02	1.896579110e-01	-2.446371723e-04	8.775055712e-12
-1.460000000e-02	1.896579082e-01	-2.427088550e-04	2.245852338e-11
-1.470000000e-02	1.896579053e-01	-2.407805379e-04	1.402362137e-11
-1.480000000e-02	1.896579024e-01	-2.388522210e-04	1.225083157e-11
-1.490000000e-02	1.896578994e-01	-2.369239043e-04	1.888198902e-11
-1.500000000e-02	1.896578963e-01	-2.349955878e-04	1.418985188e-11
-1.510000000e-02	1.896578932e-01	-2.330672715e-04	8.981451327e-12
-1.520000000e-02	1.896578900e-01	-2.311389554e-04	8.798878435e-12
-1.530000000e-02	1.896578868e-01	-2.292106395e-04	1.298467087e-11
-1.540000000e-02	1.896578835e-01	-2.272823239e-04	1.437634462e-11
-1.550000000e-02	1.896578801e-01	-2.253540085e-04	8.030024215e-12
-1.560000000e-02	1.896578767e-01	-2.234256933e-04	1.141841995e-11
-1.570000000e-02	1.896578733e-01	-2.214973783e-04	1.362305360e-11
-1.580000000e-02	1.896578697e-01	-2.195690635e-04	2.445772858e-11
-1.590000000e-02	1.896578661e-01	-2.176407490e-04	1.768989831e-11
-1.600000000e-02	1.896578625e-01	-2.157124347e-04	5.152556812e-12
-1.610000000e-02	1.896578588e-01	-2.137841207e-04	1.904653477e-11
-1.620000000e-02	1.896578550e-01	-2.118558069e-04	4.653554638e-12
-1.630000000e-02	1.896578512e-01	-2.099274933e-04	1.285200040e-11
-1.640000000e-02	1.896578473e-01	-2.079991800e-04	1.735511459e-11
-1.650000000e-02	1.896578434e-01	-2.060708669e-04	5.480302609e-11
-1.660000000e-02	1.896578394e-01	-2.041425541e-04	9.100669306e-12
-1.670000000e-02	1.896578353e-01	-2.022142416e-04	1.021528396e-11
-1.680000000e-02	1.896578312e-01	-2.002859293e-04	5.435538830e-12
-1.690000000e-02	1.896578270e-01	-1.983576173e-04	6.824601538e-12
-1.700000000e-02	1.896578228e-01	-1.964293055e-04	3.115688122e-11
-1.710000000e-02	1.896578185e-01	-1.945009940e-04	1.221077670e-11
-1.720000000e-02	1.896578141e-01	-1.925726828e-04	1.697819732e-11
-1.730000000e-02	1.896578097e-01	-1.906443718e-04	1.163909656e-11
-1.740000000e-02	1.896578053e-01	-1.887160611e-04	9.579054124e-12
-1.750000000e-02	1.896578007e-01	-1.867877507e-04	1.099762358e-11
-1.760000000e-02	1.896577961e-01	-1.848594406e-04	1.399863387e-11
-1.770000000e-02	1.896577915e-01	-1.829311308e-04	2.014453571e-11
-1.780000000e-02	1.896577868e-01	-1.810028212e-04	3.506890414e-11
-1.790000000e-02	1.896577820e-01	-1.790745120e-04	1.450800076e-11
-1.800000000e-02	1.896577772e-01	-1.771462030e-04	1.875678943e-11
-1.810000000e-02	1.896577723e-01	-1.752178943e-04	1.293591394e-11
-1.820000000e-02	1.896577674e-01	-1.732895860e-04	1.031354773e-11
-1.830000000e-02	1.896577624e-01	-1.713612779e-04	5.567707219e-11
-1.840000000e-02	1.896577573e-01	-1.694329701e-04	1.148342409e-11
-1.850000000e-02	1.896577522e-01	-1.675046627e-04	1.419262399e-11
-1.860000000e-02	1.896577470e-01	-1.655763556e-04	1.219362211e-11
-1.870000000e-02	1.896577418e-01	-1.636480488e-04	1.353659846e-11
-1.880000000e-02	1.896577365e-01	-1.617197423e-04	1.575139067e-11
-1.890000000e-02	1.896577312e-01	-1.597914361e-04	3.404556523e-11
-1.900000000e-02	1.896577258e-01	-1.578631302e-04	9.131743812e-12
-1.910000000e-02	1.896577203e-01	-1.559348247e-04	9.744314465e-12
-1.920000000e-02	1.896577148e-01	-1.540065195e-04	1.514920224e-11
-1.930000000e-02	1.896577092e-01	-1.520782147e-04	1.566673345e-11
-1.940000000e-02	1.896577035e-01	-1.501499101e-04	9.423171497e-12
-1.950000000e-02	1.896576978e-01	-1.482216059e-04	2.171111796e-11
-1.960000000e-02	1.896576921e-01	-1.462933021e-04	3.438681920e-11
-1.970000000e-02	1.896576862e-01	-1.443649986e-04	2.205784031e-11
-1.980000000e-02	1.896576804e-01	-1.424366954e-04	6.356964640e-12
-1.990000000e-02	1.896576744e-01	-1.405083926e-04	1.167015939e-11
-2.000000000e-02	1.896576684e-01	-1.385800902e-04	6.611937173e-12
-2.010000000e-02	1.896576624e-01	-1.366517881e-04	2.587088145e-11
-2.020000000e-02	1.896576562e-01	-1.347234864e-04	2.629180652e-11
-2.030000000e-02	1.896576501e-01	-1.327951850e-04	1.380047587e-11
-2.040000000e-02	1.896576438e-01	-1.308668840e-04	1.629318370e-11
-2.050000000e-02	1.896576375e-01	-1.289385834e-04	1.225601466e-11
-2.060000000e-02	1.896576312e-01	-1.270102831e-04	3.105236624e-11
-2.070000000e-02	1.896576248e-01	-1.250819832e-04	5.898101609e-12
-2.080000000e-02	1.896576183e-01	-1.231536837e-04	8.699367217e-12
-2.090000000e-02	1.896576118e-01	-1.212253846e-04	2.768377744e-11
-2.100000000e-02	1.896576052e-01	-1.192970859e-04	9.713057555e-12
-2.110000000e-02	1.896575986e-01	-1.173687875e-04	4.781538382e-12
-2.120000000e-02	1.896575919e-01	-1.154404896e-04	7.070468308e-12
-2.130000000e-02	1.896575851e-01	-1.135121920e-04	7.659110418e-12
-2.140000000e-02	1.896575783e-01	-1.115838948e-04	1.220005903e-11
-2.150000000e-02	1.896575714e-01	-1.096555980e-04	8.786980691e-12
-2.160000000e-02	1.896575645e-01	-1.077273017e-04	5.751453363e-12
-2.170000000e-02	1.896575575e-01	-1.057990057e-04	2.598582502e-11
-2.180000000e-02	1.896575504e-01	-1.038707101e-04	1.078632185e-11
-2.190000000e-02	1.896575433e-01	-1.019424150e-04	2.616159578e-11
-2.200000000e-02	1.896575361e-01	-1.000141202e-04	6.954716947e-12
-2.210000000e-02	1.896575289e-01	-9.808582591e-05	2.856754651e-11
-2.220000000e-02	1.896575216e-01	-9.615753202e-05	1.342419096e-11
-2.230000000e-02	1.896575143e-01	-9.422923854e-05	6.003610170e-12
-2.240000000e-02	1.896575068e-01	-9.230094548e-05	1.018139673e-11
-2.250000000e-02	1.896574994e-01	-9.037265286e-05	1.257536063e-11
-2.260000000e-02	1.896574918e-01	-8.844436067e-05	2.034561924e-11
-2.270000000e-02	1.896574843e-01	-8.651606891e-05	3.747519477e-11
-2.280000000e-02	1.896574766e-01	-8.458777759e-05	1.692031328e-11
-2.290000000e-02	1.896574689e-01	-8.265948671e-05	1.204016091e-11
-2.300000000e-02	1.896574612e-01	-8.073119627e-05	1.214537204e-11
-2.310000000e-02	1.896574533e-01	-7.880290628e-05	2.959660104e-11
-2.320000000e-02	1.896574455e-01	-7.687461674e-05	8.389610947e-12
-2.330000000e-02	1.896574375e-01	-7.494632765e-05	1.367577907e-11
-2.340000000e-02	1.896574295e-01	-7.301803902e-05	1.351285029e-11
-2.350000000e-02	1.896574215e-01	-7.108975085e-05	1.865996466e-11
-2.360000000e-02	1.896574134e-01	-6.916146314e-05	1.083586328e-11
-2.370000000e-02	1.896574052e-01	-6.723317589e-05	5.225264393e-11
-2.380000000e-02	1.896573970e-01	-6.530488911e-05	9.712686329e-12
-2.390000000e-02	1.896573887e-01	-6.337660280e-05	9.742243547e-12
-2.400000000e-02	1.896573803e-01	-6.144831696e-05	1.220877366e-11
-2.410000000e-02	1.896573719e-01	-5.952003160e-05	3.961775505e-11
-2.420000000e-02	1.896573634e-01	-5.759174672e-05	9.144252931e-12
-2.430000000e-02	1.896573549e-01	-5.566346232e-05	3.092180258e-11
-2.440000000e-02	1.896573463e-01	-5.373517841e-05	2.943679304e-11
-2.450000000e-02	1.896573377e-01	-5.180689498e-05	8.978894424e-12
-2.460000000e-02	1.896573290e-01	-4.987861204e-05	2.282528048e-11
-2.470000000e-02	1.896573202e-01	-4.795032960e-05	8.232498911e-12
-2.480000000e-02	1.896573114e-01	-4.602204766e-05	1.649341058e-11
-2.490000000e-02	1.896573025e-01	-4.409376622e-05	9.848144239e-12
-2.500000000e-02	1.896572936e-01	-4.216548528e-05	2.819816029e-11
-2.510000000e-02	1.896572846e-01	-4.023720485e-05	1.755263810e-11
-2.520000000e-02	1.896572756e-01	-3.830892492e-05	4.418445379e-11
-2.530000000e-02	1.896572664e-01	-3.638064551e-05	3.036147408e-11
-2.540000000e-02	1.896572573e-01	-3.445236661e-05	2.057220601e-11
-2.550000000e-02	1.896572480e-01	-3.252408823e-05	1.414396446e-11
-2.560000000e-02	1.896572388e-01	-3.059581037e-05	7.157960301e-12
-2.570000000e-02	1.896572294e-01	-2.866753304e-05	9.280766395e-12
-2.580000000e-02	1.896572200e-01	-2.673925624e-05	1.409110679e-11
-2.590000000e-02	1.896572105e-01	-2.481097996e-05	1.093321628e-11
-2.600000000e-02	1.896572010e-01	-2.288270422e-05	5.716131520e-12
-2.610000000e-02	1.896571914e-01	-2.095442901e-05	6.389248430e-12
-2.620000000e-02	1.896571818e-01	-1.902615434e-05	2.092191766e-11
-2.630000000e-02	1.896571721e-01	-1.709788021e-05	2.173489572e-11
-2.640000000e-02	1.896571623e-01	-1.516960663e-05	1.760937134e-11
-2.650000000e-02	1.896571525e-01	-1.324133359e-05	1.913155206e-11
-2.660000000e-02	1.896571426e-01	-1.131306111e-05	2.185857637e-11
-2.670000000e-02	1.896571327e-01	-9.384789186e-06	5.076124756e-12
-2.680000000e-02	1.896571227e-01	-7.456517812e-06	9.477805701e-12
-2.690000000e-02	1.896571127e-01	-5.528247005e-06	2.502272354e-11
-2.700000000e-02	1.896571025e-01	-3.599976755e-06	2.286979495e-11
-2.710000000e-02	1.896570924e-01	-1.671707070e-06	1.827189732e-11
-2.720000000e-02	1.896570821e-01	2.565620477e-07	1.629768297e-11
-2.730000000e-02	1.896570719e-01	2.184830590e-06	1.125757339e-11
-2.740000000e-02	1.896570615e-01	4.113098556e-06	2.029633066e-11
-2.750000000e-02	1.896570511e-01	6.041365961e-06	8.662525094e-11
-2.760000000e-02	1.896570406e-01	7.969632757e-06	1.062278931e-11
-2.770000000e-02	1.896570301e-01	9.897898987e-06	1.162168444e-11
-2.780000000e-02	1.896570195e-01	1.182616463e-05	1.666736455e-11
-2.790000000e-02	1.896570089e-01	1.375442967e-05	8.011636127e-12
-2.800000000e-02	1.896569982e-01	1.568269413e-05	2.207706129e-11
-2.810000000e-02	1.896569874e-01	1.761095799e-05	1.045540854e-11
-2.820000000e-02	1.896569766e-01	1.953922125e-05	7.003099130e-12
-2.830000000e-02	1.896569657e-01	2.146748391e-05	2.851038600e-11
-2.840000000e-02	1.896569548e-01	2.339574597e-05	8.842531896e-12
-2.850000000e-02	1.896569438e-01	2.532400742e-05	1.937942505e-11
-2.860000000e-02	1.896569328e-01	2.725226826e-05	1.191360970e-11
-2.870000000e-02	1.896569217e-01	2.918052849e-05	3.850649638e-11
-2.880000000e-02	1.896569105e-01	3.110878810e-05	2.471912406e-11
-2.890000000e-02	1.896568993e-01	3.303704708e-05	7.357330878e-12
-2.900000000e-02	1.896568880e-01	3.496530545e-05	1.384102309e-11
-2.910000000e-02	1.896568766e-01	3.689356319e-05	1.069058344e-11
-2.920000000e-02	1.896568652e-01	3.882182037e-05	5.203847728e-10
-2.930000000e-02	1.896568538e-01	4.075007678e-05	2.181881700e-11
-2.940000000e-02	1.896568422e-01	4.267833264e-05	1.212106742e-11
-2.950000000e-02	1.896568307e-01	4.460658784e-05	9.931995040e-12
-2.960000000e-02	1.896568190e-01	4.653484241e-05	8.705304316e-12
-2.970000000e-02	1.896568073e-01	4.846309634e-05	1.248098082e-11
-2.980000000e-02	1.896567956e-01	5.039134962e-05	1.102147999e-11
-2.990000000e-02	1.896567838e-01	5.231960225e-05	3.225812702e-11
-3.000000000e-02	1.896567719e-01	5.424785423e-05	2.802955019e-11
