# Im(epsi1)     Re(omega/c)      Im(omega/c)      Eq(det).Opt det CON kz, R=0.5 \mum, mu_c=0.3, Re(epsi1)=3.90solve_det_conkz_vs_kz.py
0.000000000e+00	1.896629120e-01	-5.242546552e-04	1.650823860e-11
-1.000000000e-04	1.896629177e-01	-5.223263154e-04	1.781100331e-11
-2.000000000e-04	1.896629233e-01	-5.203979755e-04	9.347443424e-12
-3.000000000e-04	1.896629289e-01	-5.184696352e-04	9.314391182e-12
-4.000000000e-04	1.896629344e-01	-5.165412948e-04	6.191654924e-12
-5.000000000e-04	1.896629399e-01	-5.146129541e-04	3.397918382e-11
-6.000000000e-04	1.896629453e-01	-5.126846133e-04	1.631946673e-10
-7.000000000e-04	1.896629506e-01	-5.107562721e-04	5.966509097e-12
-8.000000000e-04	1.896629559e-01	-5.088279308e-04	1.373121584e-11
-9.000000000e-04	1.896629611e-01	-5.068995893e-04	8.302265318e-12
-1.000000000e-03	1.896629663e-01	-5.049712475e-04	8.747832037e-12
-1.100000000e-03	1.896629714e-01	-5.030429055e-04	1.270189261e-11
-1.200000000e-03	1.896629765e-01	-5.011145633e-04	8.163923225e-12
-1.300000000e-03	1.896629814e-01	-4.991862210e-04	8.305831115e-12
-1.400000000e-03	1.896629864e-01	-4.972578784e-04	1.029398766e-11
-1.500000000e-03	1.896629913e-01	-4.953295356e-04	9.900767791e-12
-1.600000000e-03	1.896629961e-01	-4.934011926e-04	1.565978302e-11
-1.700000000e-03	1.896630008e-01	-4.914728495e-04	1.323381903e-11
-1.800000000e-03	1.896630055e-01	-4.895445061e-04	7.638386993e-12
-1.900000000e-03	1.896630102e-01	-4.876161626e-04	2.390483060e-11
-2.000000000e-03	1.896630147e-01	-4.856878189e-04	1.031497070e-11
-2.100000000e-03	1.896630193e-01	-4.837594750e-04	7.293309261e-12
-2.200000000e-03	1.896630237e-01	-4.818311309e-04	1.099686857e-11
-2.300000000e-03	1.896630281e-01	-4.799027866e-04	1.039195165e-11
-2.400000000e-03	1.896630325e-01	-4.779744422e-04	2.932894499e-11
-2.500000000e-03	1.896630368e-01	-4.760460976e-04	8.626789572e-12
-2.600000000e-03	1.896630410e-01	-4.741177529e-04	1.822597602e-11
-2.700000000e-03	1.896630452e-01	-4.721894079e-04	9.564873833e-12
-2.800000000e-03	1.896630493e-01	-4.702610629e-04	9.928044520e-11
-2.900000000e-03	1.896630533e-01	-4.683327176e-04	1.300147167e-11
-3.000000000e-03	1.896630573e-01	-4.664043722e-04	1.095880628e-11
-3.100000000e-03	1.896630612e-01	-4.644760267e-04	1.835870269e-11
-3.200000000e-03	1.896630651e-01	-4.625476810e-04	6.652274389e-12
-3.300000000e-03	1.896630689e-01	-4.606193352e-04	1.692136264e-11
-3.400000000e-03	1.896630727e-01	-4.586909892e-04	2.225386184e-11
-3.500000000e-03	1.896630764e-01	-4.567626431e-04	5.467104586e-12
-3.600000000e-03	1.896630800e-01	-4.548342969e-04	9.636600873e-12
-3.700000000e-03	1.896630836e-01	-4.529059505e-04	1.122421099e-11
-3.800000000e-03	1.896630871e-01	-4.509776040e-04	1.109655576e-11
-3.900000000e-03	1.896630906e-01	-4.490492574e-04	1.432451138e-11
-4.000000000e-03	1.896630940e-01	-4.471209106e-04	1.286450889e-11
-4.100000000e-03	1.896630974e-01	-4.451925638e-04	1.519210220e-11
-4.200000000e-03	1.896631006e-01	-4.432642168e-04	7.418754572e-12
-4.300000000e-03	1.896631039e-01	-4.413358697e-04	3.619959690e-11
-4.400000000e-03	1.896631070e-01	-4.394075225e-04	8.089342489e-12
-4.500000000e-03	1.896631102e-01	-4.374791751e-04	2.691565356e-11
-4.600000000e-03	1.896631132e-01	-4.355508277e-04	1.046242513e-11
-4.700000000e-03	1.896631162e-01	-4.336224802e-04	4.251921780e-11
-4.800000000e-03	1.896631191e-01	-4.316941326e-04	1.063588633e-11
-4.900000000e-03	1.896631220e-01	-4.297657848e-04	1.457676655e-11
-5.000000000e-03	1.896631248e-01	-4.278374370e-04	3.126340728e-11
-5.100000000e-03	1.896631276e-01	-4.259090891e-04	4.575776053e-11
-5.200000000e-03	1.896631303e-01	-4.239807411e-04	9.849251602e-12
-5.300000000e-03	1.896631329e-01	-4.220523930e-04	1.558435221e-11
-5.400000000e-03	1.896631355e-01	-4.201240449e-04	6.617037578e-11
-5.500000000e-03	1.896631380e-01	-4.181956966e-04	7.166044699e-12
-5.600000000e-03	1.896631405e-01	-4.162673483e-04	1.147668282e-11
-5.700000000e-03	1.896631429e-01	-4.143389999e-04	4.629946801e-12
-5.800000000e-03	1.896631452e-01	-4.124106515e-04	1.048802671e-11
-5.900000000e-03	1.896631475e-01	-4.104823030e-04	1.460795061e-11
-6.000000000e-03	1.896631498e-01	-4.085539544e-04	6.048283253e-11
-6.100000000e-03	1.896631519e-01	-4.066256057e-04	2.095605312e-11
-6.200000000e-03	1.896631540e-01	-4.046972570e-04	3.006104773e-11
-6.300000000e-03	1.896631561e-01	-4.027689083e-04	4.047613621e-11
-6.400000000e-03	1.896631581e-01	-4.008405594e-04	1.407567785e-11
-6.500000000e-03	1.896631600e-01	-3.989122106e-04	1.064827284e-11
-6.600000000e-03	1.896631619e-01	-3.969838617e-04	6.164603657e-12
-6.700000000e-03	1.896631637e-01	-3.950555127e-04	1.227329513e-11
-6.800000000e-03	1.896631655e-01	-3.931271638e-04	1.956657818e-11
-6.900000000e-03	1.896631672e-01	-3.911988147e-04	1.106125831e-11
-7.000000000e-03	1.896631688e-01	-3.892704657e-04	1.638587764e-11
-7.100000000e-03	1.896631704e-01	-3.873421166e-04	1.915477530e-11
-7.200000000e-03	1.896631719e-01	-3.854137675e-04	5.992379433e-12
-7.300000000e-03	1.896631734e-01	-3.834854183e-04	1.368314801e-11
-7.400000000e-03	1.896631748e-01	-3.815570692e-04	5.698318106e-11
-7.500000000e-03	1.896631762e-01	-3.796287200e-04	6.601565441e-12
-7.600000000e-03	1.896631774e-01	-3.777003708e-04	1.268509832e-11
-7.700000000e-03	1.896631787e-01	-3.757720216e-04	1.412595626e-11
-7.800000000e-03	1.896631799e-01	-3.738436724e-04	9.306446821e-12
-7.900000000e-03	1.896631810e-01	-3.719153231e-04	1.390623318e-11
-8.000000000e-03	1.896631820e-01	-3.699869739e-04	6.705367956e-12
-8.100000000e-03	1.896631830e-01	-3.680586247e-04	1.582357967e-11
-8.200000000e-03	1.896631839e-01	-3.661302755e-04	1.112935898e-11
-8.300000000e-03	1.896631848e-01	-3.642019262e-04	4.073343548e-12
-8.400000000e-03	1.896631856e-01	-3.622735770e-04	9.907523760e-12
-8.500000000e-03	1.896631864e-01	-3.603452278e-04	2.075008413e-11
-8.600000000e-03	1.896631871e-01	-3.584168786e-04	4.398980089e-11
-8.700000000e-03	1.896631878e-01	-3.564885295e-04	1.706911345e-11
-8.800000000e-03	1.896631883e-01	-3.545601803e-04	1.204691975e-11
-8.900000000e-03	1.896631889e-01	-3.526318312e-04	8.865384957e-12
-9.000000000e-03	1.896631893e-01	-3.507034821e-04	1.018665495e-11
-9.100000000e-03	1.896631897e-01	-3.487751330e-04	2.847236622e-11
-9.200000000e-03	1.896631901e-01	-3.468467840e-04	1.807666215e-11
-9.300000000e-03	1.896631904e-01	-3.449184350e-04	7.909109070e-12
-9.400000000e-03	1.896631906e-01	-3.429900860e-04	1.183045617e-11
-9.500000000e-03	1.896631908e-01	-3.410617371e-04	7.208913471e-12
-9.600000000e-03	1.896631909e-01	-3.391333882e-04	2.569351547e-11
-9.700000000e-03	1.896631909e-01	-3.372050393e-04	6.271295440e-12
-9.800000000e-03	1.896631909e-01	-3.352766905e-04	1.442182291e-11
-9.900000000e-03	1.896631909e-01	-3.333483418e-04	3.903857581e-11
-1.000000000e-02	1.896631908e-01	-3.314199931e-04	1.110010469e-11
-1.010000000e-02	1.896631906e-01	-3.294916445e-04	2.683217328e-11
-1.020000000e-02	1.896631903e-01	-3.275632960e-04	1.357982636e-11
-1.030000000e-02	1.896631900e-01	-3.256349475e-04	1.847320158e-11
-1.040000000e-02	1.896631897e-01	-3.237065990e-04	1.339867527e-11
-1.050000000e-02	1.896631893e-01	-3.217782507e-04	1.135186240e-11
-1.060000000e-02	1.896631888e-01	-3.198499024e-04	1.112110949e-11
-1.070000000e-02	1.896631883e-01	-3.179215542e-04	7.582254602e-12
-1.080000000e-02	1.896631877e-01	-3.159932061e-04	1.108820758e-11
-1.090000000e-02	1.896631870e-01	-3.140648580e-04	7.408641166e-12
-1.100000000e-02	1.896631863e-01	-3.121365101e-04	9.552459977e-12
-1.110000000e-02	1.896631856e-01	-3.102081622e-04	1.768369461e-11
-1.120000000e-02	1.896631847e-01	-3.082798144e-04	7.776500446e-12
-1.130000000e-02	1.896631838e-01	-3.063514668e-04	6.342372677e-12
-1.140000000e-02	1.896631829e-01	-3.044231192e-04	1.128914423e-11
-1.150000000e-02	1.896631819e-01	-3.024947717e-04	5.967367855e-12
-1.160000000e-02	1.896631808e-01	-3.005664243e-04	1.040707542e-11
-1.170000000e-02	1.896631797e-01	-2.986380770e-04	7.240878976e-12
-1.180000000e-02	1.896631785e-01	-2.967097299e-04	1.159892596e-11
-1.190000000e-02	1.896631773e-01	-2.947813828e-04	9.057747362e-12
-1.200000000e-02	1.896631760e-01	-2.928530359e-04	1.090926451e-11
-1.210000000e-02	1.896631746e-01	-2.909246891e-04	2.039870663e-11
-1.220000000e-02	1.896631732e-01	-2.889963424e-04	1.896854452e-11
-1.230000000e-02	1.896631718e-01	-2.870679958e-04	1.789984425e-11
-1.240000000e-02	1.896631702e-01	-2.851396494e-04	1.968418638e-11
-1.250000000e-02	1.896631686e-01	-2.832113031e-04	3.652068168e-11
-1.260000000e-02	1.896631670e-01	-2.812829569e-04	4.269464810e-10
-1.270000000e-02	1.896631653e-01	-2.793546108e-04	1.003080494e-11
-1.280000000e-02	1.896631635e-01	-2.774262649e-04	6.518030955e-12
-1.290000000e-02	1.896631617e-01	-2.754979192e-04	5.311138272e-12
-1.300000000e-02	1.896631598e-01	-2.735695735e-04	1.204891388e-11
-1.310000000e-02	1.896631579e-01	-2.716412281e-04	4.973389383e-11
-1.320000000e-02	1.896631559e-01	-2.697128828e-04	1.268423509e-11
-1.330000000e-02	1.896631538e-01	-2.677845376e-04	1.797801411e-11
-1.340000000e-02	1.896631517e-01	-2.658561926e-04	9.302220935e-12
-1.350000000e-02	1.896631495e-01	-2.639278477e-04	1.667048131e-11
-1.360000000e-02	1.896631473e-01	-2.619995031e-04	6.849612986e-12
-1.370000000e-02	1.896631450e-01	-2.600711585e-04	1.292523600e-11
-1.380000000e-02	1.896631426e-01	-2.581428142e-04	1.102228981e-11
-1.390000000e-02	1.896631402e-01	-2.562144700e-04	4.786995293e-12
-1.400000000e-02	1.896631377e-01	-2.542861260e-04	1.519696599e-11
-1.410000000e-02	1.896631352e-01	-2.523577822e-04	1.423141731e-11
-1.420000000e-02	1.896631326e-01	-2.504294386e-04	1.192955443e-11
-1.430000000e-02	1.896631300e-01	-2.485010951e-04	1.022446462e-11
-1.440000000e-02	1.896631273e-01	-2.465727518e-04	1.727794487e-11
-1.450000000e-02	1.896631245e-01	-2.446444088e-04	1.461512295e-11
-1.460000000e-02	1.896631217e-01	-2.427160659e-04	1.377823898e-11
-1.470000000e-02	1.896631188e-01	-2.407877232e-04	7.433716782e-12
-1.480000000e-02	1.896631158e-01	-2.388593807e-04	1.149335505e-11
-1.490000000e-02	1.896631128e-01	-2.369310384e-04	2.109834122e-11
-1.500000000e-02	1.896631098e-01	-2.350026963e-04	1.328810507e-11
-1.510000000e-02	1.896631067e-01	-2.330743545e-04	6.405672261e-12
-1.520000000e-02	1.896631035e-01	-2.311460128e-04	7.502273825e-12
-1.530000000e-02	1.896631002e-01	-2.292176713e-04	7.178670394e-12
-1.540000000e-02	1.896630970e-01	-2.272893301e-04	7.514019590e-12
-1.550000000e-02	1.896630936e-01	-2.253609891e-04	1.122559472e-11
-1.560000000e-02	1.896630902e-01	-2.234326483e-04	8.923247570e-12
-1.570000000e-02	1.896630867e-01	-2.215043077e-04	2.860266616e-11
-1.580000000e-02	1.896630832e-01	-2.195759674e-04	1.352938019e-11
-1.590000000e-02	1.896630796e-01	-2.176476273e-04	1.254515659e-11
-1.600000000e-02	1.896630760e-01	-2.157192874e-04	4.419390509e-11
-1.610000000e-02	1.896630722e-01	-2.137909478e-04	4.533234245e-11
-1.620000000e-02	1.896630685e-01	-2.118626084e-04	1.008780435e-11
-1.630000000e-02	1.896630647e-01	-2.099342692e-04	7.698717215e-12
-1.640000000e-02	1.896630608e-01	-2.080059303e-04	7.973294793e-12
-1.650000000e-02	1.896630568e-01	-2.060775917e-04	6.541660209e-12
-1.660000000e-02	1.896630528e-01	-2.041492533e-04	7.391455030e-12
-1.670000000e-02	1.896630488e-01	-2.022209152e-04	9.029724041e-12
-1.680000000e-02	1.896630447e-01	-2.002925773e-04	1.493970814e-11
-1.690000000e-02	1.896630405e-01	-1.983642396e-04	1.573000472e-11
-1.700000000e-02	1.896630362e-01	-1.964359023e-04	1.232331236e-11
-1.710000000e-02	1.896630320e-01	-1.945075652e-04	1.624332903e-11
-1.720000000e-02	1.896630276e-01	-1.925792284e-04	1.404928751e-11
-1.730000000e-02	1.896630232e-01	-1.906508918e-04	1.626384131e-11
-1.740000000e-02	1.896630187e-01	-1.887225556e-04	1.935243990e-11
-1.750000000e-02	1.896630142e-01	-1.867942196e-04	1.462238781e-11
-1.760000000e-02	1.896630096e-01	-1.848658839e-04	3.921169664e-11
-1.770000000e-02	1.896630050e-01	-1.829375484e-04	3.178790870e-11
-1.780000000e-02	1.896630003e-01	-1.810092133e-04	1.833803277e-11
-1.790000000e-02	1.896629955e-01	-1.790808785e-04	8.512259435e-12
-1.800000000e-02	1.896629907e-01	-1.771525439e-04	1.537348272e-11
-1.810000000e-02	1.896629858e-01	-1.752242097e-04	2.198439164e-11
-1.820000000e-02	1.896629808e-01	-1.732958757e-04	1.361633678e-11
-1.830000000e-02	1.896629758e-01	-1.713675421e-04	1.100874136e-11
-1.840000000e-02	1.896629708e-01	-1.694392087e-04	1.171132134e-11
-1.850000000e-02	1.896629657e-01	-1.675108757e-04	7.058533185e-12
-1.860000000e-02	1.896629605e-01	-1.655825430e-04	1.952688315e-11
-1.870000000e-02	1.896629553e-01	-1.636542106e-04	9.722944090e-12
-1.880000000e-02	1.896629500e-01	-1.617258785e-04	1.046588590e-11
-1.890000000e-02	1.896629446e-01	-1.597975467e-04	9.513211172e-12
-1.900000000e-02	1.896629392e-01	-1.578692153e-04	6.146577742e-12
-1.910000000e-02	1.896629337e-01	-1.559408842e-04	8.184081905e-12
-1.920000000e-02	1.896629282e-01	-1.540125534e-04	3.099325058e-11
-1.930000000e-02	1.896629226e-01	-1.520842229e-04	3.982676014e-11
-1.940000000e-02	1.896629170e-01	-1.501558928e-04	1.338392093e-11
-1.950000000e-02	1.896629113e-01	-1.482275631e-04	1.832222072e-11
-1.960000000e-02	1.896629055e-01	-1.462992336e-04	5.158206937e-11
-1.970000000e-02	1.896628997e-01	-1.443709045e-04	1.380915941e-11
-1.980000000e-02	1.896628938e-01	-1.424425758e-04	2.175733526e-11
-1.990000000e-02	1.896628879e-01	-1.405142474e-04	2.338352904e-11
-2.000000000e-02	1.896628819e-01	-1.385859194e-04	7.691724935e-12
-2.010000000e-02	1.896628758e-01	-1.366575917e-04	5.764518254e-12
-2.020000000e-02	1.896628697e-01	-1.347292644e-04	1.062218008e-11
-2.030000000e-02	1.896628635e-01	-1.328009374e-04	1.729480033e-11
-2.040000000e-02	1.896628573e-01	-1.308726108e-04	9.582709243e-12
-2.050000000e-02	1.896628510e-01	-1.289442846e-04	1.024999261e-11
-2.060000000e-02	1.896628447e-01	-1.270159588e-04	2.871075022e-11
-2.070000000e-02	1.896628383e-01	-1.250876333e-04	1.563581444e-11
-2.080000000e-02	1.896628318e-01	-1.231593082e-04	1.308982926e-11
-2.090000000e-02	1.896628253e-01	-1.212309835e-04	1.652123741e-11
-2.100000000e-02	1.896628187e-01	-1.193026592e-04	1.481263317e-11
-2.110000000e-02	1.896628120e-01	-1.173743352e-04	2.307621914e-11
-2.120000000e-02	1.896628053e-01	-1.154460117e-04	1.172274117e-11
-2.130000000e-02	1.896627986e-01	-1.135176885e-04	4.949896199e-11
-2.140000000e-02	1.896627917e-01	-1.115893657e-04	1.324521868e-11
-2.150000000e-02	1.896627849e-01	-1.096610434e-04	1.831086768e-11
-2.160000000e-02	1.896627779e-01	-1.077327214e-04	2.368848076e-11
-2.170000000e-02	1.896627709e-01	-1.058043999e-04	1.953226700e-11
-2.180000000e-02	1.896627639e-01	-1.038760787e-04	1.192671607e-11
-2.190000000e-02	1.896627568e-01	-1.019477580e-04	4.622909710e-11
-2.200000000e-02	1.896627496e-01	-1.000194376e-04	1.125923113e-11
-2.210000000e-02	1.896627424e-01	-9.809111774e-05	1.437169509e-11
-2.220000000e-02	1.896627351e-01	-9.616279825e-05	1.824480259e-11
-2.230000000e-02	1.896627277e-01	-9.423447919e-05	9.695036909e-12
-2.240000000e-02	1.896627203e-01	-9.230616054e-05	1.652005756e-11
-2.250000000e-02	1.896627128e-01	-9.037784233e-05	8.090669774e-12
-2.260000000e-02	1.896627053e-01	-8.844952455e-05	1.914093088e-11
-2.270000000e-02	1.896626977e-01	-8.652120720e-05	1.411591618e-11
-2.280000000e-02	1.896626901e-01	-8.459289030e-05	2.093153286e-11
-2.290000000e-02	1.896626824e-01	-8.266457382e-05	2.982282029e-11
-2.300000000e-02	1.896626746e-01	-8.073625780e-05	1.104149215e-11
-2.310000000e-02	1.896626668e-01	-7.880794222e-05	3.985990235e-11
-2.320000000e-02	1.896626589e-01	-7.687962710e-05	1.659200657e-11
-2.330000000e-02	1.896626510e-01	-7.495131242e-05	6.484389751e-12
-2.340000000e-02	1.896626430e-01	-7.302299820e-05	7.307301379e-12
-2.350000000e-02	1.896626349e-01	-7.109468444e-05	9.107942574e-12
-2.360000000e-02	1.896626268e-01	-6.916637114e-05	2.192086373e-11
-2.370000000e-02	1.896626187e-01	-6.723805830e-05	1.093271448e-11
-2.380000000e-02	1.896626104e-01	-6.530974592e-05	7.460657382e-11
-2.390000000e-02	1.896626021e-01	-6.338143403e-05	1.628039848e-11
-2.400000000e-02	1.896625938e-01	-6.145312261e-05	1.187091798e-11
-2.410000000e-02	1.896625854e-01	-5.952481166e-05	7.311005237e-12
-2.420000000e-02	1.896625769e-01	-5.759650119e-05	7.705666500e-12
-2.430000000e-02	1.896625684e-01	-5.566819120e-05	1.317577630e-11
-2.440000000e-02	1.896625598e-01	-5.373988170e-05	9.185851483e-12
-2.450000000e-02	1.896625512e-01	-5.181157268e-05	1.589944603e-11
-2.460000000e-02	1.896625425e-01	-4.988326416e-05	1.498797523e-11
-2.470000000e-02	1.896625337e-01	-4.795495613e-05	1.540001874e-11
-2.480000000e-02	1.896625249e-01	-4.602664860e-05	1.077678272e-11
-2.490000000e-02	1.896625160e-01	-4.409834157e-05	8.483972228e-12
-2.500000000e-02	1.896625071e-01	-4.217003504e-05	1.892816874e-11
-2.510000000e-02	1.896624981e-01	-4.024172902e-05	1.588665497e-11
-2.520000000e-02	1.896624890e-01	-3.831342351e-05	2.159361926e-11
-2.530000000e-02	1.896624799e-01	-3.638511851e-05	8.222479598e-12
-2.540000000e-02	1.896624707e-01	-3.445681403e-05	1.982269815e-11
-2.550000000e-02	1.896624615e-01	-3.252851006e-05	1.683947138e-11
-2.560000000e-02	1.896624522e-01	-3.060020661e-05	1.803891770e-11
-2.570000000e-02	1.896624429e-01	-2.867190369e-05	2.689067459e-11
-2.580000000e-02	1.896624335e-01	-2.674360129e-05	1.064595611e-11
-2.590000000e-02	1.896624240e-01	-2.481529943e-05	1.304319664e-11
-2.600000000e-02	1.896624145e-01	-2.288699810e-05	1.452844673e-11
-2.610000000e-02	1.896624049e-01	-2.095869730e-05	7.346434996e-12
-2.620000000e-02	1.896623953e-01	-1.903039705e-05	9.648209906e-12
-2.630000000e-02	1.896623856e-01	-1.710209732e-05	1.637827324e-10
-2.640000000e-02	1.896623758e-01	-1.517379816e-05	8.361811552e-12
-2.650000000e-02	1.896623660e-01	-1.324549954e-05	3.491547988e-11
-2.660000000e-02	1.896623561e-01	-1.131720147e-05	1.410412695e-11
-2.670000000e-02	1.896623462e-01	-9.388903950e-06	7.107962997e-12
-2.680000000e-02	1.896623362e-01	-7.460606990e-06	1.052648459e-11
-2.690000000e-02	1.896623261e-01	-5.532310589e-06	9.446724477e-12
-2.700000000e-02	1.896623160e-01	-3.604014748e-06	2.369201385e-11
-2.710000000e-02	1.896623058e-01	-1.675719478e-06	9.452415896e-12
-2.720000000e-02	1.896622956e-01	2.525752232e-07	1.990561340e-11
-2.730000000e-02	1.896622853e-01	2.180869358e-06	1.052868532e-11
-2.740000000e-02	1.896622750e-01	4.109162913e-06	1.738904144e-11
-2.750000000e-02	1.896622646e-01	6.037455894e-06	7.299734962e-12
-2.760000000e-02	1.896622541e-01	7.965748293e-06	1.026944452e-11
-2.770000000e-02	1.896622436e-01	9.894040107e-06	9.569538723e-12
-2.780000000e-02	1.896622330e-01	1.182233133e-05	2.275502056e-11
-2.790000000e-02	1.896622224e-01	1.375062197e-05	7.068846610e-12
-2.800000000e-02	1.896622117e-01	1.567891202e-05	1.637767079e-11
-2.810000000e-02	1.896622009e-01	1.760720147e-05	1.569172070e-11
-2.820000000e-02	1.896621901e-01	1.953549032e-05	7.804616181e-12
-2.830000000e-02	1.896621792e-01	2.146377857e-05	6.171051680e-12
-2.840000000e-02	1.896621683e-01	2.339206622e-05	1.319878322e-11
-2.850000000e-02	1.896621573e-01	2.532035326e-05	6.743373696e-11
-2.860000000e-02	1.896621462e-01	2.724863969e-05	5.246934575e-11
-2.870000000e-02	1.896621351e-01	2.917692550e-05	1.100670197e-11
-2.880000000e-02	1.896621240e-01	3.110521069e-05	1.072801258e-11
-2.890000000e-02	1.896621127e-01	3.303349527e-05	6.991406582e-12
-2.900000000e-02	1.896621014e-01	3.496177923e-05	1.869007489e-11
-2.910000000e-02	1.896620901e-01	3.689006256e-05	2.485797157e-11
-2.920000000e-02	1.896620787e-01	3.881834526e-05	1.205338377e-11
-2.930000000e-02	1.896620672e-01	4.074662733e-05	1.340408433e-11
-2.940000000e-02	1.896620557e-01	4.267490877e-05	2.396706865e-11
-2.950000000e-02	1.896620441e-01	4.460318956e-05	6.429758857e-12
-2.960000000e-02	1.896620325e-01	4.653146972e-05	5.858088266e-11
-2.970000000e-02	1.896620208e-01	4.845974924e-05	1.029892431e-11
-2.980000000e-02	1.896620090e-01	5.038802811e-05	2.018539561e-11
-2.990000000e-02	1.896619972e-01	5.231630632e-05	1.045901358e-11
-3.000000000e-02	1.896619853e-01	5.424458389e-05	2.147430402e-11
