# Im(epsi1)     Re(omega/c)      Im(omega/c)      Eq(det).Opt det CON kz, R=0.5 \mum, mu_c=0.3, Re(epsi1)=3.90solve_det_conkz_vs_kz.py
0.000000000e+00	1.896559914e-01	-5.242398439e-04	2.756246073e-11
-1.000000000e-04	1.896559971e-01	-5.223115381e-04	1.190815845e-11
-2.000000000e-04	1.896560027e-01	-5.203832321e-04	9.356054993e-12
-3.000000000e-04	1.896560083e-01	-5.184549258e-04	1.854504061e-11
-4.000000000e-04	1.896560138e-01	-5.165266193e-04	1.144475357e-11
-5.000000000e-04	1.896560193e-01	-5.145983126e-04	2.078035660e-11
-6.000000000e-04	1.896560247e-01	-5.126700057e-04	9.216394117e-12
-7.000000000e-04	1.896560300e-01	-5.107416986e-04	1.506917380e-10
-8.000000000e-04	1.896560353e-01	-5.088133912e-04	7.553615991e-12
-9.000000000e-04	1.896560405e-01	-5.068850836e-04	8.983008439e-12
-1.000000000e-03	1.896560457e-01	-5.049567758e-04	1.153249585e-11
-1.100000000e-03	1.896560508e-01	-5.030284678e-04	1.386455921e-11
-1.200000000e-03	1.896560558e-01	-5.011001595e-04	1.103992411e-11
-1.300000000e-03	1.896560608e-01	-4.991718511e-04	1.363465001e-11
-1.400000000e-03	1.896560658e-01	-4.972435425e-04	5.259608024e-12
-1.500000000e-03	1.896560706e-01	-4.953152337e-04	9.403542832e-12
-1.600000000e-03	1.896560755e-01	-4.933869247e-04	9.936520845e-12
-1.700000000e-03	1.896560802e-01	-4.914586155e-04	2.564961643e-11
-1.800000000e-03	1.896560849e-01	-4.895303061e-04	8.315054347e-12
-1.900000000e-03	1.896560895e-01	-4.876019965e-04	2.090039150e-11
-2.000000000e-03	1.896560941e-01	-4.856736867e-04	1.113285176e-11
-2.100000000e-03	1.896560986e-01	-4.837453768e-04	6.506178112e-12
-2.200000000e-03	1.896561031e-01	-4.818170667e-04	1.190049775e-11
-2.300000000e-03	1.896561075e-01	-4.798887564e-04	1.305008162e-11
-2.400000000e-03	1.896561119e-01	-4.779604459e-04	1.217928354e-11
-2.500000000e-03	1.896561161e-01	-4.760321353e-04	8.601368652e-12
-2.600000000e-03	1.896561204e-01	-4.741038245e-04	1.973505388e-11
-2.700000000e-03	1.896561245e-01	-4.721755135e-04	2.128187709e-11
-2.800000000e-03	1.896561287e-01	-4.702472024e-04	1.647563587e-11
-2.900000000e-03	1.896561327e-01	-4.683188911e-04	7.526139185e-12
-3.000000000e-03	1.896561367e-01	-4.663905797e-04	1.346292959e-11
-3.100000000e-03	1.896561406e-01	-4.644622681e-04	9.478583547e-12
-3.200000000e-03	1.896561445e-01	-4.625339564e-04	2.652456928e-11
-3.300000000e-03	1.896561483e-01	-4.606056445e-04	1.022640746e-11
-3.400000000e-03	1.896561521e-01	-4.586773325e-04	1.126947058e-11
-3.500000000e-03	1.896561558e-01	-4.567490204e-04	1.734980539e-11
-3.600000000e-03	1.896561594e-01	-4.548207081e-04	7.787634892e-12
-3.700000000e-03	1.896561630e-01	-4.528923957e-04	1.073894550e-11
-3.800000000e-03	1.896561665e-01	-4.509640831e-04	7.800798709e-12
-3.900000000e-03	1.896561700e-01	-4.490357704e-04	4.005002223e-11
-4.000000000e-03	1.896561734e-01	-4.471074577e-04	8.679679390e-12
-4.100000000e-03	1.896561767e-01	-4.451791447e-04	1.108473046e-11
-4.200000000e-03	1.896561800e-01	-4.432508317e-04	8.538353390e-12
-4.300000000e-03	1.896561833e-01	-4.413225186e-04	1.042326601e-11
-4.400000000e-03	1.896561864e-01	-4.393942053e-04	4.078319681e-11
-4.500000000e-03	1.896561895e-01	-4.374658919e-04	7.906491350e-12
-4.600000000e-03	1.896561926e-01	-4.355375785e-04	1.136671091e-11
-4.700000000e-03	1.896561956e-01	-4.336092649e-04	1.467417846e-11
-4.800000000e-03	1.896561985e-01	-4.316809512e-04	1.303150752e-11
-4.900000000e-03	1.896562014e-01	-4.297526375e-04	1.012396703e-11
-5.000000000e-03	1.896562042e-01	-4.278243236e-04	1.558631711e-11
-5.100000000e-03	1.896562070e-01	-4.258960097e-04	1.340725262e-11
-5.200000000e-03	1.896562097e-01	-4.239676956e-04	1.224076930e-11
-5.300000000e-03	1.896562123e-01	-4.220393815e-04	1.403197248e-11
-5.400000000e-03	1.896562149e-01	-4.201110673e-04	7.352179099e-12
-5.500000000e-03	1.896562174e-01	-4.181827530e-04	1.051255508e-11
-5.600000000e-03	1.896562199e-01	-4.162544387e-04	1.226635625e-11
-5.700000000e-03	1.896562223e-01	-4.143261242e-04	1.136742675e-11
-5.800000000e-03	1.896562246e-01	-4.123978097e-04	1.009420260e-11
-5.900000000e-03	1.896562269e-01	-4.104694952e-04	5.338619596e-12
-6.000000000e-03	1.896562291e-01	-4.085411805e-04	1.416061213e-11
-6.100000000e-03	1.896562313e-01	-4.066128658e-04	6.231993282e-12
-6.200000000e-03	1.896562334e-01	-4.046845511e-04	1.025044338e-11
-6.300000000e-03	1.896562355e-01	-4.027562363e-04	1.594208217e-11
-6.400000000e-03	1.896562375e-01	-4.008279214e-04	2.541323335e-11
-6.500000000e-03	1.896562394e-01	-3.988996065e-04	1.414698138e-11
-6.600000000e-03	1.896562413e-01	-3.969712916e-04	1.715033479e-11
-6.700000000e-03	1.896562431e-01	-3.950429766e-04	6.946235111e-12
-6.800000000e-03	1.896562449e-01	-3.931146616e-04	4.624310021e-11
-6.900000000e-03	1.896562466e-01	-3.911863465e-04	1.527402387e-11
-7.000000000e-03	1.896562482e-01	-3.892580314e-04	1.176158586e-11
-7.100000000e-03	1.896562498e-01	-3.873297163e-04	1.856380492e-11
-7.200000000e-03	1.896562513e-01	-3.854014011e-04	2.010684898e-11
-7.300000000e-03	1.896562528e-01	-3.834730860e-04	9.126894743e-12
-7.400000000e-03	1.896562542e-01	-3.815447707e-04	8.667924652e-12
-7.500000000e-03	1.896562555e-01	-3.796164555e-04	1.307606346e-11
-7.600000000e-03	1.896562568e-01	-3.776881403e-04	1.516659233e-11
-7.700000000e-03	1.896562581e-01	-3.757598250e-04	9.911765826e-12
-7.800000000e-03	1.896562592e-01	-3.738315098e-04	8.192706667e-12
-7.900000000e-03	1.896562603e-01	-3.719031945e-04	1.144191163e-11
-8.000000000e-03	1.896562614e-01	-3.699748792e-04	7.223605959e-12
-8.100000000e-03	1.896562624e-01	-3.680465640e-04	7.106213925e-12
-8.200000000e-03	1.896562633e-01	-3.661182487e-04	1.172250625e-11
-8.300000000e-03	1.896562642e-01	-3.641899334e-04	1.015451754e-11
-8.400000000e-03	1.896562650e-01	-3.622616182e-04	6.529811334e-12
-8.500000000e-03	1.896562658e-01	-3.603333029e-04	1.169705291e-11
-8.600000000e-03	1.896562665e-01	-3.584049877e-04	3.456549490e-11
-8.700000000e-03	1.896562671e-01	-3.564766725e-04	6.552259900e-12
-8.800000000e-03	1.896562677e-01	-3.545483573e-04	1.376839617e-11
-8.900000000e-03	1.896562682e-01	-3.526200421e-04	3.909454763e-11
-9.000000000e-03	1.896562687e-01	-3.506917270e-04	1.170141263e-11
-9.100000000e-03	1.896562691e-01	-3.487634119e-04	1.563115368e-11
-9.200000000e-03	1.896562695e-01	-3.468350968e-04	8.448442843e-12
-9.300000000e-03	1.896562697e-01	-3.449067817e-04	6.983426125e-12
-9.400000000e-03	1.896562700e-01	-3.429784667e-04	1.157258911e-11
-9.500000000e-03	1.896562701e-01	-3.410501517e-04	8.706004668e-12
-9.600000000e-03	1.896562703e-01	-3.391218368e-04	6.374036836e-11
-9.700000000e-03	1.896562703e-01	-3.371935219e-04	1.118304752e-11
-9.800000000e-03	1.896562703e-01	-3.352652071e-04	1.049641010e-10
-9.900000000e-03	1.896562703e-01	-3.333368923e-04	2.983266308e-11
-1.000000000e-02	1.896562701e-01	-3.314085776e-04	1.725069888e-11
-1.010000000e-02	1.896562700e-01	-3.294802630e-04	8.322274565e-12
-1.020000000e-02	1.896562697e-01	-3.275519484e-04	1.561210007e-11
-1.030000000e-02	1.896562694e-01	-3.256236338e-04	1.525132693e-11
-1.040000000e-02	1.896562691e-01	-3.236953194e-04	9.332806811e-12
-1.050000000e-02	1.896562686e-01	-3.217670050e-04	9.485525793e-12
-1.060000000e-02	1.896562682e-01	-3.198386906e-04	6.674849553e-12
-1.070000000e-02	1.896562676e-01	-3.179103764e-04	7.819579408e-12
-1.080000000e-02	1.896562670e-01	-3.159820622e-04	2.448322271e-11
-1.090000000e-02	1.896562664e-01	-3.140537481e-04	2.015825570e-11
-1.100000000e-02	1.896562657e-01	-3.121254341e-04	6.658326093e-12
-1.110000000e-02	1.896562649e-01	-3.101971202e-04	9.577822522e-12
-1.120000000e-02	1.896562641e-01	-3.082688064e-04	7.349711225e-12
-1.130000000e-02	1.896562632e-01	-3.063404927e-04	1.673336000e-11
-1.140000000e-02	1.896562623e-01	-3.044121791e-04	1.028891899e-11
-1.150000000e-02	1.896562613e-01	-3.024838655e-04	5.888396010e-12
-1.160000000e-02	1.896562602e-01	-3.005555521e-04	1.537557033e-11
-1.170000000e-02	1.896562591e-01	-2.986272388e-04	2.345633132e-11
-1.180000000e-02	1.896562579e-01	-2.966989256e-04	9.673607102e-12
-1.190000000e-02	1.896562567e-01	-2.947706125e-04	1.860699182e-11
-1.200000000e-02	1.896562554e-01	-2.928422995e-04	1.392073089e-11
-1.210000000e-02	1.896562540e-01	-2.909139867e-04	2.288422417e-11
-1.220000000e-02	1.896562526e-01	-2.889856739e-04	2.692406575e-11
-1.230000000e-02	1.896562511e-01	-2.870573613e-04	1.118077401e-11
-1.240000000e-02	1.896562496e-01	-2.851290488e-04	5.657461563e-12
-1.250000000e-02	1.896562480e-01	-2.832007365e-04	1.908184544e-11
-1.260000000e-02	1.896562464e-01	-2.812724243e-04	6.316984910e-11
-1.270000000e-02	1.896562446e-01	-2.793441122e-04	1.148889316e-11
-1.280000000e-02	1.896562429e-01	-2.774158002e-04	1.233881132e-11
-1.290000000e-02	1.896562411e-01	-2.754874884e-04	1.229447915e-11
-1.300000000e-02	1.896562392e-01	-2.735591768e-04	9.934215374e-12
-1.310000000e-02	1.896562372e-01	-2.716308653e-04	4.055034308e-11
-1.320000000e-02	1.896562352e-01	-2.697025539e-04	1.596904375e-11
-1.330000000e-02	1.896562332e-01	-2.677742427e-04	7.129057363e-12
-1.340000000e-02	1.896562310e-01	-2.658459316e-04	1.159920957e-11
-1.350000000e-02	1.896562289e-01	-2.639176208e-04	8.853475369e-12
-1.360000000e-02	1.896562266e-01	-2.619893100e-04	5.354943211e-12
-1.370000000e-02	1.896562243e-01	-2.600609995e-04	2.233198046e-11
-1.380000000e-02	1.896562220e-01	-2.581326891e-04	1.458387787e-11
-1.390000000e-02	1.896562196e-01	-2.562043789e-04	1.131829372e-11
-1.400000000e-02	1.896562171e-01	-2.542760688e-04	8.848815632e-12
-1.410000000e-02	1.896562146e-01	-2.523477590e-04	1.114622440e-11
-1.420000000e-02	1.896562120e-01	-2.504194493e-04	8.831676406e-12
-1.430000000e-02	1.896562093e-01	-2.484911398e-04	5.868140765e-12
-1.440000000e-02	1.896562066e-01	-2.465628305e-04	1.398294804e-11
-1.450000000e-02	1.896562039e-01	-2.446345214e-04	7.446481283e-12
-1.460000000e-02	1.896562010e-01	-2.427062124e-04	1.312341429e-11
-1.470000000e-02	1.896561981e-01	-2.407779037e-04	7.670890198e-12
-1.480000000e-02	1.896561952e-01	-2.388495952e-04	1.703084938e-11
-1.490000000e-02	1.896561922e-01	-2.369212868e-04	6.213228543e-12
-1.500000000e-02	1.896561891e-01	-2.349929787e-04	5.933215420e-12
-1.510000000e-02	1.896561860e-01	-2.330646708e-04	1.311736969e-11
-1.520000000e-02	1.896561828e-01	-2.311363631e-04	8.899259584e-11
-1.530000000e-02	1.896561796e-01	-2.292080556e-04	1.529805113e-11
-1.540000000e-02	1.896561763e-01	-2.272797483e-04	2.222726924e-11
-1.550000000e-02	1.896561730e-01	-2.253514413e-04	7.455724744e-12
-1.560000000e-02	1.896561695e-01	-2.234231344e-04	9.066687938e-12
-1.570000000e-02	1.896561661e-01	-2.214948278e-04	1.157025838e-11
-1.580000000e-02	1.896561625e-01	-2.195665214e-04	1.543757827e-10
-1.590000000e-02	1.896561590e-01	-2.176382153e-04	2.477518505e-11
-1.600000000e-02	1.896561553e-01	-2.157099094e-04	5.663210665e-11
-1.610000000e-02	1.896561516e-01	-2.137816037e-04	1.417376888e-11
-1.620000000e-02	1.896561478e-01	-2.118532983e-04	1.640626250e-11
-1.630000000e-02	1.896561440e-01	-2.099249931e-04	1.010865267e-11
-1.640000000e-02	1.896561401e-01	-2.079966882e-04	9.522057790e-12
-1.650000000e-02	1.896561362e-01	-2.060683835e-04	1.223784342e-11
-1.660000000e-02	1.896561322e-01	-2.041400790e-04	8.884206666e-12
-1.670000000e-02	1.896561281e-01	-2.022117748e-04	1.496139347e-11
-1.680000000e-02	1.896561240e-01	-2.002834709e-04	9.009929673e-12
-1.690000000e-02	1.896561198e-01	-1.983551672e-04	1.123618496e-11
-1.700000000e-02	1.896561156e-01	-1.964268638e-04	6.222770429e-12
-1.710000000e-02	1.896561113e-01	-1.944985607e-04	8.287081948e-12
-1.720000000e-02	1.896561070e-01	-1.925702579e-04	7.437545815e-12
-1.730000000e-02	1.896561025e-01	-1.906419553e-04	1.667608945e-11
-1.740000000e-02	1.896560981e-01	-1.887136530e-04	9.322706743e-12
-1.750000000e-02	1.896560936e-01	-1.867853509e-04	1.351117874e-11
-1.760000000e-02	1.896560890e-01	-1.848570492e-04	9.354812139e-12
-1.770000000e-02	1.896560843e-01	-1.829287477e-04	1.258572911e-11
-1.780000000e-02	1.896560796e-01	-1.810004465e-04	1.395756472e-11
-1.790000000e-02	1.896560748e-01	-1.790721456e-04	1.607689499e-11
-1.800000000e-02	1.896560700e-01	-1.771438450e-04	1.485449264e-10
-1.810000000e-02	1.896560651e-01	-1.752155448e-04	1.774552401e-11
-1.820000000e-02	1.896560602e-01	-1.732872448e-04	3.343836317e-11
-1.830000000e-02	1.896560552e-01	-1.713589451e-04	8.007748227e-12
-1.840000000e-02	1.896560501e-01	-1.694306457e-04	1.232810739e-11
-1.850000000e-02	1.896560450e-01	-1.675023466e-04	1.726522310e-11
-1.860000000e-02	1.896560399e-01	-1.655740479e-04	2.644381502e-11
-1.870000000e-02	1.896560346e-01	-1.636457494e-04	1.466266095e-11
-1.880000000e-02	1.896560293e-01	-1.617174513e-04	1.412734054e-11
-1.890000000e-02	1.896560240e-01	-1.597891535e-04	9.443677118e-11
-1.900000000e-02	1.896560186e-01	-1.578608560e-04	1.273823559e-11
-1.910000000e-02	1.896560131e-01	-1.559325589e-04	6.710703994e-11
-1.920000000e-02	1.896560076e-01	-1.540042620e-04	1.075904056e-11
-1.930000000e-02	1.896560020e-01	-1.520759655e-04	4.540928047e-11
-1.940000000e-02	1.896559963e-01	-1.501476694e-04	5.918945733e-11
-1.950000000e-02	1.896559906e-01	-1.482193736e-04	1.269441996e-11
-1.960000000e-02	1.896559849e-01	-1.462910781e-04	1.057284984e-11
-1.970000000e-02	1.896559791e-01	-1.443627830e-04	4.259998298e-11
-1.980000000e-02	1.896559732e-01	-1.424344882e-04	1.005102098e-11
-1.990000000e-02	1.896559672e-01	-1.405061938e-04	9.150747095e-12
-2.000000000e-02	1.896559612e-01	-1.385778997e-04	1.506815419e-11
-2.010000000e-02	1.896559552e-01	-1.366496060e-04	1.327160833e-11
-2.020000000e-02	1.896559491e-01	-1.347213126e-04	2.069079922e-11
-2.030000000e-02	1.896559429e-01	-1.327930196e-04	1.077268966e-11
-2.040000000e-02	1.896559367e-01	-1.308647270e-04	6.316766629e-12
-2.050000000e-02	1.896559304e-01	-1.289364347e-04	8.940916323e-12
-2.060000000e-02	1.896559240e-01	-1.270081428e-04	1.911156486e-11
-2.070000000e-02	1.896559176e-01	-1.250798513e-04	2.068425029e-11
-2.080000000e-02	1.896559111e-01	-1.231515602e-04	3.458756184e-11
-2.090000000e-02	1.896559046e-01	-1.212232694e-04	1.118286969e-11
-2.100000000e-02	1.896558980e-01	-1.192949791e-04	3.098596992e-11
-2.110000000e-02	1.896558914e-01	-1.173666891e-04	1.665229433e-11
-2.120000000e-02	1.896558847e-01	-1.154383995e-04	2.549942212e-11
-2.130000000e-02	1.896558779e-01	-1.135101103e-04	1.801884202e-11
-2.140000000e-02	1.896558711e-01	-1.115818215e-04	1.664128430e-10
-2.150000000e-02	1.896558642e-01	-1.096535331e-04	4.730382646e-12
-2.160000000e-02	1.896558573e-01	-1.077252451e-04	1.196639047e-11
-2.170000000e-02	1.896558503e-01	-1.057969575e-04	7.703052297e-11
-2.180000000e-02	1.896558432e-01	-1.038686703e-04	1.077736327e-11
-2.190000000e-02	1.896558361e-01	-1.019403835e-04	3.297697490e-11
-2.200000000e-02	1.896558289e-01	-1.000120972e-04	5.582178747e-12
-2.210000000e-02	1.896558217e-01	-9.808381120e-05	7.884505970e-12
-2.220000000e-02	1.896558144e-01	-9.615552567e-05	9.078394313e-12
-2.230000000e-02	1.896558071e-01	-9.422724056e-05	2.340153233e-11
-2.240000000e-02	1.896557997e-01	-9.229895589e-05	4.083273026e-11
-2.250000000e-02	1.896557922e-01	-9.037067163e-05	1.105881416e-11
-2.260000000e-02	1.896557847e-01	-8.844238781e-05	1.607302563e-11
-2.270000000e-02	1.896557771e-01	-8.651410442e-05	1.386220630e-11
-2.280000000e-02	1.896557694e-01	-8.458582147e-05	1.204490847e-11
-2.290000000e-02	1.896557617e-01	-8.265753896e-05	2.325226631e-11
-2.300000000e-02	1.896557540e-01	-8.072925690e-05	1.581605886e-11
-2.310000000e-02	1.896557462e-01	-7.880097528e-05	5.596835732e-12
-2.320000000e-02	1.896557383e-01	-7.687269411e-05	1.478334696e-11
-2.330000000e-02	1.896557303e-01	-7.494441339e-05	6.470084366e-12
-2.340000000e-02	1.896557223e-01	-7.301613313e-05	2.027153242e-11
-2.350000000e-02	1.896557143e-01	-7.108785333e-05	9.149988074e-12
-2.360000000e-02	1.896557062e-01	-6.915957399e-05	1.562807834e-11
-2.370000000e-02	1.896556980e-01	-6.723129511e-05	5.264002305e-12
-2.380000000e-02	1.896556898e-01	-6.530301671e-05	6.008316853e-11
-2.390000000e-02	1.896556815e-01	-6.337473876e-05	1.233518446e-11
-2.400000000e-02	1.896556731e-01	-6.144646130e-05	7.678715853e-12
-2.410000000e-02	1.896556647e-01	-5.951818430e-05	1.662167007e-11
-2.420000000e-02	1.896556563e-01	-5.758990779e-05	1.538082865e-11
-2.430000000e-02	1.896556477e-01	-5.566163176e-05	2.452492909e-11
-2.440000000e-02	1.896556391e-01	-5.373335623e-05	1.272890449e-11
-2.450000000e-02	1.896556305e-01	-5.180508117e-05	1.641850204e-11
-2.460000000e-02	1.896556218e-01	-4.987680661e-05	2.847718093e-11
-2.470000000e-02	1.896556130e-01	-4.794853255e-05	1.201824713e-10
-2.480000000e-02	1.896556042e-01	-4.602025897e-05	2.474103221e-11
-2.490000000e-02	1.896555953e-01	-4.409198589e-05	2.370642864e-11
-2.500000000e-02	1.896555864e-01	-4.216371333e-05	8.282813495e-12
-2.510000000e-02	1.896555774e-01	-4.023544127e-05	1.450149856e-11
-2.520000000e-02	1.896555684e-01	-3.830716971e-05	1.618302858e-11
-2.530000000e-02	1.896555593e-01	-3.637889867e-05	6.870672740e-12
-2.540000000e-02	1.896555501e-01	-3.445062815e-05	1.125766923e-11
-2.550000000e-02	1.896555409e-01	-3.252235814e-05	1.234833032e-11
-2.560000000e-02	1.896555316e-01	-3.059408866e-05	1.761759821e-11
-2.570000000e-02	1.896555222e-01	-2.866581969e-05	1.010323098e-11
-2.580000000e-02	1.896555128e-01	-2.673755126e-05	9.615735835e-12
-2.590000000e-02	1.896555033e-01	-2.480928335e-05	1.109794628e-11
-2.600000000e-02	1.896554938e-01	-2.288101598e-05	1.819738185e-11
-2.610000000e-02	1.896554842e-01	-2.095274914e-05	1.512250358e-11
-2.620000000e-02	1.896554746e-01	-1.902448284e-05	3.381086126e-11
-2.630000000e-02	1.896554649e-01	-1.709621709e-05	5.716074175e-12
-2.640000000e-02	1.896554551e-01	-1.516795188e-05	1.572292238e-11
-2.650000000e-02	1.896554453e-01	-1.323968722e-05	8.166276781e-12
-2.660000000e-02	1.896554354e-01	-1.131142311e-05	8.873851707e-12
-2.670000000e-02	1.896554255e-01	-9.383159548e-06	3.412347786e-11
-2.680000000e-02	1.896554155e-01	-7.454896547e-06	2.085779848e-11
-2.690000000e-02	1.896554055e-01	-5.526634108e-06	7.626798605e-12
-2.700000000e-02	1.896553954e-01	-3.598372231e-06	3.096932935e-11
-2.710000000e-02	1.896553852e-01	-1.670110916e-06	2.639167049e-11
-2.720000000e-02	1.896553750e-01	2.581497954e-07	3.054675788e-10
-2.730000000e-02	1.896553647e-01	2.186410024e-06	1.820704143e-10
-2.740000000e-02	1.896553543e-01	4.114669593e-06	1.464705546e-11
-2.750000000e-02	1.896553439e-01	6.042928616e-06	4.413457189e-11
-2.760000000e-02	1.896553334e-01	7.971187034e-06	2.082752680e-10
-2.770000000e-02	1.896553229e-01	9.899444907e-06	1.876117751e-11
-2.780000000e-02	1.896553123e-01	1.182770217e-05	1.111715815e-11
-2.790000000e-02	1.896553017e-01	1.375595885e-05	7.582479996e-12
-2.800000000e-02	1.896552910e-01	1.568421495e-05	4.593756611e-11
-2.810000000e-02	1.896552802e-01	1.761247043e-05	1.571762261e-11
-2.820000000e-02	1.896552694e-01	1.954072532e-05	1.386153439e-11
-2.830000000e-02	1.896552586e-01	2.146897961e-05	1.671035910e-11
-2.840000000e-02	1.896552476e-01	2.339723330e-05	8.254933544e-12
-2.850000000e-02	1.896552366e-01	2.532548637e-05	2.036850150e-11
-2.860000000e-02	1.896552256e-01	2.725373884e-05	3.297048923e-11
-2.870000000e-02	1.896552145e-01	2.918199069e-05	2.167925487e-11
-2.880000000e-02	1.896552033e-01	3.111024193e-05	1.322642733e-11
-2.890000000e-02	1.896551921e-01	3.303849255e-05	9.707440842e-12
-2.900000000e-02	1.896551808e-01	3.496674255e-05	1.987269566e-11
-2.910000000e-02	1.896551694e-01	3.689499191e-05	1.577881878e-11
-2.920000000e-02	1.896551580e-01	3.882324066e-05	1.316575550e-11
-2.930000000e-02	1.896551466e-01	4.075148876e-05	4.750491175e-11
-2.940000000e-02	1.896551350e-01	4.267973624e-05	2.062080911e-11
-2.950000000e-02	1.896551235e-01	4.460798308e-05	8.887852158e-12
-2.960000000e-02	1.896551118e-01	4.653622928e-05	1.236847007e-11
-2.970000000e-02	1.896551001e-01	4.846447483e-05	1.329582619e-11
-2.980000000e-02	1.896550884e-01	5.039271974e-05	1.029477455e-11
-2.990000000e-02	1.896550766e-01	5.232096401e-05	5.567099074e-11
-3.000000000e-02	1.896550647e-01	5.424920761e-05	7.166142695e-12
