# Im(epsi1)     Re(omega/c)      Im(omega/c)      Eq(det).Opt det CON kz, R=0.5 \mum, mu_c=0.3, Re(epsi1)=3.90solve_det_conkz_vs_kz.py
0.000000000e+00	1.896890578e-01	-5.242901110e-04	1.601629372e-11
-1.000000000e-04	1.896890635e-01	-5.223616424e-04	1.370141376e-11
-2.000000000e-04	1.896890692e-01	-5.204331735e-04	1.438526679e-11
-3.000000000e-04	1.896890747e-01	-5.185047045e-04	6.386059319e-11
-4.000000000e-04	1.896890803e-01	-5.165762352e-04	5.183560734e-12
-5.000000000e-04	1.896890857e-01	-5.146477656e-04	1.456120180e-11
-6.000000000e-04	1.896890911e-01	-5.127192959e-04	6.227871202e-12
-7.000000000e-04	1.896890965e-01	-5.107908259e-04	1.713927620e-11
-8.000000000e-04	1.896891018e-01	-5.088623557e-04	2.104609896e-11
-9.000000000e-04	1.896891070e-01	-5.069338853e-04	1.191104977e-11
-1.000000000e-03	1.896891122e-01	-5.050054147e-04	1.220732899e-11
-1.100000000e-03	1.896891173e-01	-5.030769439e-04	9.231017324e-12
-1.200000000e-03	1.896891223e-01	-5.011484728e-04	7.951111927e-12
-1.300000000e-03	1.896891273e-01	-4.992200016e-04	7.033268615e-12
-1.400000000e-03	1.896891322e-01	-4.972915301e-04	7.962109581e-12
-1.500000000e-03	1.896891371e-01	-4.953630585e-04	3.256026508e-11
-1.600000000e-03	1.896891419e-01	-4.934345867e-04	9.044136326e-12
-1.700000000e-03	1.896891467e-01	-4.915061147e-04	1.896078559e-11
-1.800000000e-03	1.896891514e-01	-4.895776424e-04	1.560082878e-11
-1.900000000e-03	1.896891560e-01	-4.876491700e-04	1.471912134e-11
-2.000000000e-03	1.896891606e-01	-4.857206975e-04	1.446372710e-11
-2.100000000e-03	1.896891651e-01	-4.837922247e-04	1.370224078e-11
-2.200000000e-03	1.896891696e-01	-4.818637518e-04	8.939745024e-12
-2.300000000e-03	1.896891740e-01	-4.799352787e-04	6.632236972e-11
-2.400000000e-03	1.896891783e-01	-4.780068054e-04	9.926335440e-12
-2.500000000e-03	1.896891826e-01	-4.760783319e-04	3.358961496e-11
-2.600000000e-03	1.896891868e-01	-4.741498583e-04	6.564047830e-12
-2.700000000e-03	1.896891910e-01	-4.722213845e-04	6.744267102e-12
-2.800000000e-03	1.896891951e-01	-4.702929106e-04	1.113789183e-11
-2.900000000e-03	1.896891992e-01	-4.683644365e-04	2.176250920e-11
-3.000000000e-03	1.896892032e-01	-4.664359623e-04	1.052242705e-11
-3.100000000e-03	1.896892071e-01	-4.645074879e-04	1.409308085e-11
-3.200000000e-03	1.896892110e-01	-4.625790133e-04	8.591951417e-12
-3.300000000e-03	1.896892148e-01	-4.606505386e-04	1.202639759e-11
-3.400000000e-03	1.896892186e-01	-4.587220638e-04	3.302039617e-11
-3.500000000e-03	1.896892222e-01	-4.567935888e-04	1.648540727e-11
-3.600000000e-03	1.896892259e-01	-4.548651138e-04	4.755699620e-11
-3.700000000e-03	1.896892295e-01	-4.529366385e-04	9.895273846e-12
-3.800000000e-03	1.896892330e-01	-4.510081632e-04	4.147196516e-11
-3.900000000e-03	1.896892365e-01	-4.490796877e-04	2.042587769e-11
-4.000000000e-03	1.896892399e-01	-4.471512121e-04	2.106127918e-11
-4.100000000e-03	1.896892432e-01	-4.452227363e-04	1.081378436e-11
-4.200000000e-03	1.896892465e-01	-4.432942605e-04	1.556969534e-11
-4.300000000e-03	1.896892497e-01	-4.413657845e-04	2.114830948e-11
-4.400000000e-03	1.896892529e-01	-4.394373085e-04	1.413630753e-11
-4.500000000e-03	1.896892560e-01	-4.375088323e-04	8.426264055e-12
-4.600000000e-03	1.896892591e-01	-4.355803560e-04	1.184106003e-11
-4.700000000e-03	1.896892620e-01	-4.336518796e-04	1.406238151e-11
-4.800000000e-03	1.896892650e-01	-4.317234031e-04	1.289874433e-11
-4.900000000e-03	1.896892679e-01	-4.297949265e-04	1.287220132e-11
-5.000000000e-03	1.896892707e-01	-4.278664499e-04	9.125535131e-12
-5.100000000e-03	1.896892734e-01	-4.259379731e-04	5.625475677e-12
-5.200000000e-03	1.896892761e-01	-4.240094962e-04	9.392767477e-12
-5.300000000e-03	1.896892788e-01	-4.220810193e-04	1.982234603e-11
-5.400000000e-03	1.896892814e-01	-4.201525423e-04	5.977673220e-12
-5.500000000e-03	1.896892839e-01	-4.182240652e-04	3.737818699e-11
-5.600000000e-03	1.896892863e-01	-4.162955880e-04	9.903952708e-12
-5.700000000e-03	1.896892888e-01	-4.143671108e-04	2.673074839e-11
-5.800000000e-03	1.896892911e-01	-4.124386334e-04	5.800363018e-11
-5.900000000e-03	1.896892934e-01	-4.105101561e-04	5.448026559e-11
-6.000000000e-03	1.896892956e-01	-4.085816786e-04	1.776325688e-11
-6.100000000e-03	1.896892978e-01	-4.066532011e-04	8.426515850e-12
-6.200000000e-03	1.896892999e-01	-4.047247236e-04	8.530202738e-12
-6.300000000e-03	1.896893020e-01	-4.027962459e-04	1.288889145e-11
-6.400000000e-03	1.896893039e-01	-4.008677683e-04	6.701833629e-12
-6.500000000e-03	1.896893059e-01	-3.989392906e-04	2.141076820e-11
-6.600000000e-03	1.896893078e-01	-3.970108128e-04	1.179891374e-11
-6.700000000e-03	1.896893096e-01	-3.950823350e-04	1.423717132e-11
-6.800000000e-03	1.896893113e-01	-3.931538571e-04	3.387377118e-11
-6.900000000e-03	1.896893130e-01	-3.912253793e-04	1.272782420e-11
-7.000000000e-03	1.896893147e-01	-3.892969013e-04	1.752389526e-11
-7.100000000e-03	1.896893163e-01	-3.873684234e-04	1.354201541e-11
-7.200000000e-03	1.896893178e-01	-3.854399454e-04	3.256637486e-11
-7.300000000e-03	1.896893193e-01	-3.835114674e-04	2.298154598e-11
-7.400000000e-03	1.896893207e-01	-3.815829894e-04	1.104652175e-11
-7.500000000e-03	1.896893220e-01	-3.796545114e-04	1.600807719e-11
-7.600000000e-03	1.896893233e-01	-3.777260333e-04	9.026084701e-12
-7.700000000e-03	1.896893245e-01	-3.757975553e-04	9.146209340e-12
-7.800000000e-03	1.896893257e-01	-3.738690772e-04	1.204569219e-11
-7.900000000e-03	1.896893268e-01	-3.719405991e-04	9.150378531e-12
-8.000000000e-03	1.896893279e-01	-3.700121210e-04	2.513540352e-11
-8.100000000e-03	1.896893289e-01	-3.680836429e-04	1.103748908e-11
-8.200000000e-03	1.896893298e-01	-3.661551648e-04	2.580116930e-11
-8.300000000e-03	1.896893307e-01	-3.642266868e-04	1.393280323e-11
-8.400000000e-03	1.896893315e-01	-3.622982087e-04	2.043085004e-11
-8.500000000e-03	1.896893323e-01	-3.603697306e-04	7.469716117e-11
-8.600000000e-03	1.896893330e-01	-3.584412526e-04	8.455463443e-12
-8.700000000e-03	1.896893336e-01	-3.565127745e-04	8.598345555e-12
-8.800000000e-03	1.896893342e-01	-3.545842965e-04	1.507957647e-11
-8.900000000e-03	1.896893347e-01	-3.526558185e-04	7.983812433e-12
-9.000000000e-03	1.896893352e-01	-3.507273406e-04	6.396378029e-12
-9.100000000e-03	1.896893356e-01	-3.487988627e-04	3.724053661e-12
-9.200000000e-03	1.896893359e-01	-3.468703848e-04	4.470085715e-12
-9.300000000e-03	1.896893362e-01	-3.449419069e-04	6.697767378e-12
-9.400000000e-03	1.896893365e-01	-3.430134291e-04	9.761978513e-12
-9.500000000e-03	1.896893366e-01	-3.410849513e-04	2.700092263e-11
-9.600000000e-03	1.896893367e-01	-3.391564735e-04	2.218260506e-11
-9.700000000e-03	1.896893368e-01	-3.372279958e-04	2.229896358e-11
-9.800000000e-03	1.896893368e-01	-3.352995182e-04	8.585651414e-12
-9.900000000e-03	1.896893367e-01	-3.333710406e-04	1.273958326e-11
-1.000000000e-02	1.896893366e-01	-3.314425631e-04	1.258096719e-11
-1.010000000e-02	1.896893364e-01	-3.295140856e-04	6.625154967e-12
-1.020000000e-02	1.896893362e-01	-3.275856082e-04	2.349586900e-11
-1.030000000e-02	1.896893359e-01	-3.256571308e-04	1.323009767e-11
-1.040000000e-02	1.896893355e-01	-3.237286535e-04	7.744983967e-12
-1.050000000e-02	1.896893351e-01	-3.218001763e-04	2.374518479e-11
-1.060000000e-02	1.896893347e-01	-3.198716992e-04	7.295576107e-12
-1.070000000e-02	1.896893341e-01	-3.179432221e-04	9.966926542e-12
-1.080000000e-02	1.896893335e-01	-3.160147451e-04	9.157764790e-12
-1.090000000e-02	1.896893329e-01	-3.140862682e-04	3.554826375e-11
-1.100000000e-02	1.896893322e-01	-3.121577914e-04	1.011811469e-11
-1.110000000e-02	1.896893314e-01	-3.102293147e-04	2.930979523e-11
-1.120000000e-02	1.896893306e-01	-3.083008381e-04	1.015291169e-11
-1.130000000e-02	1.896893297e-01	-3.063723615e-04	4.523531204e-11
-1.140000000e-02	1.896893287e-01	-3.044438851e-04	1.013318635e-11
-1.150000000e-02	1.896893277e-01	-3.025154087e-04	1.093768910e-11
-1.160000000e-02	1.896893267e-01	-3.005869325e-04	1.454692150e-11
-1.170000000e-02	1.896893256e-01	-2.986584564e-04	9.584762126e-12
-1.180000000e-02	1.896893244e-01	-2.967299804e-04	1.108353476e-11
-1.190000000e-02	1.896893231e-01	-2.948015044e-04	1.123147693e-11
-1.200000000e-02	1.896893218e-01	-2.928730287e-04	1.185698456e-11
-1.210000000e-02	1.896893205e-01	-2.909445530e-04	8.525523142e-12
-1.220000000e-02	1.896893191e-01	-2.890160774e-04	6.532502831e-12
-1.230000000e-02	1.896893176e-01	-2.870876020e-04	1.444309665e-11
-1.240000000e-02	1.896893161e-01	-2.851591267e-04	1.006429635e-11
-1.250000000e-02	1.896893145e-01	-2.832306515e-04	8.153978852e-12
-1.260000000e-02	1.896893128e-01	-2.813021765e-04	1.727313894e-11
-1.270000000e-02	1.896893111e-01	-2.793737016e-04	1.140209244e-11
-1.280000000e-02	1.896893094e-01	-2.774452268e-04	1.254779244e-11
-1.290000000e-02	1.896893075e-01	-2.755167522e-04	3.083474271e-11
-1.300000000e-02	1.896893057e-01	-2.735882777e-04	3.453462679e-11
-1.310000000e-02	1.896893037e-01	-2.716598034e-04	1.035290657e-11
-1.320000000e-02	1.896893017e-01	-2.697313292e-04	4.688265414e-11
-1.330000000e-02	1.896892996e-01	-2.678028552e-04	1.173359670e-11
-1.340000000e-02	1.896892975e-01	-2.658743813e-04	1.797964241e-11
-1.350000000e-02	1.896892954e-01	-2.639459076e-04	8.378117550e-12
-1.360000000e-02	1.896892931e-01	-2.620174341e-04	4.843873922e-11
-1.370000000e-02	1.896892908e-01	-2.600889607e-04	1.418896002e-11
-1.380000000e-02	1.896892885e-01	-2.581604875e-04	1.315211632e-11
-1.390000000e-02	1.896892861e-01	-2.562320145e-04	2.553782049e-11
-1.400000000e-02	1.896892836e-01	-2.543035416e-04	7.214406713e-12
-1.410000000e-02	1.896892810e-01	-2.523750690e-04	9.333834435e-12
-1.420000000e-02	1.896892785e-01	-2.504465965e-04	1.519868694e-11
-1.430000000e-02	1.896892758e-01	-2.485181241e-04	9.186876483e-12
-1.440000000e-02	1.896892731e-01	-2.465896520e-04	6.080759598e-12
-1.450000000e-02	1.896892703e-01	-2.446611801e-04	8.889162397e-12
-1.460000000e-02	1.896892675e-01	-2.427327083e-04	9.727620908e-12
-1.470000000e-02	1.896892646e-01	-2.408042368e-04	8.525648474e-12
-1.480000000e-02	1.896892617e-01	-2.388757654e-04	9.789867401e-12
-1.490000000e-02	1.896892587e-01	-2.369472943e-04	9.024529326e-12
-1.500000000e-02	1.896892556e-01	-2.350188234e-04	1.136406710e-11
-1.510000000e-02	1.896892525e-01	-2.330903526e-04	1.163206801e-11
-1.520000000e-02	1.896892493e-01	-2.311618821e-04	7.754553721e-12
-1.530000000e-02	1.896892461e-01	-2.292334118e-04	1.858424933e-11
-1.540000000e-02	1.896892428e-01	-2.273049417e-04	7.484820984e-12
-1.550000000e-02	1.896892395e-01	-2.253764718e-04	8.468419582e-12
-1.560000000e-02	1.896892360e-01	-2.234480022e-04	2.931307628e-11
-1.570000000e-02	1.896892326e-01	-2.215195328e-04	9.083163916e-12
-1.580000000e-02	1.896892290e-01	-2.195910636e-04	2.925998430e-11
-1.590000000e-02	1.896892255e-01	-2.176625946e-04	6.408879676e-12
-1.600000000e-02	1.896892218e-01	-2.157341259e-04	9.480065288e-12
-1.610000000e-02	1.896892181e-01	-2.138056574e-04	7.915923756e-12
-1.620000000e-02	1.896892143e-01	-2.118771891e-04	1.148338456e-11
-1.630000000e-02	1.896892105e-01	-2.099487211e-04	1.620903877e-11
-1.640000000e-02	1.896892066e-01	-2.080202534e-04	1.362814112e-11
-1.650000000e-02	1.896892027e-01	-2.060917859e-04	1.092190592e-11
-1.660000000e-02	1.896891987e-01	-2.041633186e-04	4.178131457e-11
-1.670000000e-02	1.896891946e-01	-2.022348516e-04	8.510212249e-12
-1.680000000e-02	1.896891905e-01	-2.003063849e-04	9.404875888e-12
-1.690000000e-02	1.896891863e-01	-1.983779184e-04	1.716288273e-11
-1.700000000e-02	1.896891821e-01	-1.964494522e-04	1.419075923e-11
-1.710000000e-02	1.896891778e-01	-1.945209862e-04	9.468504459e-12
-1.720000000e-02	1.896891735e-01	-1.925925205e-04	1.265954248e-11
-1.730000000e-02	1.896891690e-01	-1.906640551e-04	9.355413387e-12
-1.740000000e-02	1.896891646e-01	-1.887355900e-04	1.636389314e-11
-1.750000000e-02	1.896891600e-01	-1.868071251e-04	9.930358649e-12
-1.760000000e-02	1.896891555e-01	-1.848786606e-04	8.292473445e-12
-1.770000000e-02	1.896891508e-01	-1.829501963e-04	1.434250276e-11
-1.780000000e-02	1.896891461e-01	-1.810217323e-04	2.312929046e-11
-1.790000000e-02	1.896891413e-01	-1.790932686e-04	1.451961547e-11
-1.800000000e-02	1.896891365e-01	-1.771648052e-04	1.524405723e-11
-1.810000000e-02	1.896891316e-01	-1.752363421e-04	1.400064190e-11
-1.820000000e-02	1.896891267e-01	-1.733078793e-04	8.920466437e-12
-1.830000000e-02	1.896891217e-01	-1.713794168e-04	1.763507082e-11
-1.840000000e-02	1.896891166e-01	-1.694509546e-04	1.069492315e-11
-1.850000000e-02	1.896891115e-01	-1.675224927e-04	1.528793687e-11
-1.860000000e-02	1.896891064e-01	-1.655940311e-04	1.615947185e-11
-1.870000000e-02	1.896891011e-01	-1.636655698e-04	3.611212260e-11
-1.880000000e-02	1.896890958e-01	-1.617371089e-04	1.039198447e-11
-1.890000000e-02	1.896890905e-01	-1.598086483e-04	1.513390214e-11
-1.900000000e-02	1.896890851e-01	-1.578801880e-04	1.309791237e-11
-1.910000000e-02	1.896890796e-01	-1.559517280e-04	1.526050115e-11
-1.920000000e-02	1.896890741e-01	-1.540232684e-04	1.312285458e-11
-1.930000000e-02	1.896890685e-01	-1.520948091e-04	1.103691195e-11
-1.940000000e-02	1.896890628e-01	-1.501663501e-04	1.430870202e-11
-1.950000000e-02	1.896890571e-01	-1.482378915e-04	4.776583046e-12
-1.960000000e-02	1.896890514e-01	-1.463094332e-04	8.141423980e-12
-1.970000000e-02	1.896890455e-01	-1.443809752e-04	1.019494087e-11
-1.980000000e-02	1.896890397e-01	-1.424525176e-04	1.034054988e-11
-1.990000000e-02	1.896890337e-01	-1.405240604e-04	1.229017320e-11
-2.000000000e-02	1.896890277e-01	-1.385956035e-04	1.501686372e-11
-2.010000000e-02	1.896890217e-01	-1.366671470e-04	9.346311875e-12
-2.020000000e-02	1.896890156e-01	-1.347386908e-04	1.097248049e-11
-2.030000000e-02	1.896890094e-01	-1.328102350e-04	1.125230809e-11
-2.040000000e-02	1.896890032e-01	-1.308817795e-04	1.701957825e-11
-2.050000000e-02	1.896889969e-01	-1.289533244e-04	1.161028257e-11
-2.060000000e-02	1.896889905e-01	-1.270248697e-04	1.465767529e-11
-2.070000000e-02	1.896889841e-01	-1.250964154e-04	1.577892075e-11
-2.080000000e-02	1.896889776e-01	-1.231679615e-04	1.021944607e-11
-2.090000000e-02	1.896889711e-01	-1.212395079e-04	2.046614971e-11
-2.100000000e-02	1.896889645e-01	-1.193110547e-04	1.428573784e-11
-2.110000000e-02	1.896889579e-01	-1.173826019e-04	4.220772201e-12
-2.120000000e-02	1.896889512e-01	-1.154541495e-04	1.574818362e-11
-2.130000000e-02	1.896889444e-01	-1.135256975e-04	8.292546002e-12
-2.140000000e-02	1.896889376e-01	-1.115972458e-04	1.450657389e-11
-2.150000000e-02	1.896889307e-01	-1.096687946e-04	1.041552370e-11
-2.160000000e-02	1.896889238e-01	-1.077403438e-04	1.093752791e-11
-2.170000000e-02	1.896889168e-01	-1.058118934e-04	5.558072234e-12
-2.180000000e-02	1.896889097e-01	-1.038834434e-04	4.019557747e-11
-2.190000000e-02	1.896889026e-01	-1.019549938e-04	1.341931692e-11
-2.200000000e-02	1.896888954e-01	-1.000265446e-04	5.811784238e-11
-2.210000000e-02	1.896888882e-01	-9.809809582e-05	1.523775007e-11
-2.220000000e-02	1.896888809e-01	-9.616964748e-05	2.775361398e-11
-2.230000000e-02	1.896888736e-01	-9.424119955e-05	1.145497922e-11
-2.240000000e-02	1.896888662e-01	-9.231275205e-05	7.940357632e-12
-2.250000000e-02	1.896888587e-01	-9.038430498e-05	8.249562880e-12
-2.260000000e-02	1.896888512e-01	-8.845585834e-05	2.334332250e-11
-2.270000000e-02	1.896888436e-01	-8.652741213e-05	1.903190553e-11
-2.280000000e-02	1.896888359e-01	-8.459896637e-05	1.024305287e-11
-2.290000000e-02	1.896888282e-01	-8.267052104e-05	1.002226215e-11
-2.300000000e-02	1.896888205e-01	-8.074207615e-05	7.175075221e-12
-2.310000000e-02	1.896888127e-01	-7.881363172e-05	3.498634650e-11
-2.320000000e-02	1.896888048e-01	-7.688518773e-05	1.565094372e-11
-2.330000000e-02	1.896887968e-01	-7.495674419e-05	9.641158046e-12
-2.340000000e-02	1.896887888e-01	-7.302830111e-05	2.062003976e-11
-2.350000000e-02	1.896887808e-01	-7.109985849e-05	2.078496452e-11
-2.360000000e-02	1.896887727e-01	-6.917141633e-05	1.307579537e-11
-2.370000000e-02	1.896887645e-01	-6.724297464e-05	9.688246413e-12
-2.380000000e-02	1.896887563e-01	-6.531453341e-05	9.710564750e-12
-2.390000000e-02	1.896887480e-01	-6.338609265e-05	4.375313446e-12
-2.400000000e-02	1.896887396e-01	-6.145765237e-05	3.684226954e-11
-2.410000000e-02	1.896887312e-01	-5.952921256e-05	1.433554367e-11
-2.420000000e-02	1.896887228e-01	-5.760077323e-05	1.007760349e-11
-2.430000000e-02	1.896887142e-01	-5.567233438e-05	1.435124841e-11
-2.440000000e-02	1.896887057e-01	-5.374389602e-05	1.838551802e-11
-2.450000000e-02	1.896886970e-01	-5.181545815e-05	1.594352239e-11
-2.460000000e-02	1.896886883e-01	-4.988702076e-05	1.122381816e-10
-2.470000000e-02	1.896886796e-01	-4.795858388e-05	1.323376962e-11
-2.480000000e-02	1.896886707e-01	-4.603014749e-05	2.581565802e-11
-2.490000000e-02	1.896886619e-01	-4.410171160e-05	2.607156753e-11
-2.500000000e-02	1.896886529e-01	-4.217327621e-05	1.037230706e-11
-2.510000000e-02	1.896886439e-01	-4.024484133e-05	1.620960833e-11
-2.520000000e-02	1.896886349e-01	-3.831640696e-05	7.250872651e-12
-2.530000000e-02	1.896886258e-01	-3.638797310e-05	9.601233150e-12
-2.540000000e-02	1.896886166e-01	-3.445953975e-05	1.505489405e-11
-2.550000000e-02	1.896886074e-01	-3.253110692e-05	2.924874522e-11
-2.560000000e-02	1.896885981e-01	-3.060267462e-05	6.300355033e-12
-2.570000000e-02	1.896885887e-01	-2.867424284e-05	1.345007217e-11
-2.580000000e-02	1.896885793e-01	-2.674581158e-05	1.725243052e-11
-2.590000000e-02	1.896885699e-01	-2.481738086e-05	1.147803211e-11
-2.600000000e-02	1.896885603e-01	-2.288895066e-05	1.360934073e-11
-2.610000000e-02	1.896885507e-01	-2.096052101e-05	2.287496826e-11
-2.620000000e-02	1.896885411e-01	-1.903209189e-05	1.802510770e-11
-2.630000000e-02	1.896885314e-01	-1.710366332e-05	1.823929460e-11
-2.640000000e-02	1.896885217e-01	-1.517523528e-05	3.372724294e-11
-2.650000000e-02	1.896885118e-01	-1.324680780e-05	9.646553941e-12
-2.660000000e-02	1.896885020e-01	-1.131838087e-05	7.856316704e-12
-2.670000000e-02	1.896884920e-01	-9.389954494e-06	1.247682804e-11
-2.680000000e-02	1.896884820e-01	-7.461528674e-06	1.628488904e-11
-2.690000000e-02	1.896884720e-01	-5.533103413e-06	3.042410388e-11
-2.700000000e-02	1.896884619e-01	-3.604678714e-06	1.626226753e-11
-2.710000000e-02	1.896884517e-01	-1.676254582e-06	8.803145757e-12
-2.720000000e-02	1.896884415e-01	2.521689828e-07	1.435746371e-11
-2.730000000e-02	1.896884312e-01	2.180591974e-06	1.463465638e-11
-2.740000000e-02	1.896884208e-01	4.109014390e-06	2.907513960e-11
-2.750000000e-02	1.896884104e-01	6.037436231e-06	7.878636916e-12
-2.760000000e-02	1.896884000e-01	7.965857490e-06	6.881070666e-12
-2.770000000e-02	1.896883894e-01	9.894278165e-06	1.033331995e-11
-2.780000000e-02	1.896883789e-01	1.182269825e-05	1.854127218e-11
-2.790000000e-02	1.896883682e-01	1.375111775e-05	1.585467036e-11
-2.800000000e-02	1.896883575e-01	1.567953666e-05	1.849242544e-11
-2.810000000e-02	1.896883468e-01	1.760795497e-05	1.389954929e-11
-2.820000000e-02	1.896883359e-01	1.953637268e-05	1.457736477e-11
-2.830000000e-02	1.896883251e-01	2.146478979e-05	1.568731015e-11
-2.840000000e-02	1.896883141e-01	2.339320630e-05	1.564253506e-11
-2.850000000e-02	1.896883031e-01	2.532162220e-05	1.208415374e-11
-2.860000000e-02	1.896882921e-01	2.725003749e-05	1.361466333e-11
-2.870000000e-02	1.896882810e-01	2.917845216e-05	1.642192111e-11
-2.880000000e-02	1.896882698e-01	3.110686622e-05	1.347427733e-11
-2.890000000e-02	1.896882586e-01	3.303527966e-05	9.194160789e-12
-2.900000000e-02	1.896882473e-01	3.496369247e-05	1.587935055e-11
-2.910000000e-02	1.896882360e-01	3.689210466e-05	4.469845700e-11
-2.920000000e-02	1.896882246e-01	3.882051623e-05	9.296935705e-11
-2.930000000e-02	1.896882131e-01	4.074892716e-05	1.347077534e-11
-2.940000000e-02	1.896882016e-01	4.267733746e-05	1.182285849e-11
-2.950000000e-02	1.896881900e-01	4.460574712e-05	2.758250028e-11
-2.960000000e-02	1.896881783e-01	4.653415614e-05	6.579655070e-12
-2.970000000e-02	1.896881667e-01	4.846256451e-05	6.135180542e-12
-2.980000000e-02	1.896881549e-01	5.039097224e-05	4.681366922e-12
-2.990000000e-02	1.896881431e-01	5.231937932e-05	3.567348504e-11
-3.000000000e-02	1.896881312e-01	5.424778575e-05	1.420843039e-11
