# Im(epsi1)     Re(omega/c)      Im(omega/c)      Eq(det).Opt det CON kz, R=0.5 \mum, mu_c=0.3, Re(epsi1)=3.90solve_det_conkz_vs_kz.py
0.000000000e+00	1.896551755e-01	-5.242379481e-04	8.196151701e-12
-1.000000000e-04	1.896551812e-01	-5.223096463e-04	2.059962621e-11
-2.000000000e-04	1.896551868e-01	-5.203813443e-04	2.787965512e-11
-3.000000000e-04	1.896551924e-01	-5.184530420e-04	1.672298773e-11
-4.000000000e-04	1.896551979e-01	-5.165247396e-04	1.520849193e-11
-5.000000000e-04	1.896552034e-01	-5.145964368e-04	2.003783803e-11
-6.000000000e-04	1.896552088e-01	-5.126681339e-04	2.141434994e-11
-7.000000000e-04	1.896552141e-01	-5.107398308e-04	1.557130157e-11
-8.000000000e-04	1.896552194e-01	-5.088115274e-04	1.966773243e-11
-9.000000000e-04	1.896552246e-01	-5.068832238e-04	3.926556178e-11
-1.000000000e-03	1.896552298e-01	-5.049549200e-04	9.356834265e-12
-1.100000000e-03	1.896552349e-01	-5.030266160e-04	1.232054022e-11
-1.200000000e-03	1.896552400e-01	-5.010983117e-04	1.976407607e-11
-1.300000000e-03	1.896552450e-01	-4.991700073e-04	5.391837677e-11
-1.400000000e-03	1.896552499e-01	-4.972417027e-04	2.854200948e-11
-1.500000000e-03	1.896552548e-01	-4.953133979e-04	2.473713563e-11
-1.600000000e-03	1.896552596e-01	-4.933850929e-04	2.096318379e-11
-1.700000000e-03	1.896552643e-01	-4.914567877e-04	1.615971377e-11
-1.800000000e-03	1.896552690e-01	-4.895284823e-04	1.575514552e-11
-1.900000000e-03	1.896552737e-01	-4.876001767e-04	8.060270275e-12
-2.000000000e-03	1.896552782e-01	-4.856718709e-04	1.266353216e-11
-2.100000000e-03	1.896552828e-01	-4.837435650e-04	1.851482020e-11
-2.200000000e-03	1.896552872e-01	-4.818152588e-04	9.118828006e-12
-2.300000000e-03	1.896552916e-01	-4.798869525e-04	1.782013752e-11
-2.400000000e-03	1.896552960e-01	-4.779586461e-04	3.074990303e-11
-2.500000000e-03	1.896553003e-01	-4.760303394e-04	1.351232717e-11
-2.600000000e-03	1.896553045e-01	-4.741020327e-04	3.253191483e-12
-2.700000000e-03	1.896553087e-01	-4.721737257e-04	2.588399470e-11
-2.800000000e-03	1.896553128e-01	-4.702454186e-04	7.936618123e-12
-2.900000000e-03	1.896553168e-01	-4.683171113e-04	1.949468631e-11
-3.000000000e-03	1.896553208e-01	-4.663888039e-04	1.552774903e-11
-3.100000000e-03	1.896553247e-01	-4.644604963e-04	7.993832073e-12
-3.200000000e-03	1.896553286e-01	-4.625321886e-04	7.129881390e-12
-3.300000000e-03	1.896553324e-01	-4.606038807e-04	1.262565633e-11
-3.400000000e-03	1.896553362e-01	-4.586755727e-04	4.879238968e-12
-3.500000000e-03	1.896553399e-01	-4.567472645e-04	5.973497507e-12
-3.600000000e-03	1.896553435e-01	-4.548189562e-04	1.954068141e-11
-3.700000000e-03	1.896553471e-01	-4.528906478e-04	8.433555836e-12
-3.800000000e-03	1.896553506e-01	-4.509623393e-04	1.641655976e-11
-3.900000000e-03	1.896553541e-01	-4.490340306e-04	2.565255538e-11
-4.000000000e-03	1.896553575e-01	-4.471057218e-04	3.752934681e-11
-4.100000000e-03	1.896553609e-01	-4.451774129e-04	2.695911357e-11
-4.200000000e-03	1.896553641e-01	-4.432491039e-04	8.455400433e-12
-4.300000000e-03	1.896553674e-01	-4.413207947e-04	1.046189036e-11
-4.400000000e-03	1.896553705e-01	-4.393924855e-04	5.458372240e-11
-4.500000000e-03	1.896553737e-01	-4.374641761e-04	1.368503852e-11
-4.600000000e-03	1.896553767e-01	-4.355358666e-04	2.451076280e-11
-4.700000000e-03	1.896553797e-01	-4.336075571e-04	2.931344104e-11
-4.800000000e-03	1.896553826e-01	-4.316792474e-04	5.894422539e-12
-4.900000000e-03	1.896553855e-01	-4.297509376e-04	1.447321911e-11
-5.000000000e-03	1.896553883e-01	-4.278226278e-04	8.242267679e-12
-5.100000000e-03	1.896553911e-01	-4.258943178e-04	1.270255752e-11
-5.200000000e-03	1.896553938e-01	-4.239660078e-04	3.173788626e-11
-5.300000000e-03	1.896553964e-01	-4.220376977e-04	2.263930536e-11
-5.400000000e-03	1.896553990e-01	-4.201093875e-04	1.463680648e-11
-5.500000000e-03	1.896554015e-01	-4.181810772e-04	7.761252897e-12
-5.600000000e-03	1.896554040e-01	-4.162527668e-04	8.434196093e-12
-5.700000000e-03	1.896554064e-01	-4.143244564e-04	1.238855387e-11
-5.800000000e-03	1.896554087e-01	-4.123961459e-04	1.398753629e-11
-5.900000000e-03	1.896554110e-01	-4.104678353e-04	1.494370707e-11
-6.000000000e-03	1.896554133e-01	-4.085395247e-04	2.462892739e-11
-6.100000000e-03	1.896554154e-01	-4.066112140e-04	3.385142991e-11
-6.200000000e-03	1.896554175e-01	-4.046829033e-04	2.068305565e-11
-6.300000000e-03	1.896554196e-01	-4.027545925e-04	9.586801127e-12
-6.400000000e-03	1.896554216e-01	-4.008262816e-04	1.317452897e-11
-6.500000000e-03	1.896554235e-01	-3.988979707e-04	1.230082172e-11
-6.600000000e-03	1.896554254e-01	-3.969696598e-04	1.992664731e-11
-6.700000000e-03	1.896554272e-01	-3.950413488e-04	2.473164697e-11
-6.800000000e-03	1.896554290e-01	-3.931130377e-04	2.197242272e-11
-6.900000000e-03	1.896554307e-01	-3.911847267e-04	5.102204269e-12
-7.000000000e-03	1.896554323e-01	-3.892564156e-04	1.418573286e-11
-7.100000000e-03	1.896554339e-01	-3.873281044e-04	1.155419151e-11
-7.200000000e-03	1.896554354e-01	-3.853997933e-04	1.250792000e-11
-7.300000000e-03	1.896554369e-01	-3.834714821e-04	5.207007397e-12
-7.400000000e-03	1.896554383e-01	-3.815431709e-04	3.026182936e-11
-7.500000000e-03	1.896554397e-01	-3.796148597e-04	3.759692482e-11
-7.600000000e-03	1.896554409e-01	-3.776865484e-04	6.609379855e-12
-7.700000000e-03	1.896554422e-01	-3.757582372e-04	1.241394671e-11
-7.800000000e-03	1.896554433e-01	-3.738299259e-04	3.415528725e-11
-7.900000000e-03	1.896554445e-01	-3.719016147e-04	1.120742338e-11
-8.000000000e-03	1.896554455e-01	-3.699733034e-04	2.094849569e-11
-8.100000000e-03	1.896554465e-01	-3.680449921e-04	2.144132673e-11
-8.200000000e-03	1.896554474e-01	-3.661166808e-04	1.731008969e-11
-8.300000000e-03	1.896554483e-01	-3.641883696e-04	1.436301960e-11
-8.400000000e-03	1.896554491e-01	-3.622600583e-04	1.429324708e-11
-8.500000000e-03	1.896554499e-01	-3.603317471e-04	5.992759592e-12
-8.600000000e-03	1.896554506e-01	-3.584034358e-04	2.816537284e-11
-8.700000000e-03	1.896554512e-01	-3.564751246e-04	6.471374920e-11
-8.800000000e-03	1.896554518e-01	-3.545468134e-04	1.355233527e-11
-8.900000000e-03	1.896554524e-01	-3.526185023e-04	2.959812024e-11
-9.000000000e-03	1.896554528e-01	-3.506901911e-04	2.051217234e-10
-9.100000000e-03	1.896554532e-01	-3.487618800e-04	2.168189205e-11
-9.200000000e-03	1.896554536e-01	-3.468335689e-04	4.330955532e-11
-9.300000000e-03	1.896554539e-01	-3.449052579e-04	9.705373030e-12
-9.400000000e-03	1.896554541e-01	-3.429769468e-04	2.031807101e-11
-9.500000000e-03	1.896554543e-01	-3.410486359e-04	3.119483897e-11
-9.600000000e-03	1.896554544e-01	-3.391203249e-04	2.118001193e-11
-9.700000000e-03	1.896554544e-01	-3.371920141e-04	6.476223699e-12
-9.800000000e-03	1.896554544e-01	-3.352637032e-04	9.424912610e-12
-9.900000000e-03	1.896554544e-01	-3.333353925e-04	1.269263993e-11
-1.000000000e-02	1.896554542e-01	-3.314070817e-04	1.665774815e-11
-1.010000000e-02	1.896554541e-01	-3.294787711e-04	1.179388125e-11
-1.020000000e-02	1.896554538e-01	-3.275504605e-04	6.217792033e-12
-1.030000000e-02	1.896554535e-01	-3.256221499e-04	1.275192113e-11
-1.040000000e-02	1.896554532e-01	-3.236938395e-04	1.023454768e-11
-1.050000000e-02	1.896554528e-01	-3.217655291e-04	1.025990975e-11
-1.060000000e-02	1.896554523e-01	-3.198372188e-04	1.599165883e-11
-1.070000000e-02	1.896554518e-01	-3.179089085e-04	3.333857555e-11
-1.080000000e-02	1.896554512e-01	-3.159805983e-04	2.337522792e-11
-1.090000000e-02	1.896554505e-01	-3.140522883e-04	2.139124361e-11
-1.100000000e-02	1.896554498e-01	-3.121239783e-04	1.451983383e-11
-1.110000000e-02	1.896554490e-01	-3.101956683e-04	9.189883113e-12
-1.120000000e-02	1.896554482e-01	-3.082673585e-04	8.350529336e-12
-1.130000000e-02	1.896554473e-01	-3.063390488e-04	4.506123469e-11
-1.140000000e-02	1.896554464e-01	-3.044107392e-04	1.459652628e-11
-1.150000000e-02	1.896554454e-01	-3.024824297e-04	1.255372330e-11
-1.160000000e-02	1.896554443e-01	-3.005541202e-04	1.537377547e-11
-1.170000000e-02	1.896554432e-01	-2.986258109e-04	7.210255851e-12
-1.180000000e-02	1.896554420e-01	-2.966975017e-04	1.448453818e-11
-1.190000000e-02	1.896554408e-01	-2.947691926e-04	1.000355477e-11
-1.200000000e-02	1.896554395e-01	-2.928408836e-04	3.095007864e-11
-1.210000000e-02	1.896554381e-01	-2.909125748e-04	4.067959492e-11
-1.220000000e-02	1.896554367e-01	-2.889842660e-04	2.165421373e-11
-1.230000000e-02	1.896554352e-01	-2.870559574e-04	1.196229568e-11
-1.240000000e-02	1.896554337e-01	-2.851276489e-04	1.525192475e-11
-1.250000000e-02	1.896554321e-01	-2.831993406e-04	1.435679883e-11
-1.260000000e-02	1.896554305e-01	-2.812710324e-04	9.716571254e-12
-1.270000000e-02	1.896554288e-01	-2.793427243e-04	6.235340879e-12
-1.280000000e-02	1.896554270e-01	-2.774144163e-04	1.512569818e-11
-1.290000000e-02	1.896554252e-01	-2.754861085e-04	1.453627568e-11
-1.300000000e-02	1.896554233e-01	-2.735578009e-04	1.396698987e-11
-1.310000000e-02	1.896554213e-01	-2.716294934e-04	9.751989581e-12
-1.320000000e-02	1.896554193e-01	-2.697011860e-04	1.218740956e-11
-1.330000000e-02	1.896554173e-01	-2.677728788e-04	1.405817060e-11
-1.340000000e-02	1.896554152e-01	-2.658445717e-04	1.358409097e-11
-1.350000000e-02	1.896554130e-01	-2.639162649e-04	1.947683933e-11
-1.360000000e-02	1.896554107e-01	-2.619879581e-04	7.859884178e-12
-1.370000000e-02	1.896554084e-01	-2.600596516e-04	1.105668858e-11
-1.380000000e-02	1.896554061e-01	-2.581313452e-04	8.194238391e-12
-1.390000000e-02	1.896554037e-01	-2.562030390e-04	8.433201418e-12
-1.400000000e-02	1.896554012e-01	-2.542747329e-04	6.911415854e-12
-1.410000000e-02	1.896553987e-01	-2.523464271e-04	5.338278021e-12
-1.420000000e-02	1.896553961e-01	-2.504181214e-04	7.516792024e-12
-1.430000000e-02	1.896553934e-01	-2.484898159e-04	1.437989499e-11
-1.440000000e-02	1.896553907e-01	-2.465615106e-04	1.221029541e-11
-1.450000000e-02	1.896553880e-01	-2.446332055e-04	1.384443019e-11
-1.460000000e-02	1.896553851e-01	-2.427049005e-04	5.196099788e-11
-1.470000000e-02	1.896553823e-01	-2.407765958e-04	8.765982208e-12
-1.480000000e-02	1.896553793e-01	-2.388482913e-04	1.195168446e-11
-1.490000000e-02	1.896553763e-01	-2.369199869e-04	6.992945531e-12
-1.500000000e-02	1.896553733e-01	-2.349916828e-04	7.959292249e-12
-1.510000000e-02	1.896553701e-01	-2.330633789e-04	6.991033364e-12
-1.520000000e-02	1.896553670e-01	-2.311350752e-04	3.716843953e-11
-1.530000000e-02	1.896553637e-01	-2.292067717e-04	1.102947301e-11
-1.540000000e-02	1.896553604e-01	-2.272784684e-04	1.030090356e-11
-1.550000000e-02	1.896553571e-01	-2.253501653e-04	7.814708686e-12
-1.560000000e-02	1.896553537e-01	-2.234218625e-04	8.518086092e-12
-1.570000000e-02	1.896553502e-01	-2.214935599e-04	2.405015345e-11
-1.580000000e-02	1.896553467e-01	-2.195652575e-04	6.342890084e-12
-1.590000000e-02	1.896553431e-01	-2.176369554e-04	1.738106645e-11
-1.600000000e-02	1.896553394e-01	-2.157086535e-04	1.551994757e-10
-1.610000000e-02	1.896553357e-01	-2.137803518e-04	1.141130919e-11
-1.620000000e-02	1.896553320e-01	-2.118520504e-04	1.397001281e-11
-1.630000000e-02	1.896553281e-01	-2.099237492e-04	5.168049490e-11
-1.640000000e-02	1.896553243e-01	-2.079954482e-04	1.104924423e-11
-1.650000000e-02	1.896553203e-01	-2.060671475e-04	1.606777011e-11
-1.660000000e-02	1.896553163e-01	-2.041388471e-04	2.641997179e-11
-1.670000000e-02	1.896553123e-01	-2.022105469e-04	2.752980744e-11
-1.680000000e-02	1.896553081e-01	-2.002822470e-04	1.006187603e-10
-1.690000000e-02	1.896553040e-01	-1.983539473e-04	1.558479152e-11
-1.700000000e-02	1.896552997e-01	-1.964256479e-04	1.159674894e-11
-1.710000000e-02	1.896552954e-01	-1.944973488e-04	1.851857718e-11
-1.720000000e-02	1.896552911e-01	-1.925690499e-04	1.094085980e-11
-1.730000000e-02	1.896552867e-01	-1.906407513e-04	4.982464020e-11
-1.740000000e-02	1.896552822e-01	-1.887124530e-04	1.741553902e-11
-1.750000000e-02	1.896552777e-01	-1.867841550e-04	9.294155505e-12
-1.760000000e-02	1.896552731e-01	-1.848558572e-04	5.035508645e-12
-1.770000000e-02	1.896552684e-01	-1.829275598e-04	9.575847037e-11
-1.780000000e-02	1.896552637e-01	-1.809992626e-04	1.320201253e-11
-1.790000000e-02	1.896552590e-01	-1.790709657e-04	1.224857700e-11
-1.800000000e-02	1.896552541e-01	-1.771426691e-04	2.116658121e-11
-1.810000000e-02	1.896552493e-01	-1.752143728e-04	8.845315390e-12
-1.820000000e-02	1.896552443e-01	-1.732860768e-04	1.294051843e-11
-1.830000000e-02	1.896552393e-01	-1.713577811e-04	2.783591509e-11
-1.840000000e-02	1.896552343e-01	-1.694294858e-04	1.151015828e-11
-1.850000000e-02	1.896552291e-01	-1.675011907e-04	1.362108364e-11
-1.860000000e-02	1.896552240e-01	-1.655728959e-04	6.281035437e-12
-1.870000000e-02	1.896552187e-01	-1.636446015e-04	2.034743898e-11
-1.880000000e-02	1.896552134e-01	-1.617163074e-04	1.602120365e-11
-1.890000000e-02	1.896552081e-01	-1.597880135e-04	1.249486198e-11
-1.900000000e-02	1.896552027e-01	-1.578597201e-04	1.976299727e-11
-1.910000000e-02	1.896551972e-01	-1.559314269e-04	1.742204675e-11
-1.920000000e-02	1.896551917e-01	-1.540031341e-04	2.923632990e-11
-1.930000000e-02	1.896551861e-01	-1.520748416e-04	9.615017797e-12
-1.940000000e-02	1.896551805e-01	-1.501465494e-04	1.067173400e-11
-1.950000000e-02	1.896551748e-01	-1.482182576e-04	9.935157999e-12
-1.960000000e-02	1.896551690e-01	-1.462899662e-04	1.483874594e-11
-1.970000000e-02	1.896551632e-01	-1.443616750e-04	1.058790105e-11
-1.980000000e-02	1.896551573e-01	-1.424333842e-04	2.452036089e-11
-1.990000000e-02	1.896551513e-01	-1.405050938e-04	5.680905023e-11
-2.000000000e-02	1.896551453e-01	-1.385768037e-04	1.981085463e-11
-2.010000000e-02	1.896551393e-01	-1.366485140e-04	1.177511345e-11
-2.020000000e-02	1.896551332e-01	-1.347202247e-04	7.765730893e-11
-2.030000000e-02	1.896551270e-01	-1.327919357e-04	3.228633633e-11
-2.040000000e-02	1.896551208e-01	-1.308636470e-04	9.300080949e-12
-2.050000000e-02	1.896551145e-01	-1.289353588e-04	1.631139223e-11
-2.060000000e-02	1.896551081e-01	-1.270070709e-04	5.880927736e-11
-2.070000000e-02	1.896551017e-01	-1.250787834e-04	1.132589486e-11
-2.080000000e-02	1.896550952e-01	-1.231504962e-04	1.471602468e-11
-2.090000000e-02	1.896550887e-01	-1.212222095e-04	7.823393477e-12
-2.100000000e-02	1.896550821e-01	-1.192939231e-04	1.351571458e-11
-2.110000000e-02	1.896550755e-01	-1.173656371e-04	1.195059331e-11
-2.120000000e-02	1.896550688e-01	-1.154373515e-04	1.327496284e-11
-2.130000000e-02	1.896550620e-01	-1.135090663e-04	1.173912008e-11
-2.140000000e-02	1.896550552e-01	-1.115807815e-04	8.225571653e-12
-2.150000000e-02	1.896550483e-01	-1.096524971e-04	1.780292433e-11
-2.160000000e-02	1.896550414e-01	-1.077242131e-04	8.765637055e-12
-2.170000000e-02	1.896550344e-01	-1.057959295e-04	9.277031310e-12
-2.180000000e-02	1.896550273e-01	-1.038676463e-04	2.663758591e-11
-2.190000000e-02	1.896550202e-01	-1.019393636e-04	2.004292152e-11
-2.200000000e-02	1.896550130e-01	-1.000110812e-04	1.441839669e-10
-2.210000000e-02	1.896550058e-01	-9.808279924e-05	1.070893073e-11
-2.220000000e-02	1.896549985e-01	-9.615451771e-05	4.058044682e-11
-2.230000000e-02	1.896549912e-01	-9.422623660e-05	8.743474661e-12
-2.240000000e-02	1.896549838e-01	-9.229795592e-05	2.886221878e-11
-2.250000000e-02	1.896549763e-01	-9.036967566e-05	8.088249854e-12
-2.260000000e-02	1.896549688e-01	-8.844139584e-05	2.237451498e-11
-2.270000000e-02	1.896549612e-01	-8.651311645e-05	9.850420520e-12
-2.280000000e-02	1.896549535e-01	-8.458483750e-05	3.074970175e-11
-2.290000000e-02	1.896549458e-01	-8.265655899e-05	1.261786944e-11
-2.300000000e-02	1.896549381e-01	-8.072828093e-05	1.629718980e-11
-2.310000000e-02	1.896549303e-01	-7.880000330e-05	1.019112932e-11
-2.320000000e-02	1.896549224e-01	-7.687172613e-05	1.286932291e-11
-2.330000000e-02	1.896549144e-01	-7.494344941e-05	1.933178658e-11
-2.340000000e-02	1.896549065e-01	-7.301517316e-05	2.829518567e-11
-2.350000000e-02	1.896548984e-01	-7.108689735e-05	1.744801000e-11
-2.360000000e-02	1.896548903e-01	-6.915862201e-05	9.308908811e-12
-2.370000000e-02	1.896548821e-01	-6.723034713e-05	9.397238364e-12
-2.380000000e-02	1.896548739e-01	-6.530207272e-05	2.042328577e-11
-2.390000000e-02	1.896548656e-01	-6.337379879e-05	5.920981208e-11
-2.400000000e-02	1.896548572e-01	-6.144552532e-05	1.317527968e-11
-2.410000000e-02	1.896548488e-01	-5.951725232e-05	1.454764350e-11
-2.420000000e-02	1.896548404e-01	-5.758897981e-05	2.637377913e-11
-2.430000000e-02	1.896548318e-01	-5.566070779e-05	6.655491328e-12
-2.440000000e-02	1.896548233e-01	-5.373243624e-05	2.509194999e-11
-2.450000000e-02	1.896548146e-01	-5.180416519e-05	6.635012593e-12
-2.460000000e-02	1.896548059e-01	-4.987589462e-05	1.680435139e-11
-2.470000000e-02	1.896547972e-01	-4.794762456e-05	6.136448245e-12
-2.480000000e-02	1.896547883e-01	-4.601935498e-05	9.155151462e-12
-2.490000000e-02	1.896547795e-01	-4.409108591e-05	1.556237275e-11
-2.500000000e-02	1.896547705e-01	-4.216281734e-05	1.186010846e-11
-2.510000000e-02	1.896547615e-01	-4.023454928e-05	1.099580573e-11
-2.520000000e-02	1.896547525e-01	-3.830628173e-05	1.127884905e-11
-2.530000000e-02	1.896547434e-01	-3.637801469e-05	4.307039702e-11
-2.540000000e-02	1.896547342e-01	-3.444974816e-05	1.289450727e-11
-2.550000000e-02	1.896547250e-01	-3.252148215e-05	2.129290927e-11
-2.560000000e-02	1.896547157e-01	-3.059321667e-05	3.132569094e-11
-2.570000000e-02	1.896547063e-01	-2.866495170e-05	1.509090271e-11
-2.580000000e-02	1.896546969e-01	-2.673668727e-05	1.888110648e-11
-2.590000000e-02	1.896546875e-01	-2.480842336e-05	8.090393861e-12
-2.600000000e-02	1.896546779e-01	-2.288015999e-05	7.201055613e-12
-2.610000000e-02	1.896546684e-01	-2.095189715e-05	6.955449117e-12
-2.620000000e-02	1.896546587e-01	-1.902363486e-05	2.306247418e-11
-2.630000000e-02	1.896546490e-01	-1.709537310e-05	1.509454883e-11
-2.640000000e-02	1.896546393e-01	-1.516711188e-05	1.699334729e-11
-2.650000000e-02	1.896546294e-01	-1.323885122e-05	8.356737298e-12
-2.660000000e-02	1.896546196e-01	-1.131059111e-05	2.022031044e-11
-2.670000000e-02	1.896546096e-01	-9.382331552e-06	1.417038275e-11
-2.680000000e-02	1.896545996e-01	-7.454072551e-06	1.140341897e-11
-2.690000000e-02	1.896545896e-01	-5.525814112e-06	8.495305325e-12
-2.700000000e-02	1.896545795e-01	-3.597556234e-06	2.212272865e-11
-2.710000000e-02	1.896545693e-01	-1.669298917e-06	1.765785748e-11
-2.720000000e-02	1.896545591e-01	2.589578246e-07	8.889814275e-12
-2.730000000e-02	1.896545488e-01	2.187213998e-06	1.293452692e-11
-2.740000000e-02	1.896545384e-01	4.115469596e-06	8.396135681e-12
-2.750000000e-02	1.896545280e-01	6.043724613e-06	1.548437177e-11
-2.760000000e-02	1.896545176e-01	7.971979055e-06	1.342293180e-11
-2.770000000e-02	1.896545070e-01	9.900232909e-06	1.283143615e-11
-2.780000000e-02	1.896544965e-01	1.182848618e-05	5.330549093e-12
-2.790000000e-02	1.896544858e-01	1.375673886e-05	8.923884580e-12
-2.800000000e-02	1.896544751e-01	1.568499094e-05	7.960795331e-12
-2.810000000e-02	1.896544644e-01	1.761324243e-05	8.341041454e-12
-2.820000000e-02	1.896544535e-01	1.954149333e-05	1.302920165e-11
-2.830000000e-02	1.896544427e-01	2.146974362e-05	1.785953429e-11
-2.840000000e-02	1.896544317e-01	2.339799330e-05	9.771531549e-12
-2.850000000e-02	1.896544207e-01	2.532624238e-05	1.127354759e-11
-2.860000000e-02	1.896544097e-01	2.725449085e-05	1.021973895e-11
-2.870000000e-02	1.896543986e-01	2.918273870e-05	7.994115652e-12
-2.880000000e-02	1.896543874e-01	3.111098594e-05	7.553578993e-12
-2.890000000e-02	1.896543762e-01	3.303923256e-05	1.031829531e-11
-2.900000000e-02	1.896543649e-01	3.496747855e-05	8.077383968e-12
-2.910000000e-02	1.896543536e-01	3.689572392e-05	1.384529180e-11
-2.920000000e-02	1.896543421e-01	3.882396867e-05	1.479508196e-11
-2.930000000e-02	1.896543307e-01	4.075221278e-05	1.363935130e-11
-2.940000000e-02	1.896543192e-01	4.268045625e-05	9.745989383e-12
-2.950000000e-02	1.896543076e-01	4.460869909e-05	9.223921567e-12
-2.960000000e-02	1.896542959e-01	4.653694129e-05	1.111180720e-11
-2.970000000e-02	1.896542842e-01	4.846518285e-05	1.489861639e-11
-2.980000000e-02	1.896542725e-01	5.039342375e-05	9.369128028e-12
-2.990000000e-02	1.896542607e-01	5.232166401e-05	1.412089042e-11
-3.000000000e-02	1.896542488e-01	5.424990362e-05	1.841802582e-11
