# Im(epsi1)     Re(omega/c)      Im(omega/c)      Eq(det).Opt det CON kz, R=0.5 \mum, mu_c=0.3, Re(epsi1)=3.90solve_det_conkz_vs_kz.py
0.000000000e+00	1.896428564e-01	-5.242054867e-04	2.644746716e-11
-1.000000000e-04	1.896428621e-01	-5.222772452e-04	1.890924331e-11
-2.000000000e-04	1.896428677e-01	-5.203490034e-04	1.014172519e-11
-3.000000000e-04	1.896428733e-01	-5.184207615e-04	5.426335822e-12
-4.000000000e-04	1.896428788e-01	-5.164925193e-04	8.626966625e-12
-5.000000000e-04	1.896428843e-01	-5.145642768e-04	1.328500752e-11
-6.000000000e-04	1.896428897e-01	-5.126360342e-04	2.350709048e-11
-7.000000000e-04	1.896428950e-01	-5.107077913e-04	1.467788681e-11
-8.000000000e-04	1.896429003e-01	-5.087795482e-04	1.512657673e-11
-9.000000000e-04	1.896429055e-01	-5.068513049e-04	6.491844226e-12
-1.000000000e-03	1.896429107e-01	-5.049230613e-04	1.079073896e-11
-1.100000000e-03	1.896429158e-01	-5.029948176e-04	1.144711095e-11
-1.200000000e-03	1.896429209e-01	-5.010665737e-04	1.020194317e-11
-1.300000000e-03	1.896429259e-01	-4.991383295e-04	2.194897545e-11
-1.400000000e-03	1.896429308e-01	-4.972100852e-04	1.178884440e-11
-1.500000000e-03	1.896429357e-01	-4.952818406e-04	1.615369149e-11
-1.600000000e-03	1.896429405e-01	-4.933535959e-04	7.569663197e-12
-1.700000000e-03	1.896429452e-01	-4.914253509e-04	5.718839835e-12
-1.800000000e-03	1.896429499e-01	-4.894971058e-04	1.719332932e-11
-1.900000000e-03	1.896429546e-01	-4.875688605e-04	1.389254582e-11
-2.000000000e-03	1.896429591e-01	-4.856406150e-04	1.121641651e-11
-2.100000000e-03	1.896429637e-01	-4.837123694e-04	1.547188781e-11
-2.200000000e-03	1.896429681e-01	-4.817841235e-04	9.409155086e-12
-2.300000000e-03	1.896429725e-01	-4.798558775e-04	4.394394606e-11
-2.400000000e-03	1.896429769e-01	-4.779276313e-04	1.252008202e-11
-2.500000000e-03	1.896429812e-01	-4.759993849e-04	1.207373183e-11
-2.600000000e-03	1.896429854e-01	-4.740711384e-04	1.259143066e-11
-2.700000000e-03	1.896429896e-01	-4.721428917e-04	1.029172505e-11
-2.800000000e-03	1.896429937e-01	-4.702146449e-04	6.860527699e-12
-2.900000000e-03	1.896429977e-01	-4.682863979e-04	9.972653830e-12
-3.000000000e-03	1.896430017e-01	-4.663581507e-04	3.097794942e-11
-3.100000000e-03	1.896430056e-01	-4.644299034e-04	8.263109579e-12
-3.200000000e-03	1.896430095e-01	-4.625016560e-04	1.516317777e-11
-3.300000000e-03	1.896430133e-01	-4.605734084e-04	9.251736594e-12
-3.400000000e-03	1.896430171e-01	-4.586451607e-04	1.706612931e-11
-3.500000000e-03	1.896430208e-01	-4.567169128e-04	1.993156165e-11
-3.600000000e-03	1.896430244e-01	-4.547886648e-04	3.745107562e-11
-3.700000000e-03	1.896430280e-01	-4.528604166e-04	1.238949471e-11
-3.800000000e-03	1.896430315e-01	-4.509321684e-04	1.873893704e-11
-3.900000000e-03	1.896430350e-01	-4.490039200e-04	1.144096619e-11
-4.000000000e-03	1.896430384e-01	-4.470756715e-04	6.306425639e-12
-4.100000000e-03	1.896430417e-01	-4.451474228e-04	2.874299812e-11
-4.200000000e-03	1.896430450e-01	-4.432191741e-04	2.271633593e-11
-4.300000000e-03	1.896430483e-01	-4.412909252e-04	2.011640905e-11
-4.400000000e-03	1.896430514e-01	-4.393626762e-04	2.481648124e-11
-4.500000000e-03	1.896430545e-01	-4.374344271e-04	2.361612208e-11
-4.600000000e-03	1.896430576e-01	-4.355061779e-04	1.381492832e-11
-4.700000000e-03	1.896430606e-01	-4.335779286e-04	8.369268994e-12
-4.800000000e-03	1.896430635e-01	-4.316496792e-04	1.671262693e-11
-4.900000000e-03	1.896430664e-01	-4.297214297e-04	1.207518140e-11
-5.000000000e-03	1.896430692e-01	-4.277931802e-04	4.101883637e-11
-5.100000000e-03	1.896430720e-01	-4.258649305e-04	7.385506824e-12
-5.200000000e-03	1.896430747e-01	-4.239366807e-04	2.137721101e-11
-5.300000000e-03	1.896430773e-01	-4.220084309e-04	1.533508606e-10
-5.400000000e-03	1.896430799e-01	-4.200801809e-04	1.043158648e-11
-5.500000000e-03	1.896430824e-01	-4.181519309e-04	9.999498108e-12
-5.600000000e-03	1.896430849e-01	-4.162236809e-04	2.513011402e-11
-5.700000000e-03	1.896430873e-01	-4.142954307e-04	1.095706117e-11
-5.800000000e-03	1.896430896e-01	-4.123671805e-04	8.711042978e-12
-5.900000000e-03	1.896430919e-01	-4.104389302e-04	9.959997145e-12
-6.000000000e-03	1.896430941e-01	-4.085106798e-04	1.121559322e-11
-6.100000000e-03	1.896430963e-01	-4.065824294e-04	1.072592044e-11
-6.200000000e-03	1.896430984e-01	-4.046541790e-04	1.069796062e-11
-6.300000000e-03	1.896431005e-01	-4.027259284e-04	7.735698717e-12
-6.400000000e-03	1.896431025e-01	-4.007976779e-04	1.035215177e-11
-6.500000000e-03	1.896431044e-01	-3.988694272e-04	1.547948558e-11
-6.600000000e-03	1.896431063e-01	-3.969411766e-04	1.050083977e-11
-6.700000000e-03	1.896431081e-01	-3.950129258e-04	1.252575784e-11
-6.800000000e-03	1.896431099e-01	-3.930846751e-04	8.439940386e-12
-6.900000000e-03	1.896431116e-01	-3.911564243e-04	1.081483434e-11
-7.000000000e-03	1.896431132e-01	-3.892281735e-04	1.560442089e-11
-7.100000000e-03	1.896431148e-01	-3.872999226e-04	1.190635977e-11
-7.200000000e-03	1.896431163e-01	-3.853716717e-04	3.743227675e-11
-7.300000000e-03	1.896431178e-01	-3.834434208e-04	4.900596687e-11
-7.400000000e-03	1.896431192e-01	-3.815151699e-04	6.762559434e-12
-7.500000000e-03	1.896431205e-01	-3.795869189e-04	4.854670970e-11
-7.600000000e-03	1.896431218e-01	-3.776586680e-04	1.669246832e-11
-7.700000000e-03	1.896431230e-01	-3.757304170e-04	1.521655895e-11
-7.800000000e-03	1.896431242e-01	-3.738021660e-04	1.247183878e-11
-7.900000000e-03	1.896431253e-01	-3.718739150e-04	4.882975420e-11
-8.000000000e-03	1.896431264e-01	-3.699456641e-04	4.956207657e-11
-8.100000000e-03	1.896431274e-01	-3.680174131e-04	2.678900841e-11
-8.200000000e-03	1.896431283e-01	-3.660891621e-04	1.467563411e-11
-8.300000000e-03	1.896431292e-01	-3.641609111e-04	3.459521656e-11
-8.400000000e-03	1.896431300e-01	-3.622326601e-04	3.742631206e-11
-8.500000000e-03	1.896431308e-01	-3.603044091e-04	1.639609128e-11
-8.600000000e-03	1.896431315e-01	-3.583761582e-04	1.619555059e-11
-8.700000000e-03	1.896431321e-01	-3.564479072e-04	1.473139332e-11
-8.800000000e-03	1.896431327e-01	-3.545196563e-04	1.383813524e-11
-8.900000000e-03	1.896431332e-01	-3.525914054e-04	1.092896078e-11
-9.000000000e-03	1.896431337e-01	-3.506631545e-04	1.241332678e-11
-9.100000000e-03	1.896431341e-01	-3.487349037e-04	9.240923224e-12
-9.200000000e-03	1.896431344e-01	-3.468066529e-04	7.107521080e-12
-9.300000000e-03	1.896431347e-01	-3.448784021e-04	3.055709552e-11
-9.400000000e-03	1.896431350e-01	-3.429501514e-04	8.587316334e-12
-9.500000000e-03	1.896431351e-01	-3.410219007e-04	7.182302839e-12
-9.600000000e-03	1.896431352e-01	-3.390936501e-04	2.876851100e-11
-9.700000000e-03	1.896431353e-01	-3.371653994e-04	1.098695939e-11
-9.800000000e-03	1.896431353e-01	-3.352371489e-04	1.182916021e-11
-9.900000000e-03	1.896431352e-01	-3.333088984e-04	1.530573188e-11
-1.000000000e-02	1.896431351e-01	-3.313806479e-04	1.324790718e-11
-1.010000000e-02	1.896431349e-01	-3.294523976e-04	1.923545282e-11
-1.020000000e-02	1.896431347e-01	-3.275241472e-04	1.193699980e-11
-1.030000000e-02	1.896431344e-01	-3.255958970e-04	3.147241632e-11
-1.040000000e-02	1.896431340e-01	-3.236676468e-04	3.024393346e-11
-1.050000000e-02	1.896431336e-01	-3.217393967e-04	2.442837784e-11
-1.060000000e-02	1.896431331e-01	-3.198111466e-04	1.850427105e-11
-1.070000000e-02	1.896431326e-01	-3.178828966e-04	1.292454117e-11
-1.080000000e-02	1.896431320e-01	-3.159546468e-04	1.130773647e-11
-1.090000000e-02	1.896431314e-01	-3.140263970e-04	1.110165164e-11
-1.100000000e-02	1.896431307e-01	-3.120981472e-04	8.705539527e-12
-1.110000000e-02	1.896431299e-01	-3.101698976e-04	3.490805689e-11
-1.120000000e-02	1.896431291e-01	-3.082416481e-04	1.947795438e-11
-1.130000000e-02	1.896431282e-01	-3.063133986e-04	1.303535464e-11
-1.140000000e-02	1.896431272e-01	-3.043851493e-04	1.338177767e-11
-1.150000000e-02	1.896431262e-01	-3.024569000e-04	1.012013942e-11
-1.160000000e-02	1.896431252e-01	-3.005286509e-04	1.621306502e-11
-1.170000000e-02	1.896431240e-01	-2.986004018e-04	9.435397560e-12
-1.180000000e-02	1.896431229e-01	-2.966721529e-04	5.432316272e-11
-1.190000000e-02	1.896431216e-01	-2.947439041e-04	2.739611547e-11
-1.200000000e-02	1.896431203e-01	-2.928156554e-04	4.753084419e-11
-1.210000000e-02	1.896431190e-01	-2.908874068e-04	5.928629391e-12
-1.220000000e-02	1.896431176e-01	-2.889591583e-04	9.453463017e-12
-1.230000000e-02	1.896431161e-01	-2.870309100e-04	9.247804641e-12
-1.240000000e-02	1.896431146e-01	-2.851026618e-04	8.153526299e-12
-1.250000000e-02	1.896431130e-01	-2.831744137e-04	1.393441589e-11
-1.260000000e-02	1.896431113e-01	-2.812461658e-04	1.840182751e-11
-1.270000000e-02	1.896431096e-01	-2.793179180e-04	3.213150265e-11
-1.280000000e-02	1.896431078e-01	-2.773896703e-04	4.174513110e-11
-1.290000000e-02	1.896431060e-01	-2.754614228e-04	7.785790809e-12
-1.300000000e-02	1.896431041e-01	-2.735331754e-04	2.097475222e-11
-1.310000000e-02	1.896431022e-01	-2.716049282e-04	1.065217852e-11
-1.320000000e-02	1.896431002e-01	-2.696766811e-04	2.974127672e-11
-1.330000000e-02	1.896430981e-01	-2.677484341e-04	1.280676597e-11
-1.340000000e-02	1.896430960e-01	-2.658201874e-04	1.493574804e-11
-1.350000000e-02	1.896430938e-01	-2.638919408e-04	6.918156015e-12
-1.360000000e-02	1.896430916e-01	-2.619636943e-04	5.753472536e-11
-1.370000000e-02	1.896430893e-01	-2.600354480e-04	2.764644663e-11
-1.380000000e-02	1.896430869e-01	-2.581072019e-04	8.796026273e-12
-1.390000000e-02	1.896430845e-01	-2.561789560e-04	9.694222024e-12
-1.400000000e-02	1.896430820e-01	-2.542507102e-04	1.384312683e-11
-1.410000000e-02	1.896430795e-01	-2.523224646e-04	2.266116694e-11
-1.420000000e-02	1.896430769e-01	-2.503942192e-04	1.089381992e-11
-1.430000000e-02	1.896430743e-01	-2.484659740e-04	1.954782522e-11
-1.440000000e-02	1.896430716e-01	-2.465377290e-04	1.872933566e-11
-1.450000000e-02	1.896430688e-01	-2.446094841e-04	1.064446473e-11
-1.460000000e-02	1.896430660e-01	-2.426812395e-04	1.567593182e-11
-1.470000000e-02	1.896430631e-01	-2.407529950e-04	9.273131377e-12
-1.480000000e-02	1.896430601e-01	-2.388247508e-04	5.873070967e-12
-1.490000000e-02	1.896430571e-01	-2.368965067e-04	1.344595623e-11
-1.500000000e-02	1.896430541e-01	-2.349682629e-04	1.884547364e-11
-1.510000000e-02	1.896430510e-01	-2.330400192e-04	7.904563239e-12
-1.520000000e-02	1.896430478e-01	-2.311117758e-04	2.202875499e-11
-1.530000000e-02	1.896430446e-01	-2.291835326e-04	1.438618317e-11
-1.540000000e-02	1.896430413e-01	-2.272552896e-04	2.597980728e-11
-1.550000000e-02	1.896430379e-01	-2.253270468e-04	1.450368600e-11
-1.560000000e-02	1.896430345e-01	-2.233988043e-04	2.717785610e-11
-1.570000000e-02	1.896430310e-01	-2.214705619e-04	1.113517699e-11
-1.580000000e-02	1.896430275e-01	-2.195423198e-04	2.185285887e-11
-1.590000000e-02	1.896430239e-01	-2.176140780e-04	1.479961854e-11
-1.600000000e-02	1.896430203e-01	-2.156858363e-04	2.434561939e-11
-1.610000000e-02	1.896430165e-01	-2.137575949e-04	6.286813430e-12
-1.620000000e-02	1.896430128e-01	-2.118293538e-04	1.945886899e-11
-1.630000000e-02	1.896430090e-01	-2.099011129e-04	8.588689311e-12
-1.640000000e-02	1.896430051e-01	-2.079728722e-04	1.476988783e-11
-1.650000000e-02	1.896430011e-01	-2.060446318e-04	3.313257282e-11
-1.660000000e-02	1.896429971e-01	-2.041163916e-04	4.869325168e-11
-1.670000000e-02	1.896429931e-01	-2.021881517e-04	1.258631274e-11
-1.680000000e-02	1.896429890e-01	-2.002599121e-04	1.177673022e-11
-1.690000000e-02	1.896429848e-01	-1.983316727e-04	1.312281245e-11
-1.700000000e-02	1.896429805e-01	-1.964034336e-04	1.180338057e-11
-1.710000000e-02	1.896429763e-01	-1.944751947e-04	8.022623036e-12
-1.720000000e-02	1.896429719e-01	-1.925469561e-04	1.900423221e-11
-1.730000000e-02	1.896429675e-01	-1.906187178e-04	2.037243374e-11
-1.740000000e-02	1.896429630e-01	-1.886904798e-04	2.420784437e-11
-1.750000000e-02	1.896429585e-01	-1.867622420e-04	5.423397503e-12
-1.760000000e-02	1.896429539e-01	-1.848340045e-04	1.168476153e-11
-1.770000000e-02	1.896429493e-01	-1.829057674e-04	6.705206845e-12
-1.780000000e-02	1.896429445e-01	-1.809775305e-04	1.123411969e-11
-1.790000000e-02	1.896429398e-01	-1.790492939e-04	9.160496219e-12
-1.800000000e-02	1.896429350e-01	-1.771210575e-04	1.041416254e-11
-1.810000000e-02	1.896429301e-01	-1.751928215e-04	9.538163538e-12
-1.820000000e-02	1.896429251e-01	-1.732645858e-04	2.088343040e-11
-1.830000000e-02	1.896429201e-01	-1.713363504e-04	1.038127602e-11
-1.840000000e-02	1.896429151e-01	-1.694081153e-04	3.376320834e-11
-1.850000000e-02	1.896429100e-01	-1.674798805e-04	1.355198167e-11
-1.860000000e-02	1.896429048e-01	-1.655516460e-04	2.183178089e-11
-1.870000000e-02	1.896428996e-01	-1.636234119e-04	1.436872802e-11
-1.880000000e-02	1.896428943e-01	-1.616951780e-04	1.331296011e-11
-1.890000000e-02	1.896428889e-01	-1.597669445e-04	1.671401996e-11
-1.900000000e-02	1.896428835e-01	-1.578387113e-04	3.421242502e-11
-1.910000000e-02	1.896428780e-01	-1.559104784e-04	9.374897363e-12
-1.920000000e-02	1.896428725e-01	-1.539822459e-04	9.843750285e-12
-1.930000000e-02	1.896428669e-01	-1.520540137e-04	1.521243723e-11
-1.940000000e-02	1.896428613e-01	-1.501257818e-04	9.090035601e-12
-1.950000000e-02	1.896428556e-01	-1.481975502e-04	1.348337942e-11
-1.960000000e-02	1.896428498e-01	-1.462693190e-04	2.231663172e-11
-1.970000000e-02	1.896428440e-01	-1.443410882e-04	2.511305162e-11
-1.980000000e-02	1.896428381e-01	-1.424128577e-04	1.011017889e-11
-1.990000000e-02	1.896428322e-01	-1.404846275e-04	1.260250550e-11
-2.000000000e-02	1.896428262e-01	-1.385563978e-04	1.992020530e-11
-2.010000000e-02	1.896428201e-01	-1.366281683e-04	1.887479872e-11
-2.020000000e-02	1.896428140e-01	-1.346999392e-04	1.522626828e-11
-2.030000000e-02	1.896428078e-01	-1.327717105e-04	9.680575477e-12
-2.040000000e-02	1.896428016e-01	-1.308434822e-04	4.030661313e-11
-2.050000000e-02	1.896427953e-01	-1.289152542e-04	8.602302306e-12
-2.060000000e-02	1.896427889e-01	-1.269870266e-04	1.015070163e-11
-2.070000000e-02	1.896427825e-01	-1.250587993e-04	7.504332629e-12
-2.080000000e-02	1.896427761e-01	-1.231305725e-04	1.612975284e-11
-2.090000000e-02	1.896427695e-01	-1.212023460e-04	2.780587388e-11
-2.100000000e-02	1.896427629e-01	-1.192741199e-04	8.444285913e-12
-2.110000000e-02	1.896427563e-01	-1.173458942e-04	1.749192576e-11
-2.120000000e-02	1.896427496e-01	-1.154176689e-04	5.296851061e-12
-2.130000000e-02	1.896427428e-01	-1.134894440e-04	1.767377973e-11
-2.140000000e-02	1.896427360e-01	-1.115612195e-04	9.940881538e-12
-2.150000000e-02	1.896427291e-01	-1.096329953e-04	1.093578462e-11
-2.160000000e-02	1.896427222e-01	-1.077047716e-04	9.317464306e-12
-2.170000000e-02	1.896427152e-01	-1.057765483e-04	1.877247056e-11
-2.180000000e-02	1.896427081e-01	-1.038483254e-04	3.740241771e-11
-2.190000000e-02	1.896427010e-01	-1.019201029e-04	2.487797979e-11
-2.200000000e-02	1.896426938e-01	-9.999188080e-05	1.635514200e-11
-2.210000000e-02	1.896426866e-01	-9.806365913e-05	8.982947009e-12
-2.220000000e-02	1.896426793e-01	-9.613543787e-05	1.072948156e-11
-2.230000000e-02	1.896426720e-01	-9.420721705e-05	1.783186745e-11
-2.240000000e-02	1.896426646e-01	-9.227899664e-05	1.527196747e-11
-2.250000000e-02	1.896426571e-01	-9.035077667e-05	7.552538964e-12
-2.260000000e-02	1.896426496e-01	-8.842255714e-05	2.034106790e-11
-2.270000000e-02	1.896426420e-01	-8.649433803e-05	4.757105658e-11
-2.280000000e-02	1.896426343e-01	-8.456611936e-05	1.101327550e-11
-2.290000000e-02	1.896426266e-01	-8.263790112e-05	3.462351948e-11
-2.300000000e-02	1.896426189e-01	-8.070968334e-05	2.482005638e-11
-2.310000000e-02	1.896426111e-01	-7.878146600e-05	1.424960590e-11
-2.320000000e-02	1.896426032e-01	-7.685324911e-05	1.456023347e-11
-2.330000000e-02	1.896425952e-01	-7.492503268e-05	8.235849640e-12
-2.340000000e-02	1.896425872e-01	-7.299681669e-05	1.003933685e-11
-2.350000000e-02	1.896425792e-01	-7.106860117e-05	1.337955840e-11
-2.360000000e-02	1.896425711e-01	-6.914038611e-05	1.391883060e-11
-2.370000000e-02	1.896425629e-01	-6.721217151e-05	7.913937851e-12
-2.380000000e-02	1.896425547e-01	-6.528395738e-05	2.262010608e-11
-2.390000000e-02	1.896425464e-01	-6.335574372e-05	7.267863208e-12
-2.400000000e-02	1.896425380e-01	-6.142753054e-05	8.923004338e-12
-2.410000000e-02	1.896425296e-01	-5.949931783e-05	2.307739966e-11
-2.420000000e-02	1.896425212e-01	-5.757110560e-05	1.214366960e-11
-2.430000000e-02	1.896425126e-01	-5.564289385e-05	8.279575077e-12
-2.440000000e-02	1.896425040e-01	-5.371468257e-05	1.101457312e-10
-2.450000000e-02	1.896424954e-01	-5.178647182e-05	1.124954644e-11
-2.460000000e-02	1.896424867e-01	-4.985826153e-05	6.837599552e-12
-2.470000000e-02	1.896424779e-01	-4.793005175e-05	1.338749055e-11
-2.480000000e-02	1.896424691e-01	-4.600184246e-05	1.543426704e-11
-2.490000000e-02	1.896424602e-01	-4.407363367e-05	2.050585335e-11
-2.500000000e-02	1.896424513e-01	-4.214542538e-05	1.272666936e-11
-2.510000000e-02	1.896424423e-01	-4.021721760e-05	1.091202820e-11
-2.520000000e-02	1.896424333e-01	-3.828901033e-05	1.913383467e-11
-2.530000000e-02	1.896424241e-01	-3.636080357e-05	6.804206115e-12
-2.540000000e-02	1.896424150e-01	-3.443259732e-05	7.251243605e-12
-2.550000000e-02	1.896424057e-01	-3.250439160e-05	2.737874191e-11
-2.560000000e-02	1.896423965e-01	-3.057618639e-05	1.054732501e-11
-2.570000000e-02	1.896423871e-01	-2.864798171e-05	1.201654063e-11
-2.580000000e-02	1.896423777e-01	-2.671977756e-05	7.514596608e-12
-2.590000000e-02	1.896423682e-01	-2.479157393e-05	9.363633066e-12
-2.600000000e-02	1.896423587e-01	-2.286337084e-05	1.388769273e-11
-2.610000000e-02	1.896423491e-01	-2.093516828e-05	1.198091505e-11
-2.620000000e-02	1.896423395e-01	-1.900696627e-05	7.072715342e-12
-2.630000000e-02	1.896423298e-01	-1.707876479e-05	5.905074657e-11
-2.640000000e-02	1.896423200e-01	-1.515056386e-05	1.339390954e-11
-2.650000000e-02	1.896423102e-01	-1.322236348e-05	9.606580710e-12
-2.660000000e-02	1.896423003e-01	-1.129416365e-05	1.124208424e-11
-2.670000000e-02	1.896422904e-01	-9.365964376e-06	1.498718141e-11
-2.680000000e-02	1.896422804e-01	-7.437765660e-06	2.021321025e-11
-2.690000000e-02	1.896422703e-01	-5.509567498e-06	7.684717147e-12
-2.700000000e-02	1.896422602e-01	-3.581369904e-06	1.109831377e-11
-2.710000000e-02	1.896422501e-01	-1.653172872e-06	8.418197440e-12
-2.720000000e-02	1.896422398e-01	2.750235793e-07	5.054650117e-11
-2.730000000e-02	1.896422295e-01	2.203219482e-06	1.225257576e-11
-2.740000000e-02	1.896422192e-01	4.131414795e-06	7.032495787e-12
-2.750000000e-02	1.896422088e-01	6.059609533e-06	2.057128908e-11
-2.760000000e-02	1.896421983e-01	7.987803690e-06	2.956747562e-11
-2.770000000e-02	1.896421878e-01	9.915997265e-06	1.322785727e-11
-2.780000000e-02	1.896421772e-01	1.184419025e-05	1.968955852e-11
-2.790000000e-02	1.896421666e-01	1.377238264e-05	7.164751180e-12
-2.800000000e-02	1.896421559e-01	1.570057446e-05	5.231427889e-11
-2.810000000e-02	1.896421451e-01	1.762876566e-05	7.329494957e-12
-2.820000000e-02	1.896421343e-01	1.955695626e-05	1.220294009e-11
-2.830000000e-02	1.896421234e-01	2.148514628e-05	8.113043703e-12
-2.840000000e-02	1.896421125e-01	2.341333568e-05	1.044796480e-11
-2.850000000e-02	1.896421015e-01	2.534152447e-05	1.544839411e-11
-2.860000000e-02	1.896420905e-01	2.726971265e-05	3.202656773e-11
-2.870000000e-02	1.896420793e-01	2.919790023e-05	7.237454152e-12
-2.880000000e-02	1.896420682e-01	3.112608718e-05	1.360087653e-11
-2.890000000e-02	1.896420569e-01	3.305427352e-05	9.092768371e-12
-2.900000000e-02	1.896420457e-01	3.498245923e-05	1.201216768e-11
-2.910000000e-02	1.896420343e-01	3.691064432e-05	1.338385816e-11
-2.920000000e-02	1.896420229e-01	3.883882878e-05	1.311612853e-11
-2.930000000e-02	1.896420114e-01	4.076701260e-05	1.880553842e-11
-2.940000000e-02	1.896419999e-01	4.269519580e-05	9.111392308e-12
-2.950000000e-02	1.896419883e-01	4.462337836e-05	7.966234041e-12
-2.960000000e-02	1.896419767e-01	4.655156027e-05	1.653767894e-11
-2.970000000e-02	1.896419650e-01	4.847974154e-05	1.639123182e-11
-2.980000000e-02	1.896419532e-01	5.040792216e-05	2.026241775e-11
-2.990000000e-02	1.896419414e-01	5.233610214e-05	1.850752745e-11
-3.000000000e-02	1.896419296e-01	5.426428146e-05	1.094815055e-11
