# Im(epsi1)     Re(omega/c)      Im(omega/c)      Eq(det).Opt det CON kz, R=0.5 \mum, mu_c=0.3, Re(epsi1)=3.90solve_det_conkz_vs_kz.py
0.000000000e+00	1.896712482e-01	-5.242694804e-04	6.287768372e-12
-1.000000000e-04	1.896712539e-01	-5.223410997e-04	9.365020461e-12
-2.000000000e-04	1.896712596e-01	-5.204127187e-04	4.848267274e-11
-3.000000000e-04	1.896712651e-01	-5.184843375e-04	2.597409063e-11
-4.000000000e-04	1.896712707e-01	-5.165559561e-04	1.137245029e-11
-5.000000000e-04	1.896712761e-01	-5.146275744e-04	2.224695126e-11
-6.000000000e-04	1.896712815e-01	-5.126991926e-04	1.561976934e-11
-7.000000000e-04	1.896712869e-01	-5.107708105e-04	6.332414369e-12
-8.000000000e-04	1.896712922e-01	-5.088424281e-04	1.280351410e-11
-9.000000000e-04	1.896712974e-01	-5.069140456e-04	2.500904799e-11
-1.000000000e-03	1.896713026e-01	-5.049856629e-04	8.938266157e-12
-1.100000000e-03	1.896713077e-01	-5.030572799e-04	2.002483740e-11
-1.200000000e-03	1.896713127e-01	-5.011288967e-04	6.884367997e-12
-1.300000000e-03	1.896713177e-01	-4.992005134e-04	2.089985670e-11
-1.400000000e-03	1.896713226e-01	-4.972721298e-04	7.689360686e-12
-1.500000000e-03	1.896713275e-01	-4.953437460e-04	1.634024396e-11
-1.600000000e-03	1.896713323e-01	-4.934153621e-04	1.360202026e-11
-1.700000000e-03	1.896713371e-01	-4.914869779e-04	1.071616374e-11
-1.800000000e-03	1.896713418e-01	-4.895585936e-04	2.304979406e-11
-1.900000000e-03	1.896713464e-01	-4.876302090e-04	2.480631877e-11
-2.000000000e-03	1.896713510e-01	-4.857018243e-04	2.879374102e-11
-2.100000000e-03	1.896713555e-01	-4.837734394e-04	2.208220099e-11
-2.200000000e-03	1.896713600e-01	-4.818450544e-04	2.420938117e-11
-2.300000000e-03	1.896713644e-01	-4.799166691e-04	9.935326476e-12
-2.400000000e-03	1.896713687e-01	-4.779882837e-04	2.889794894e-11
-2.500000000e-03	1.896713730e-01	-4.760598981e-04	7.246138428e-12
-2.600000000e-03	1.896713772e-01	-4.741315124e-04	7.251231857e-12
-2.700000000e-03	1.896713814e-01	-4.722031265e-04	9.749775841e-12
-2.800000000e-03	1.896713855e-01	-4.702747404e-04	3.538540157e-11
-2.900000000e-03	1.896713896e-01	-4.683463542e-04	2.695040642e-11
-3.000000000e-03	1.896713936e-01	-4.664179678e-04	1.039501678e-11
-3.100000000e-03	1.896713975e-01	-4.644895813e-04	2.486125706e-11
-3.200000000e-03	1.896714014e-01	-4.625611946e-04	3.031889638e-11
-3.300000000e-03	1.896714052e-01	-4.606328078e-04	8.584580021e-12
-3.400000000e-03	1.896714090e-01	-4.587044209e-04	7.993542715e-12
-3.500000000e-03	1.896714127e-01	-4.567760338e-04	8.926864687e-12
-3.600000000e-03	1.896714163e-01	-4.548476465e-04	2.063151588e-10
-3.700000000e-03	1.896714199e-01	-4.529192592e-04	3.194591451e-11
-3.800000000e-03	1.896714234e-01	-4.509908717e-04	6.420785762e-12
-3.900000000e-03	1.896714269e-01	-4.490624841e-04	2.248060990e-11
-4.000000000e-03	1.896714303e-01	-4.471340963e-04	1.687940866e-11
-4.100000000e-03	1.896714336e-01	-4.452057085e-04	9.629488830e-12
-4.200000000e-03	1.896714369e-01	-4.432773205e-04	2.901037595e-11
-4.300000000e-03	1.896714401e-01	-4.413489324e-04	9.298447840e-12
-4.400000000e-03	1.896714433e-01	-4.394205442e-04	4.085122169e-11
-4.500000000e-03	1.896714464e-01	-4.374921559e-04	9.171291926e-12
-4.600000000e-03	1.896714495e-01	-4.355637675e-04	9.330396507e-12
-4.700000000e-03	1.896714525e-01	-4.336353790e-04	4.072481354e-11
-4.800000000e-03	1.896714554e-01	-4.317069904e-04	8.957704835e-12
-4.900000000e-03	1.896714583e-01	-4.297786016e-04	1.099676894e-11
-5.000000000e-03	1.896714611e-01	-4.278502128e-04	9.908293427e-12
-5.100000000e-03	1.896714638e-01	-4.259218239e-04	1.220905550e-11
-5.200000000e-03	1.896714665e-01	-4.239934350e-04	1.911057131e-11
-5.300000000e-03	1.896714692e-01	-4.220650459e-04	2.285317920e-11
-5.400000000e-03	1.896714718e-01	-4.201366567e-04	9.366952760e-12
-5.500000000e-03	1.896714743e-01	-4.182082675e-04	1.561558008e-11
-5.600000000e-03	1.896714768e-01	-4.162798782e-04	1.460823929e-11
-5.700000000e-03	1.896714792e-01	-4.143514888e-04	1.140411416e-11
-5.800000000e-03	1.896714815e-01	-4.124230994e-04	2.258615923e-11
-5.900000000e-03	1.896714838e-01	-4.104947099e-04	7.834843123e-12
-6.000000000e-03	1.896714860e-01	-4.085663203e-04	2.320649600e-11
-6.100000000e-03	1.896714882e-01	-4.066379307e-04	7.621047530e-12
-6.200000000e-03	1.896714903e-01	-4.047095410e-04	1.040949003e-11
-6.300000000e-03	1.896714924e-01	-4.027811512e-04	1.036103679e-11
-6.400000000e-03	1.896714944e-01	-4.008527614e-04	1.982336597e-11
-6.500000000e-03	1.896714963e-01	-3.989243716e-04	3.978336057e-11
-6.600000000e-03	1.896714982e-01	-3.969959817e-04	4.644128551e-11
-6.700000000e-03	1.896715000e-01	-3.950675918e-04	1.011562840e-11
-6.800000000e-03	1.896715017e-01	-3.931392018e-04	1.458555279e-11
-6.900000000e-03	1.896715034e-01	-3.912108118e-04	6.882017742e-12
-7.000000000e-03	1.896715051e-01	-3.892824217e-04	2.651826828e-11
-7.100000000e-03	1.896715067e-01	-3.873540317e-04	6.479760072e-12
-7.200000000e-03	1.896715082e-01	-3.854256416e-04	1.211490461e-11
-7.300000000e-03	1.896715097e-01	-3.834972514e-04	2.529974800e-11
-7.400000000e-03	1.896715111e-01	-3.815688613e-04	6.457964362e-12
-7.500000000e-03	1.896715124e-01	-3.796404711e-04	2.204327359e-11
-7.600000000e-03	1.896715137e-01	-3.777120809e-04	2.801556852e-11
-7.700000000e-03	1.896715149e-01	-3.757836907e-04	7.397029547e-12
-7.800000000e-03	1.896715161e-01	-3.738553005e-04	1.277811974e-11
-7.900000000e-03	1.896715172e-01	-3.719269103e-04	1.375529984e-11
-8.000000000e-03	1.896715183e-01	-3.699985201e-04	5.215289519e-11
-8.100000000e-03	1.896715193e-01	-3.680701299e-04	8.440595914e-12
-8.200000000e-03	1.896715202e-01	-3.661417397e-04	6.136834218e-12
-8.300000000e-03	1.896715211e-01	-3.642133495e-04	8.450138113e-12
-8.400000000e-03	1.896715219e-01	-3.622849593e-04	1.434293014e-11
-8.500000000e-03	1.896715227e-01	-3.603565691e-04	1.314225358e-11
-8.600000000e-03	1.896715234e-01	-3.584281789e-04	8.464137155e-12
-8.700000000e-03	1.896715240e-01	-3.564997887e-04	1.942994164e-11
-8.800000000e-03	1.896715246e-01	-3.545713986e-04	1.755815122e-11
-8.900000000e-03	1.896715251e-01	-3.526430085e-04	6.934479215e-12
-9.000000000e-03	1.896715256e-01	-3.507146184e-04	1.388835766e-11
-9.100000000e-03	1.896715260e-01	-3.487862283e-04	1.784067334e-11
-9.200000000e-03	1.896715263e-01	-3.468578383e-04	8.168365855e-12
-9.300000000e-03	1.896715266e-01	-3.449294483e-04	7.841619637e-12
-9.400000000e-03	1.896715269e-01	-3.430010583e-04	1.198703676e-11
-9.500000000e-03	1.896715270e-01	-3.410726684e-04	1.645268176e-11
-9.600000000e-03	1.896715272e-01	-3.391442785e-04	1.090542180e-11
-9.700000000e-03	1.896715272e-01	-3.372158887e-04	3.428566813e-11
-9.800000000e-03	1.896715272e-01	-3.352874989e-04	6.820319053e-12
-9.900000000e-03	1.896715271e-01	-3.333591092e-04	6.120699450e-12
-1.000000000e-02	1.896715270e-01	-3.314307196e-04	2.598306181e-11
-1.010000000e-02	1.896715268e-01	-3.295023299e-04	2.195155445e-10
-1.020000000e-02	1.896715266e-01	-3.275739404e-04	1.161842190e-11
-1.030000000e-02	1.896715263e-01	-3.256455509e-04	7.576533464e-12
-1.040000000e-02	1.896715260e-01	-3.237171615e-04	1.109178497e-11
-1.050000000e-02	1.896715255e-01	-3.217887722e-04	6.874762965e-12
-1.060000000e-02	1.896715251e-01	-3.198603829e-04	1.469506518e-11
-1.070000000e-02	1.896715245e-01	-3.179319937e-04	1.082419687e-10
-1.080000000e-02	1.896715239e-01	-3.160036046e-04	1.239514339e-11
-1.090000000e-02	1.896715233e-01	-3.140752156e-04	2.430777192e-11
-1.100000000e-02	1.896715226e-01	-3.121468266e-04	8.884228307e-12
-1.110000000e-02	1.896715218e-01	-3.102184378e-04	3.859369081e-11
-1.120000000e-02	1.896715210e-01	-3.082900490e-04	1.234220349e-11
-1.130000000e-02	1.896715201e-01	-3.063616603e-04	1.999969073e-11
-1.140000000e-02	1.896715192e-01	-3.044332718e-04	1.356265322e-11
-1.150000000e-02	1.896715182e-01	-3.025048833e-04	5.047489243e-11
-1.160000000e-02	1.896715171e-01	-3.005764949e-04	2.641201137e-11
-1.170000000e-02	1.896715160e-01	-2.986481067e-04	8.686149488e-12
-1.180000000e-02	1.896715148e-01	-2.967197185e-04	1.562587373e-11
-1.190000000e-02	1.896715136e-01	-2.947913305e-04	1.135019824e-11
-1.200000000e-02	1.896715123e-01	-2.928629425e-04	1.336323785e-11
-1.210000000e-02	1.896715109e-01	-2.909345547e-04	1.661857161e-11
-1.220000000e-02	1.896715095e-01	-2.890061670e-04	8.741050972e-12
-1.230000000e-02	1.896715080e-01	-2.870777795e-04	2.307636504e-11
-1.240000000e-02	1.896715065e-01	-2.851493921e-04	9.877208496e-12
-1.250000000e-02	1.896715049e-01	-2.832210048e-04	2.415749826e-11
-1.260000000e-02	1.896715033e-01	-2.812926176e-04	1.079742785e-11
-1.270000000e-02	1.896715015e-01	-2.793642306e-04	1.368643400e-11
-1.280000000e-02	1.896714998e-01	-2.774358437e-04	5.798941695e-11
-1.290000000e-02	1.896714980e-01	-2.755074569e-04	1.523278714e-11
-1.300000000e-02	1.896714961e-01	-2.735790703e-04	1.517850535e-11
-1.310000000e-02	1.896714941e-01	-2.716506839e-04	1.294226713e-11
-1.320000000e-02	1.896714921e-01	-2.697222975e-04	9.415614150e-12
-1.330000000e-02	1.896714901e-01	-2.677939114e-04	8.098852929e-12
-1.340000000e-02	1.896714879e-01	-2.658655254e-04	1.445699150e-11
-1.350000000e-02	1.896714858e-01	-2.639371396e-04	3.149570742e-11
-1.360000000e-02	1.896714835e-01	-2.620087539e-04	1.709986239e-11
-1.370000000e-02	1.896714812e-01	-2.600803684e-04	1.569730647e-11
-1.380000000e-02	1.896714789e-01	-2.581519831e-04	1.017827836e-11
-1.390000000e-02	1.896714765e-01	-2.562235979e-04	1.269203928e-11
-1.400000000e-02	1.896714740e-01	-2.542952129e-04	6.442640817e-12
-1.410000000e-02	1.896714715e-01	-2.523668281e-04	1.069055563e-11
-1.420000000e-02	1.896714689e-01	-2.504384435e-04	1.053465126e-11
-1.430000000e-02	1.896714662e-01	-2.485100590e-04	1.490978597e-11
-1.440000000e-02	1.896714635e-01	-2.465816748e-04	4.505703784e-11
-1.450000000e-02	1.896714608e-01	-2.446532907e-04	1.531415524e-11
-1.460000000e-02	1.896714579e-01	-2.427249068e-04	1.088899037e-11
-1.470000000e-02	1.896714550e-01	-2.407965231e-04	1.142077221e-11
-1.480000000e-02	1.896714521e-01	-2.388681397e-04	7.328551524e-11
-1.490000000e-02	1.896714491e-01	-2.369397564e-04	1.339843189e-11
-1.500000000e-02	1.896714460e-01	-2.350113733e-04	2.060271237e-11
-1.510000000e-02	1.896714429e-01	-2.330829905e-04	1.504210980e-11
-1.520000000e-02	1.896714398e-01	-2.311546078e-04	9.683989389e-12
-1.530000000e-02	1.896714365e-01	-2.292262254e-04	2.194872707e-11
-1.540000000e-02	1.896714332e-01	-2.272978431e-04	1.996523336e-11
-1.550000000e-02	1.896714299e-01	-2.253694611e-04	8.618264142e-12
-1.560000000e-02	1.896714265e-01	-2.234410794e-04	1.097366683e-11
-1.570000000e-02	1.896714230e-01	-2.215126978e-04	1.962611415e-11
-1.580000000e-02	1.896714195e-01	-2.195843165e-04	1.633516756e-11
-1.590000000e-02	1.896714159e-01	-2.176559354e-04	1.724436785e-11
-1.600000000e-02	1.896714122e-01	-2.157275545e-04	1.292655664e-11
-1.610000000e-02	1.896714085e-01	-2.137991739e-04	1.899570389e-11
-1.620000000e-02	1.896714048e-01	-2.118707935e-04	7.125032608e-12
-1.630000000e-02	1.896714009e-01	-2.099424134e-04	1.347360555e-11
-1.640000000e-02	1.896713970e-01	-2.080140335e-04	9.876455644e-12
-1.650000000e-02	1.896713931e-01	-2.060856539e-04	1.270874981e-11
-1.660000000e-02	1.896713891e-01	-2.041572745e-04	3.918564807e-11
-1.670000000e-02	1.896713850e-01	-2.022288953e-04	5.467550341e-12
-1.680000000e-02	1.896713809e-01	-2.003005165e-04	1.310812458e-11
-1.690000000e-02	1.896713768e-01	-1.983721379e-04	8.663703229e-12
-1.700000000e-02	1.896713725e-01	-1.964437595e-04	2.173158538e-11
-1.710000000e-02	1.896713682e-01	-1.945153814e-04	9.071444753e-12
-1.720000000e-02	1.896713639e-01	-1.925870036e-04	2.292916549e-11
-1.730000000e-02	1.896713595e-01	-1.906586261e-04	1.322838702e-11
-1.740000000e-02	1.896713550e-01	-1.887302488e-04	8.861109268e-12
-1.750000000e-02	1.896713505e-01	-1.868018718e-04	1.650546736e-11
-1.760000000e-02	1.896713459e-01	-1.848734951e-04	1.334505081e-11
-1.770000000e-02	1.896713412e-01	-1.829451187e-04	1.802799849e-11
-1.780000000e-02	1.896713365e-01	-1.810167426e-04	2.634806016e-11
-1.790000000e-02	1.896713318e-01	-1.790883668e-04	1.912500390e-11
-1.800000000e-02	1.896713269e-01	-1.771599912e-04	1.346396797e-11
-1.810000000e-02	1.896713221e-01	-1.752316160e-04	2.668804496e-11
-1.820000000e-02	1.896713171e-01	-1.733032411e-04	1.558125106e-11
-1.830000000e-02	1.896713121e-01	-1.713748664e-04	1.854451192e-11
-1.840000000e-02	1.896713071e-01	-1.694464921e-04	1.096296731e-11
-1.850000000e-02	1.896713019e-01	-1.675181181e-04	4.024994323e-11
-1.860000000e-02	1.896712968e-01	-1.655897444e-04	8.744319948e-12
-1.870000000e-02	1.896712915e-01	-1.636613710e-04	1.159567485e-11
-1.880000000e-02	1.896712862e-01	-1.617329979e-04	1.045354794e-11
-1.890000000e-02	1.896712809e-01	-1.598046252e-04	2.655699457e-11
-1.900000000e-02	1.896712755e-01	-1.578762527e-04	1.822296426e-11
-1.910000000e-02	1.896712700e-01	-1.559478806e-04	6.167881506e-12
-1.920000000e-02	1.896712645e-01	-1.540195089e-04	2.112825732e-11
-1.930000000e-02	1.896712589e-01	-1.520911374e-04	9.305872657e-12
-1.940000000e-02	1.896712533e-01	-1.501627663e-04	5.691748106e-12
-1.950000000e-02	1.896712476e-01	-1.482343955e-04	1.003734133e-11
-1.960000000e-02	1.896712418e-01	-1.463060251e-04	5.185076024e-12
-1.970000000e-02	1.896712360e-01	-1.443776551e-04	1.289011479e-11
-1.980000000e-02	1.896712301e-01	-1.424492853e-04	1.827331223e-11
-1.990000000e-02	1.896712242e-01	-1.405209159e-04	1.690165169e-11
-2.000000000e-02	1.896712182e-01	-1.385925469e-04	1.919670908e-11
-2.010000000e-02	1.896712121e-01	-1.366641783e-04	9.581108761e-12
-2.020000000e-02	1.896712060e-01	-1.347358100e-04	1.642848666e-11
-2.030000000e-02	1.896711998e-01	-1.328074420e-04	9.765265228e-12
-2.040000000e-02	1.896711936e-01	-1.308790744e-04	1.606714757e-11
-2.050000000e-02	1.896711873e-01	-1.289507072e-04	6.829690322e-12
-2.060000000e-02	1.896711809e-01	-1.270223404e-04	1.615994851e-11
-2.070000000e-02	1.896711745e-01	-1.250939739e-04	1.203145793e-11
-2.080000000e-02	1.896711681e-01	-1.231656079e-04	2.313573376e-11
-2.090000000e-02	1.896711615e-01	-1.212372421e-04	9.214752686e-12
-2.100000000e-02	1.896711549e-01	-1.193088768e-04	4.935008999e-12
-2.110000000e-02	1.896711483e-01	-1.173805119e-04	5.908936326e-12
-2.120000000e-02	1.896711416e-01	-1.154521474e-04	6.228169917e-12
-2.130000000e-02	1.896711348e-01	-1.135237832e-04	4.324516217e-11
-2.140000000e-02	1.896711280e-01	-1.115954195e-04	1.886362604e-11
-2.150000000e-02	1.896711211e-01	-1.096670561e-04	1.813311477e-11
-2.160000000e-02	1.896711142e-01	-1.077386932e-04	1.754914803e-11
-2.170000000e-02	1.896711072e-01	-1.058103306e-04	1.738307853e-11
-2.180000000e-02	1.896711001e-01	-1.038819685e-04	6.602058728e-12
-2.190000000e-02	1.896710930e-01	-1.019536067e-04	1.423600094e-11
-2.200000000e-02	1.896710859e-01	-1.000252454e-04	8.295641554e-12
-2.210000000e-02	1.896710786e-01	-9.809688452e-05	4.258672583e-11
-2.220000000e-02	1.896710713e-01	-9.616852404e-05	1.074109039e-11
-2.230000000e-02	1.896710640e-01	-9.424016399e-05	1.219800974e-11
-2.240000000e-02	1.896710566e-01	-9.231180436e-05	1.294852284e-11
-2.250000000e-02	1.896710491e-01	-9.038344516e-05	1.310529841e-11
-2.260000000e-02	1.896710416e-01	-8.845508638e-05	1.676049463e-11
-2.270000000e-02	1.896710340e-01	-8.652672805e-05	1.707195859e-11
-2.280000000e-02	1.896710264e-01	-8.459837015e-05	9.708475425e-12
-2.290000000e-02	1.896710187e-01	-8.267001270e-05	9.978409147e-12
-2.300000000e-02	1.896710109e-01	-8.074165568e-05	1.316333540e-11
-2.310000000e-02	1.896710031e-01	-7.881329911e-05	9.405256228e-12
-2.320000000e-02	1.896709952e-01	-7.688494300e-05	6.774530225e-11
-2.330000000e-02	1.896709873e-01	-7.495658733e-05	1.051164928e-11
-2.340000000e-02	1.896709793e-01	-7.302823212e-05	4.632396023e-12
-2.350000000e-02	1.896709712e-01	-7.109987737e-05	2.376145352e-11
-2.360000000e-02	1.896709631e-01	-6.917152308e-05	7.017243443e-12
-2.370000000e-02	1.896709549e-01	-6.724316925e-05	1.457405681e-11
-2.380000000e-02	1.896709467e-01	-6.531481589e-05	1.422464905e-11
-2.390000000e-02	1.896709384e-01	-6.338646301e-05	1.281714315e-11
-2.400000000e-02	1.896709301e-01	-6.145811059e-05	8.254128284e-12
-2.410000000e-02	1.896709217e-01	-5.952975865e-05	4.368075738e-11
-2.420000000e-02	1.896709132e-01	-5.760140719e-05	7.965189722e-12
-2.430000000e-02	1.896709047e-01	-5.567305622e-05	9.644392693e-12
-2.440000000e-02	1.896708961e-01	-5.374470572e-05	2.703837530e-11
-2.450000000e-02	1.896708874e-01	-5.181635572e-05	1.453695762e-11
-2.460000000e-02	1.896708787e-01	-4.988800621e-05	2.171520626e-11
-2.470000000e-02	1.896708700e-01	-4.795965719e-05	9.831767948e-12
-2.480000000e-02	1.896708612e-01	-4.603130867e-05	7.968977742e-12
-2.490000000e-02	1.896708523e-01	-4.410296065e-05	1.065959748e-11
-2.500000000e-02	1.896708433e-01	-4.217461313e-05	2.189030637e-11
-2.510000000e-02	1.896708344e-01	-4.024626612e-05	1.104735571e-11
-2.520000000e-02	1.896708253e-01	-3.831791962e-05	1.081013477e-11
-2.530000000e-02	1.896708162e-01	-3.638957364e-05	7.321431439e-11
-2.540000000e-02	1.896708070e-01	-3.446122815e-05	9.286932230e-12
-2.550000000e-02	1.896707978e-01	-3.253288319e-05	1.843341517e-11
-2.560000000e-02	1.896707885e-01	-3.060453876e-05	9.311904416e-12
-2.570000000e-02	1.896707792e-01	-2.867619485e-05	7.396720473e-12
-2.580000000e-02	1.896707697e-01	-2.674785146e-05	1.080867495e-11
-2.590000000e-02	1.896707603e-01	-2.481950861e-05	3.014183823e-11
-2.600000000e-02	1.896707508e-01	-2.289116629e-05	2.370136217e-11
-2.610000000e-02	1.896707412e-01	-2.096282450e-05	2.572121986e-11
-2.620000000e-02	1.896707315e-01	-1.903448325e-05	1.832086550e-11
-2.630000000e-02	1.896707218e-01	-1.710614255e-05	1.806886392e-11
-2.640000000e-02	1.896707121e-01	-1.517780239e-05	3.191983648e-11
-2.650000000e-02	1.896707023e-01	-1.324946278e-05	8.814447572e-12
-2.660000000e-02	1.896706924e-01	-1.132112372e-05	1.097794032e-11
-2.670000000e-02	1.896706824e-01	-9.392785207e-06	2.777578914e-11
-2.680000000e-02	1.896706725e-01	-7.464447258e-06	1.559919520e-11
-2.690000000e-02	1.896706624e-01	-5.536109867e-06	1.332547296e-11
-2.700000000e-02	1.896706523e-01	-3.607773036e-06	3.970555416e-11
-2.710000000e-02	1.896706421e-01	-1.679436777e-06	1.317548399e-11
-2.720000000e-02	1.896706319e-01	2.488989145e-07	1.110510589e-11
-2.730000000e-02	1.896706216e-01	2.177234039e-06	4.545518336e-11
-2.740000000e-02	1.896706113e-01	4.105568582e-06	1.844403978e-11
-2.750000000e-02	1.896706009e-01	6.033902553e-06	9.788666423e-12
-2.760000000e-02	1.896705904e-01	7.962235947e-06	5.361391571e-11
-2.770000000e-02	1.896705799e-01	9.890568747e-06	6.610885913e-12
-2.780000000e-02	1.896705693e-01	1.181890097e-05	8.991838503e-12
-2.790000000e-02	1.896705586e-01	1.374723260e-05	3.023298768e-11
-2.800000000e-02	1.896705479e-01	1.567556363e-05	6.366971097e-12
-2.810000000e-02	1.896705372e-01	1.760389407e-05	1.163812195e-11
-2.820000000e-02	1.896705264e-01	1.953222391e-05	9.832336833e-12
-2.830000000e-02	1.896705155e-01	2.146055315e-05	7.765010205e-12
-2.840000000e-02	1.896705046e-01	2.338888179e-05	9.004927369e-12
-2.850000000e-02	1.896704936e-01	2.531720981e-05	1.581341092e-11
-2.860000000e-02	1.896704825e-01	2.724553723e-05	1.563838288e-11
-2.870000000e-02	1.896704714e-01	2.917386404e-05	1.300016891e-11
-2.880000000e-02	1.896704602e-01	3.110219023e-05	1.040352038e-11
-2.890000000e-02	1.896704490e-01	3.303051579e-05	2.311123850e-11
-2.900000000e-02	1.896704377e-01	3.495884074e-05	9.887382758e-12
-2.910000000e-02	1.896704264e-01	3.688716506e-05	1.057307537e-11
-2.920000000e-02	1.896704150e-01	3.881548875e-05	5.740660128e-12
-2.930000000e-02	1.896704035e-01	4.074381181e-05	6.971585561e-12
-2.940000000e-02	1.896703920e-01	4.267213424e-05	1.110961208e-11
-2.950000000e-02	1.896703804e-01	4.460045603e-05	1.166413026e-11
-2.960000000e-02	1.896703688e-01	4.652877717e-05	2.130593389e-11
-2.970000000e-02	1.896703571e-01	4.845709768e-05	1.202018163e-11
-2.980000000e-02	1.896703453e-01	5.038541754e-05	6.861893842e-12
-2.990000000e-02	1.896703335e-01	5.231373675e-05	9.763395523e-12
-3.000000000e-02	1.896703216e-01	5.424205531e-05	6.386858622e-12
