# Im(epsi1)     Re(omega/c)      Im(omega/c)      Eq(det).Opt det CON kz, R=0.5 \mum, mu_c=0.3, Re(epsi1)=3.90solve_det_conkz_vs_kz.py
0.000000000e+00	1.896504848e-01	-5.242264363e-04	7.055767486e-12
-1.000000000e-04	1.896504905e-01	-5.222981575e-04	1.562790432e-11
-2.000000000e-04	1.896504961e-01	-5.203698785e-04	2.299714815e-11
-3.000000000e-04	1.896505017e-01	-5.184415992e-04	7.215701643e-12
-4.000000000e-04	1.896505072e-01	-5.165133197e-04	8.086012746e-12
-5.000000000e-04	1.896505127e-01	-5.145850399e-04	1.546064730e-11
-6.000000000e-04	1.896505181e-01	-5.126567600e-04	1.781235913e-11
-7.000000000e-04	1.896505234e-01	-5.107284798e-04	1.899063575e-11
-8.000000000e-04	1.896505287e-01	-5.088001994e-04	1.206699098e-11
-9.000000000e-04	1.896505339e-01	-5.068719188e-04	2.404294451e-11
-1.000000000e-03	1.896505391e-01	-5.049436380e-04	4.859355445e-11
-1.100000000e-03	1.896505442e-01	-5.030153569e-04	8.898327794e-12
-1.200000000e-03	1.896505493e-01	-5.010870757e-04	1.200462134e-11
-1.300000000e-03	1.896505543e-01	-4.991587942e-04	6.922695082e-12
-1.400000000e-03	1.896505592e-01	-4.972305126e-04	8.940871842e-12
-1.500000000e-03	1.896505641e-01	-4.953022307e-04	1.027161454e-11
-1.600000000e-03	1.896505689e-01	-4.933739487e-04	1.048425138e-11
-1.700000000e-03	1.896505736e-01	-4.914456665e-04	3.637259392e-11
-1.800000000e-03	1.896505783e-01	-4.895173840e-04	1.865738923e-11
-1.900000000e-03	1.896505830e-01	-4.875891014e-04	2.672807661e-11
-2.000000000e-03	1.896505876e-01	-4.856608186e-04	4.545854742e-11
-2.100000000e-03	1.896505921e-01	-4.837325357e-04	1.114099808e-11
-2.200000000e-03	1.896505965e-01	-4.818042525e-04	1.042246759e-11
-2.300000000e-03	1.896506009e-01	-4.798759692e-04	1.142697026e-11
-2.400000000e-03	1.896506053e-01	-4.779476857e-04	2.090938347e-11
-2.500000000e-03	1.896506096e-01	-4.760194020e-04	1.358188372e-11
-2.600000000e-03	1.896506138e-01	-4.740911182e-04	3.085236292e-11
-2.700000000e-03	1.896506180e-01	-4.721628342e-04	1.223459244e-11
-2.800000000e-03	1.896506221e-01	-4.702345501e-04	9.144036798e-12
-2.900000000e-03	1.896506261e-01	-4.683062658e-04	4.379234400e-11
-3.000000000e-03	1.896506301e-01	-4.663779813e-04	1.701600059e-11
-3.100000000e-03	1.896506341e-01	-4.644496967e-04	1.494427116e-11
-3.200000000e-03	1.896506379e-01	-4.625214120e-04	1.838652612e-11
-3.300000000e-03	1.896506417e-01	-4.605931271e-04	1.238036543e-11
-3.400000000e-03	1.896506455e-01	-4.586648420e-04	3.786565191e-11
-3.500000000e-03	1.896506492e-01	-4.567365569e-04	1.356176451e-11
-3.600000000e-03	1.896506528e-01	-4.548082716e-04	9.909488144e-12
-3.700000000e-03	1.896506564e-01	-4.528799861e-04	1.496651698e-11
-3.800000000e-03	1.896506599e-01	-4.509517006e-04	1.690319583e-11
-3.900000000e-03	1.896506634e-01	-4.490234149e-04	1.714314410e-11
-4.000000000e-03	1.896506668e-01	-4.470951290e-04	4.783337231e-11
-4.100000000e-03	1.896506702e-01	-4.451668431e-04	1.367813016e-11
-4.200000000e-03	1.896506734e-01	-4.432385570e-04	1.059676183e-11
-4.300000000e-03	1.896506767e-01	-4.413102709e-04	2.001592899e-10
-4.400000000e-03	1.896506798e-01	-4.393819846e-04	1.106743924e-11
-4.500000000e-03	1.896506830e-01	-4.374536982e-04	1.977669641e-11
-4.600000000e-03	1.896506860e-01	-4.355254117e-04	1.024728555e-11
-4.700000000e-03	1.896506890e-01	-4.335971251e-04	3.255901721e-11
-4.800000000e-03	1.896506919e-01	-4.316688384e-04	1.480808507e-11
-4.900000000e-03	1.896506948e-01	-4.297405516e-04	4.301533560e-11
-5.000000000e-03	1.896506976e-01	-4.278122647e-04	1.409229553e-11
-5.100000000e-03	1.896507004e-01	-4.258839778e-04	1.076049270e-11
-5.200000000e-03	1.896507031e-01	-4.239556907e-04	1.576841316e-11
-5.300000000e-03	1.896507057e-01	-4.220274036e-04	1.867471355e-11
-5.400000000e-03	1.896507083e-01	-4.200991163e-04	1.799765993e-11
-5.500000000e-03	1.896507108e-01	-4.181708290e-04	9.208552274e-12
-5.600000000e-03	1.896507133e-01	-4.162425416e-04	6.965894075e-12
-5.700000000e-03	1.896507157e-01	-4.143142542e-04	2.878622538e-11
-5.800000000e-03	1.896507180e-01	-4.123859667e-04	1.011460406e-11
-5.900000000e-03	1.896507203e-01	-4.104576791e-04	1.712404695e-11
-6.000000000e-03	1.896507226e-01	-4.085293914e-04	1.105132719e-11
-6.100000000e-03	1.896507247e-01	-4.066011037e-04	3.041950254e-11
-6.200000000e-03	1.896507268e-01	-4.046728159e-04	1.974396945e-11
-6.300000000e-03	1.896507289e-01	-4.027445281e-04	1.004544855e-11
-6.400000000e-03	1.896507309e-01	-4.008162402e-04	1.945793527e-11
-6.500000000e-03	1.896507328e-01	-3.988879523e-04	1.391143105e-11
-6.600000000e-03	1.896507347e-01	-3.969596643e-04	1.113842673e-11
-6.700000000e-03	1.896507365e-01	-3.950313763e-04	2.069668451e-11
-6.800000000e-03	1.896507383e-01	-3.931030882e-04	6.805404385e-12
-6.900000000e-03	1.896507400e-01	-3.911748002e-04	2.290607350e-11
-7.000000000e-03	1.896507416e-01	-3.892465120e-04	8.520533858e-12
-7.100000000e-03	1.896507432e-01	-3.873182239e-04	2.743382860e-11
-7.200000000e-03	1.896507447e-01	-3.853899357e-04	2.369799369e-11
-7.300000000e-03	1.896507462e-01	-3.834616475e-04	1.921564175e-11
-7.400000000e-03	1.896507476e-01	-3.815333593e-04	7.179912129e-11
-7.500000000e-03	1.896507490e-01	-3.796050710e-04	9.783551609e-12
-7.600000000e-03	1.896507502e-01	-3.776767827e-04	8.430702236e-12
-7.700000000e-03	1.896507515e-01	-3.757484945e-04	2.366796238e-11
-7.800000000e-03	1.896507526e-01	-3.738202062e-04	8.732618149e-12
-7.900000000e-03	1.896507538e-01	-3.718919179e-04	1.007509772e-11
-8.000000000e-03	1.896507548e-01	-3.699636296e-04	1.064652665e-11
-8.100000000e-03	1.896507558e-01	-3.680353413e-04	1.883178763e-11
-8.200000000e-03	1.896507567e-01	-3.661070530e-04	9.891485367e-12
-8.300000000e-03	1.896507576e-01	-3.641787647e-04	1.146088129e-11
-8.400000000e-03	1.896507584e-01	-3.622504764e-04	1.287078992e-11
-8.500000000e-03	1.896507592e-01	-3.603221882e-04	6.721022385e-12
-8.600000000e-03	1.896507599e-01	-3.583938999e-04	2.817782419e-11
-8.700000000e-03	1.896507605e-01	-3.564656117e-04	1.452029147e-11
-8.800000000e-03	1.896507611e-01	-3.545373234e-04	7.188764388e-12
-8.900000000e-03	1.896507616e-01	-3.526090352e-04	1.993208787e-11
-9.000000000e-03	1.896507621e-01	-3.506807471e-04	1.831959786e-11
-9.100000000e-03	1.896507625e-01	-3.487524589e-04	1.543380551e-11
-9.200000000e-03	1.896507629e-01	-3.468241708e-04	5.552503024e-11
-9.300000000e-03	1.896507632e-01	-3.448958827e-04	1.261374874e-11
-9.400000000e-03	1.896507634e-01	-3.429675947e-04	1.543516183e-11
-9.500000000e-03	1.896507636e-01	-3.410393067e-04	1.825990429e-11
-9.600000000e-03	1.896507637e-01	-3.391110188e-04	1.514349911e-11
-9.700000000e-03	1.896507637e-01	-3.371827309e-04	9.709609890e-12
-9.800000000e-03	1.896507637e-01	-3.352544430e-04	7.491705457e-12
-9.900000000e-03	1.896507637e-01	-3.333261552e-04	1.731986607e-11
-1.000000000e-02	1.896507635e-01	-3.313978674e-04	6.863133705e-12
-1.010000000e-02	1.896507634e-01	-3.294695798e-04	2.965255292e-11
-1.020000000e-02	1.896507631e-01	-3.275412921e-04	1.017584407e-11
-1.030000000e-02	1.896507628e-01	-3.256130046e-04	1.777603563e-11
-1.040000000e-02	1.896507625e-01	-3.236847171e-04	9.640929103e-12
-1.050000000e-02	1.896507621e-01	-3.217564297e-04	5.332454847e-12
-1.060000000e-02	1.896507616e-01	-3.198281423e-04	3.882259940e-11
-1.070000000e-02	1.896507610e-01	-3.178998550e-04	8.962251866e-12
-1.080000000e-02	1.896507605e-01	-3.159715678e-04	9.449832845e-12
-1.090000000e-02	1.896507598e-01	-3.140432807e-04	1.178075432e-11
-1.100000000e-02	1.896507591e-01	-3.121149937e-04	1.325296144e-11
-1.110000000e-02	1.896507583e-01	-3.101867068e-04	1.061426633e-11
-1.120000000e-02	1.896507575e-01	-3.082584199e-04	3.930499838e-11
-1.130000000e-02	1.896507566e-01	-3.063301332e-04	8.755378251e-12
-1.140000000e-02	1.896507557e-01	-3.044018465e-04	6.232559204e-12
-1.150000000e-02	1.896507547e-01	-3.024735600e-04	3.810901705e-11
-1.160000000e-02	1.896507536e-01	-3.005452735e-04	1.722042972e-11
-1.170000000e-02	1.896507525e-01	-2.986169872e-04	2.431964528e-11
-1.180000000e-02	1.896507513e-01	-2.966887010e-04	6.279399598e-12
-1.190000000e-02	1.896507501e-01	-2.947604148e-04	9.401592668e-12
-1.200000000e-02	1.896507488e-01	-2.928321288e-04	7.856725912e-12
-1.210000000e-02	1.896507474e-01	-2.909038430e-04	1.290751628e-11
-1.220000000e-02	1.896507460e-01	-2.889755572e-04	8.024074431e-11
-1.230000000e-02	1.896507445e-01	-2.870472716e-04	5.757500397e-12
-1.240000000e-02	1.896507430e-01	-2.851189860e-04	7.227293809e-12
-1.250000000e-02	1.896507414e-01	-2.831907007e-04	1.658790529e-11
-1.260000000e-02	1.896507398e-01	-2.812624154e-04	2.338691454e-11
-1.270000000e-02	1.896507381e-01	-2.793341303e-04	8.452975227e-12
-1.280000000e-02	1.896507363e-01	-2.774058453e-04	2.037512962e-11
-1.290000000e-02	1.896507345e-01	-2.754775605e-04	2.605388807e-11
-1.300000000e-02	1.896507326e-01	-2.735492758e-04	3.333013293e-11
-1.310000000e-02	1.896507306e-01	-2.716209913e-04	8.450789358e-12
-1.320000000e-02	1.896507286e-01	-2.696927069e-04	2.681649463e-11
-1.330000000e-02	1.896507266e-01	-2.677644227e-04	1.771648111e-11
-1.340000000e-02	1.896507244e-01	-2.658361386e-04	2.765006751e-11
-1.350000000e-02	1.896507223e-01	-2.639078547e-04	8.244050570e-12
-1.360000000e-02	1.896507200e-01	-2.619795709e-04	1.799868330e-11
-1.370000000e-02	1.896507177e-01	-2.600512874e-04	1.068724702e-11
-1.380000000e-02	1.896507154e-01	-2.581230039e-04	3.066168062e-11
-1.390000000e-02	1.896507130e-01	-2.561947207e-04	6.770562297e-12
-1.400000000e-02	1.896507105e-01	-2.542664376e-04	8.706509938e-12
-1.410000000e-02	1.896507080e-01	-2.523381548e-04	1.647326251e-11
-1.420000000e-02	1.896507054e-01	-2.504098720e-04	5.665779189e-12
-1.430000000e-02	1.896507027e-01	-2.484815895e-04	4.138565100e-11
-1.440000000e-02	1.896507000e-01	-2.465533072e-04	9.448697826e-12
-1.450000000e-02	1.896506973e-01	-2.446250250e-04	1.613404865e-11
-1.460000000e-02	1.896506944e-01	-2.426967431e-04	9.191958017e-12
-1.470000000e-02	1.896506915e-01	-2.407684613e-04	1.744680038e-11
-1.480000000e-02	1.896506886e-01	-2.388401798e-04	1.097037202e-11
-1.490000000e-02	1.896506856e-01	-2.369118984e-04	1.310509318e-11
-1.500000000e-02	1.896506825e-01	-2.349836173e-04	1.675698421e-11
-1.510000000e-02	1.896506794e-01	-2.330553363e-04	6.201901125e-12
-1.520000000e-02	1.896506762e-01	-2.311270556e-04	1.126854729e-11
-1.530000000e-02	1.896506730e-01	-2.291987751e-04	1.413772327e-11
-1.540000000e-02	1.896506697e-01	-2.272704948e-04	2.189099594e-11
-1.550000000e-02	1.896506664e-01	-2.253422147e-04	9.313547660e-12
-1.560000000e-02	1.896506630e-01	-2.234139348e-04	1.411541573e-11
-1.570000000e-02	1.896506595e-01	-2.214856552e-04	7.837081351e-12
-1.580000000e-02	1.896506560e-01	-2.195573758e-04	1.535334343e-11
-1.590000000e-02	1.896506524e-01	-2.176290966e-04	7.656817922e-12
-1.600000000e-02	1.896506487e-01	-2.157008177e-04	1.374719961e-11
-1.610000000e-02	1.896506450e-01	-2.137725390e-04	7.156770404e-12
-1.620000000e-02	1.896506412e-01	-2.118442605e-04	1.133092643e-11
-1.630000000e-02	1.896506374e-01	-2.099159823e-04	6.890818426e-12
-1.640000000e-02	1.896506335e-01	-2.079877043e-04	1.919549745e-11
-1.650000000e-02	1.896506296e-01	-2.060594266e-04	1.430758776e-11
-1.660000000e-02	1.896506256e-01	-2.041311492e-04	9.186549514e-12
-1.670000000e-02	1.896506215e-01	-2.022028719e-04	2.492191384e-11
-1.680000000e-02	1.896506174e-01	-2.002745950e-04	1.261781186e-11
-1.690000000e-02	1.896506132e-01	-1.983463183e-04	4.167485636e-11
-1.700000000e-02	1.896506090e-01	-1.964180419e-04	2.084669357e-11
-1.710000000e-02	1.896506047e-01	-1.944897657e-04	2.088859666e-11
-1.720000000e-02	1.896506004e-01	-1.925614898e-04	4.209120205e-11
-1.730000000e-02	1.896505959e-01	-1.906332142e-04	2.090109305e-11
-1.740000000e-02	1.896505915e-01	-1.887049389e-04	3.041772005e-11
-1.750000000e-02	1.896505870e-01	-1.867766638e-04	9.141636263e-12
-1.760000000e-02	1.896505824e-01	-1.848483891e-04	2.107461919e-11
-1.770000000e-02	1.896505777e-01	-1.829201146e-04	1.466946087e-11
-1.780000000e-02	1.896505730e-01	-1.809918404e-04	9.058154965e-12
-1.790000000e-02	1.896505682e-01	-1.790635665e-04	1.842111436e-11
-1.800000000e-02	1.896505634e-01	-1.771352929e-04	1.421443808e-11
-1.810000000e-02	1.896505585e-01	-1.752070195e-04	2.171918177e-11
-1.820000000e-02	1.896505536e-01	-1.732787465e-04	2.097089421e-11
-1.830000000e-02	1.896505486e-01	-1.713504738e-04	1.264620840e-11
-1.840000000e-02	1.896505435e-01	-1.694222014e-04	8.854500181e-12
-1.850000000e-02	1.896505384e-01	-1.674939293e-04	8.803951062e-12
-1.860000000e-02	1.896505333e-01	-1.655656575e-04	1.902306178e-11
-1.870000000e-02	1.896505280e-01	-1.636373860e-04	9.482870086e-12
-1.880000000e-02	1.896505227e-01	-1.617091149e-04	1.261353712e-11
-1.890000000e-02	1.896505174e-01	-1.597808441e-04	5.408126622e-11
-1.900000000e-02	1.896505120e-01	-1.578525736e-04	2.640879793e-11
-1.910000000e-02	1.896505065e-01	-1.559243034e-04	1.254792034e-11
-1.920000000e-02	1.896505010e-01	-1.539960335e-04	1.818958887e-11
-1.930000000e-02	1.896504954e-01	-1.520677640e-04	7.150047208e-12
-1.940000000e-02	1.896504897e-01	-1.501394948e-04	3.050944618e-11
-1.950000000e-02	1.896504840e-01	-1.482112260e-04	9.896107718e-12
-1.960000000e-02	1.896504783e-01	-1.462829575e-04	1.031300810e-11
-1.970000000e-02	1.896504724e-01	-1.443546893e-04	4.370547448e-10
-1.980000000e-02	1.896504666e-01	-1.424264215e-04	1.947232726e-11
-1.990000000e-02	1.896504606e-01	-1.404981541e-04	1.786486528e-11
-2.000000000e-02	1.896504546e-01	-1.385698870e-04	1.827745291e-11
-2.010000000e-02	1.896504486e-01	-1.366416202e-04	3.286024760e-11
-2.020000000e-02	1.896504425e-01	-1.347133539e-04	3.861714570e-12
-2.030000000e-02	1.896504363e-01	-1.327850878e-04	9.860157782e-12
-2.040000000e-02	1.896504300e-01	-1.308568222e-04	7.990749351e-12
-2.050000000e-02	1.896504238e-01	-1.289285569e-04	1.919695992e-11
-2.060000000e-02	1.896504174e-01	-1.270002920e-04	2.242717305e-11
-2.070000000e-02	1.896504110e-01	-1.250720275e-04	2.262497347e-11
-2.080000000e-02	1.896504045e-01	-1.231437633e-04	1.611481376e-11
-2.090000000e-02	1.896503980e-01	-1.212154995e-04	8.520185056e-12
-2.100000000e-02	1.896503914e-01	-1.192872361e-04	5.151440123e-12
-2.110000000e-02	1.896503848e-01	-1.173589731e-04	1.188908596e-11
-2.120000000e-02	1.896503781e-01	-1.154307105e-04	2.437823596e-11
-2.130000000e-02	1.896503713e-01	-1.135024483e-04	2.590028511e-11
-2.140000000e-02	1.896503645e-01	-1.115741864e-04	1.109334905e-11
-2.150000000e-02	1.896503576e-01	-1.096459250e-04	1.756034356e-11
-2.160000000e-02	1.896503507e-01	-1.077176640e-04	1.823274503e-11
-2.170000000e-02	1.896503437e-01	-1.057894034e-04	8.771526074e-12
-2.180000000e-02	1.896503366e-01	-1.038611431e-04	1.650635245e-11
-2.190000000e-02	1.896503295e-01	-1.019328833e-04	8.215894301e-12
-2.200000000e-02	1.896503223e-01	-1.000046240e-04	1.744128725e-11
-2.210000000e-02	1.896503151e-01	-9.807636498e-05	1.532819566e-11
-2.220000000e-02	1.896503078e-01	-9.614810642e-05	9.817170176e-12
-2.230000000e-02	1.896503005e-01	-9.421984829e-05	1.907925602e-11
-2.240000000e-02	1.896502930e-01	-9.229159059e-05	1.431723660e-11
-2.250000000e-02	1.896502856e-01	-9.036333331e-05	8.557321373e-12
-2.260000000e-02	1.896502781e-01	-8.843507646e-05	8.114379818e-12
-2.270000000e-02	1.896502705e-01	-8.650682005e-05	1.255013522e-11
-2.280000000e-02	1.896502628e-01	-8.457856407e-05	1.425170371e-11
-2.290000000e-02	1.896502551e-01	-8.265030854e-05	4.627277902e-12
-2.300000000e-02	1.896502474e-01	-8.072205346e-05	5.509099526e-11
-2.310000000e-02	1.896502395e-01	-7.879379881e-05	2.668976359e-11
-2.320000000e-02	1.896502317e-01	-7.686554461e-05	1.205537568e-11
-2.330000000e-02	1.896502237e-01	-7.493729087e-05	3.831296829e-11
-2.340000000e-02	1.896502157e-01	-7.300903759e-05	1.312281943e-11
-2.350000000e-02	1.896502077e-01	-7.108078476e-05	7.700551800e-12
-2.360000000e-02	1.896501996e-01	-6.915253240e-05	5.390302935e-11
-2.370000000e-02	1.896501914e-01	-6.722428050e-05	1.237615768e-11
-2.380000000e-02	1.896501832e-01	-6.529602906e-05	1.057279060e-11
-2.390000000e-02	1.896501749e-01	-6.336777810e-05	1.249368970e-11
-2.400000000e-02	1.896501665e-01	-6.143952761e-05	1.009880939e-11
-2.410000000e-02	1.896501581e-01	-5.951127759e-05	1.055240586e-11
-2.420000000e-02	1.896501496e-01	-5.758302806e-05	1.427770893e-11
-2.430000000e-02	1.896501411e-01	-5.565477901e-05	1.176341583e-11
-2.440000000e-02	1.896501325e-01	-5.372653044e-05	6.577144601e-12
-2.450000000e-02	1.896501239e-01	-5.179828236e-05	9.720453733e-12
-2.460000000e-02	1.896501152e-01	-4.987003477e-05	4.403518959e-11
-2.470000000e-02	1.896501064e-01	-4.794178769e-05	1.537744517e-11
-2.480000000e-02	1.896500976e-01	-4.601354109e-05	9.738374149e-12
-2.490000000e-02	1.896500887e-01	-4.408529499e-05	1.132079606e-11
-2.500000000e-02	1.896500798e-01	-4.215704940e-05	3.044810389e-11
-2.510000000e-02	1.896500708e-01	-4.022880431e-05	1.426310449e-11
-2.520000000e-02	1.896500618e-01	-3.830055974e-05	2.619127550e-11
-2.530000000e-02	1.896500526e-01	-3.637231567e-05	1.767252115e-11
-2.540000000e-02	1.896500435e-01	-3.444407212e-05	1.055886606e-11
-2.550000000e-02	1.896500342e-01	-3.251582909e-05	1.452329765e-11
-2.560000000e-02	1.896500249e-01	-3.058758658e-05	1.093805182e-11
-2.570000000e-02	1.896500156e-01	-2.865934460e-05	1.114615460e-11
-2.580000000e-02	1.896500062e-01	-2.673110314e-05	1.815788921e-11
-2.590000000e-02	1.896499967e-01	-2.480286221e-05	8.465959588e-12
-2.600000000e-02	1.896499872e-01	-2.287462181e-05	1.524067783e-11
-2.610000000e-02	1.896499776e-01	-2.094638195e-05	1.216483663e-11
-2.620000000e-02	1.896499680e-01	-1.901814263e-05	7.543217300e-12
-2.630000000e-02	1.896499583e-01	-1.708990385e-05	1.073220156e-11
-2.640000000e-02	1.896499485e-01	-1.516166561e-05	1.049850911e-11
-2.650000000e-02	1.896499387e-01	-1.323342793e-05	2.860049373e-11
-2.660000000e-02	1.896499288e-01	-1.130519080e-05	1.463872629e-11
-2.670000000e-02	1.896499189e-01	-9.376954210e-06	1.115258096e-11
-2.680000000e-02	1.896499089e-01	-7.448718190e-06	1.158807449e-11
-2.690000000e-02	1.896498988e-01	-5.520482723e-06	1.193967941e-11
-2.700000000e-02	1.896498887e-01	-3.592247821e-06	1.538623634e-11
-2.710000000e-02	1.896498786e-01	-1.664013483e-06	1.733181537e-11
-2.720000000e-02	1.896498683e-01	2.642202808e-07	3.190546883e-11
-2.730000000e-02	1.896498580e-01	2.192453478e-06	1.690322222e-11
-2.740000000e-02	1.896498477e-01	4.120686100e-06	1.607028465e-11
-2.750000000e-02	1.896498373e-01	6.048918141e-06	8.348524780e-12
-2.760000000e-02	1.896498268e-01	7.977149603e-06	1.000029956e-11
-2.770000000e-02	1.896498163e-01	9.905380485e-06	1.814202482e-11
-2.780000000e-02	1.896498057e-01	1.183361077e-05	1.446747500e-11
-2.790000000e-02	1.896497951e-01	1.376184047e-05	1.169120832e-11
-2.800000000e-02	1.896497844e-01	1.569006959e-05	2.877432853e-11
-2.810000000e-02	1.896497736e-01	1.761829810e-05	9.852728885e-12
-2.820000000e-02	1.896497628e-01	1.954652601e-05	1.374058483e-11
-2.830000000e-02	1.896497519e-01	2.147475332e-05	2.169790668e-11
-2.840000000e-02	1.896497410e-01	2.340298003e-05	4.018487649e-11
-2.850000000e-02	1.896497300e-01	2.533120614e-05	5.923045802e-12
-2.860000000e-02	1.896497190e-01	2.725943163e-05	6.922538912e-12
-2.870000000e-02	1.896497078e-01	2.918765650e-05	4.973281828e-11
-2.880000000e-02	1.896496967e-01	3.111588076e-05	1.071429915e-11
-2.890000000e-02	1.896496854e-01	3.304410441e-05	8.305268410e-12
-2.900000000e-02	1.896496742e-01	3.497232743e-05	1.710087136e-11
-2.910000000e-02	1.896496628e-01	3.690054982e-05	1.529901264e-11
-2.920000000e-02	1.896496514e-01	3.882877158e-05	1.680200900e-11
-2.930000000e-02	1.896496399e-01	4.075699272e-05	7.523201787e-12
-2.940000000e-02	1.896496284e-01	4.268521321e-05	8.454969150e-12
-2.950000000e-02	1.896496168e-01	4.461343308e-05	1.275618628e-11
-2.960000000e-02	1.896496052e-01	4.654165230e-05	8.589829256e-12
-2.970000000e-02	1.896495935e-01	4.846987088e-05	7.113779971e-12
-2.980000000e-02	1.896495818e-01	5.039808881e-05	1.642901258e-11
-2.990000000e-02	1.896495699e-01	5.232630609e-05	9.117276225e-12
-3.000000000e-02	1.896495581e-01	5.425452272e-05	1.086052528e-11
