# Im(epsi1)     Re(omega/c)      Im(omega/c)      Eq(det).Opt det CON kz, R=0.5 \mum, mu_c=0.3, Re(epsi1)=3.90solve_det_conkz_vs_kz.py
0.000000000e+00	1.896425804e-01	-5.242046771e-04	1.741257014e-11
-1.000000000e-04	1.896425861e-01	-5.222764369e-04	2.699604645e-11
-2.000000000e-04	1.896425917e-01	-5.203481965e-04	1.267176318e-11
-3.000000000e-04	1.896425973e-01	-5.184199559e-04	1.228288693e-11
-4.000000000e-04	1.896426028e-01	-5.164917150e-04	2.739617080e-11
-5.000000000e-04	1.896426083e-01	-5.145634739e-04	1.139754452e-11
-6.000000000e-04	1.896426137e-01	-5.126352326e-04	1.794517156e-11
-7.000000000e-04	1.896426190e-01	-5.107069911e-04	1.882198776e-11
-8.000000000e-04	1.896426243e-01	-5.087787493e-04	1.521589383e-11
-9.000000000e-04	1.896426296e-01	-5.068505074e-04	6.301699869e-12
-1.000000000e-03	1.896426347e-01	-5.049222652e-04	2.393084761e-11
-1.100000000e-03	1.896426398e-01	-5.029940228e-04	1.233209716e-11
-1.200000000e-03	1.896426449e-01	-5.010657802e-04	1.167056819e-11
-1.300000000e-03	1.896426499e-01	-4.991375374e-04	1.867849178e-11
-1.400000000e-03	1.896426548e-01	-4.972092944e-04	7.642474773e-12
-1.500000000e-03	1.896426597e-01	-4.952810512e-04	3.290178378e-11
-1.600000000e-03	1.896426645e-01	-4.933528078e-04	2.437333040e-11
-1.700000000e-03	1.896426692e-01	-4.914245642e-04	1.011679810e-11
-1.800000000e-03	1.896426739e-01	-4.894963205e-04	1.475569383e-11
-1.900000000e-03	1.896426786e-01	-4.875680765e-04	1.321752364e-11
-2.000000000e-03	1.896426832e-01	-4.856398324e-04	1.271019004e-11
-2.100000000e-03	1.896426877e-01	-4.837115880e-04	1.774925214e-11
-2.200000000e-03	1.896426921e-01	-4.817833435e-04	8.887735005e-12
-2.300000000e-03	1.896426965e-01	-4.798550989e-04	1.067654281e-11
-2.400000000e-03	1.896427009e-01	-4.779268540e-04	1.211393015e-11
-2.500000000e-03	1.896427052e-01	-4.759986090e-04	1.401995611e-11
-2.600000000e-03	1.896427094e-01	-4.740703638e-04	1.599751638e-11
-2.700000000e-03	1.896427136e-01	-4.721421185e-04	5.009993553e-12
-2.800000000e-03	1.896427177e-01	-4.702138730e-04	9.594175585e-12
-2.900000000e-03	1.896427217e-01	-4.682856273e-04	1.004703854e-11
-3.000000000e-03	1.896427257e-01	-4.663573815e-04	1.490454667e-11
-3.100000000e-03	1.896427297e-01	-4.644291356e-04	1.470284302e-11
-3.200000000e-03	1.896427335e-01	-4.625008895e-04	1.626907714e-11
-3.300000000e-03	1.896427373e-01	-4.605726432e-04	7.721240868e-12
-3.400000000e-03	1.896427411e-01	-4.586443969e-04	2.243125970e-11
-3.500000000e-03	1.896427448e-01	-4.567161503e-04	7.384621568e-12
-3.600000000e-03	1.896427484e-01	-4.547879037e-04	1.357039838e-11
-3.700000000e-03	1.896427520e-01	-4.528596569e-04	8.447108204e-12
-3.800000000e-03	1.896427555e-01	-4.509314100e-04	1.171444438e-11
-3.900000000e-03	1.896427590e-01	-4.490031629e-04	4.878145640e-12
-4.000000000e-03	1.896427624e-01	-4.470749157e-04	4.978052510e-11
-4.100000000e-03	1.896427658e-01	-4.451466684e-04	5.336661794e-11
-4.200000000e-03	1.896427690e-01	-4.432184210e-04	1.132321360e-11
-4.300000000e-03	1.896427723e-01	-4.412901735e-04	1.471410551e-11
-4.400000000e-03	1.896427754e-01	-4.393619259e-04	1.248306438e-11
-4.500000000e-03	1.896427786e-01	-4.374336781e-04	1.533903240e-11
-4.600000000e-03	1.896427816e-01	-4.355054303e-04	1.458804574e-11
-4.700000000e-03	1.896427846e-01	-4.335771824e-04	1.189898193e-11
-4.800000000e-03	1.896427875e-01	-4.316489343e-04	2.560974534e-11
-4.900000000e-03	1.896427904e-01	-4.297206862e-04	6.010146847e-12
-5.000000000e-03	1.896427932e-01	-4.277924379e-04	2.532206948e-11
-5.100000000e-03	1.896427960e-01	-4.258641896e-04	1.108129768e-11
-5.200000000e-03	1.896427987e-01	-4.239359412e-04	2.490849968e-11
-5.300000000e-03	1.896428013e-01	-4.220076927e-04	3.268700105e-11
-5.400000000e-03	1.896428039e-01	-4.200794441e-04	7.852824066e-12
-5.500000000e-03	1.896428064e-01	-4.181511955e-04	2.438682936e-11
-5.600000000e-03	1.896428089e-01	-4.162229467e-04	2.490919860e-11
-5.700000000e-03	1.896428113e-01	-4.142946979e-04	1.212336986e-11
-5.800000000e-03	1.896428136e-01	-4.123664490e-04	1.066141539e-11
-5.900000000e-03	1.896428159e-01	-4.104382001e-04	1.059541824e-11
-6.000000000e-03	1.896428182e-01	-4.085099511e-04	3.435524496e-11
-6.100000000e-03	1.896428203e-01	-4.065817020e-04	1.724856049e-11
-6.200000000e-03	1.896428224e-01	-4.046534529e-04	9.837633498e-12
-6.300000000e-03	1.896428245e-01	-4.027252037e-04	6.586966102e-12
-6.400000000e-03	1.896428265e-01	-4.007969545e-04	1.966005790e-11
-6.500000000e-03	1.896428284e-01	-3.988687052e-04	1.039259519e-11
-6.600000000e-03	1.896428303e-01	-3.969404559e-04	1.697393809e-11
-6.700000000e-03	1.896428321e-01	-3.950122065e-04	1.505114652e-11
-6.800000000e-03	1.896428339e-01	-3.930839571e-04	7.470675525e-12
-6.900000000e-03	1.896428356e-01	-3.911557077e-04	3.812668164e-11
-7.000000000e-03	1.896428372e-01	-3.892274582e-04	1.710859233e-11
-7.100000000e-03	1.896428388e-01	-3.872992087e-04	1.126759385e-11
-7.200000000e-03	1.896428403e-01	-3.853709592e-04	2.900718383e-11
-7.300000000e-03	1.896428418e-01	-3.834427096e-04	9.364566378e-12
-7.400000000e-03	1.896428432e-01	-3.815144600e-04	6.848359600e-12
-7.500000000e-03	1.896428445e-01	-3.795862104e-04	1.264706657e-11
-7.600000000e-03	1.896428458e-01	-3.776579608e-04	1.816073597e-11
-7.700000000e-03	1.896428471e-01	-3.757297112e-04	8.842576056e-12
-7.800000000e-03	1.896428482e-01	-3.738014616e-04	1.147020880e-11
-7.900000000e-03	1.896428493e-01	-3.718732119e-04	8.734071479e-12
-8.000000000e-03	1.896428504e-01	-3.699449623e-04	1.092009360e-11
-8.100000000e-03	1.896428514e-01	-3.680167126e-04	1.456776567e-11
-8.200000000e-03	1.896428523e-01	-3.660884630e-04	7.080210262e-12
-8.300000000e-03	1.896428532e-01	-3.641602133e-04	9.057754687e-12
-8.400000000e-03	1.896428540e-01	-3.622319637e-04	1.460383208e-11
-8.500000000e-03	1.896428548e-01	-3.603037141e-04	1.097669801e-11
-8.600000000e-03	1.896428555e-01	-3.583754645e-04	1.111800063e-11
-8.700000000e-03	1.896428561e-01	-3.564472149e-04	4.648455655e-11
-8.800000000e-03	1.896428567e-01	-3.545189653e-04	8.611994489e-12
-8.900000000e-03	1.896428572e-01	-3.525907158e-04	4.426684943e-11
-9.000000000e-03	1.896428577e-01	-3.506624662e-04	6.752524513e-11
-9.100000000e-03	1.896428581e-01	-3.487342167e-04	1.479254436e-11
-9.200000000e-03	1.896428585e-01	-3.468059673e-04	1.287203375e-11
-9.300000000e-03	1.896428587e-01	-3.448777179e-04	2.260714455e-11
-9.400000000e-03	1.896428590e-01	-3.429494685e-04	1.209603995e-11
-9.500000000e-03	1.896428591e-01	-3.410212191e-04	9.702441973e-12
-9.600000000e-03	1.896428593e-01	-3.390929698e-04	2.193212509e-11
-9.700000000e-03	1.896428593e-01	-3.371647206e-04	1.680439931e-11
-9.800000000e-03	1.896428593e-01	-3.352364714e-04	5.984319311e-12
-9.900000000e-03	1.896428592e-01	-3.333082222e-04	1.758320690e-11
-1.000000000e-02	1.896428591e-01	-3.313799731e-04	2.297687144e-11
-1.010000000e-02	1.896428589e-01	-3.294517241e-04	3.222356367e-11
-1.020000000e-02	1.896428587e-01	-3.275234751e-04	9.772186713e-12
-1.030000000e-02	1.896428584e-01	-3.255952262e-04	2.336281513e-11
-1.040000000e-02	1.896428581e-01	-3.236669774e-04	1.044012180e-11
-1.050000000e-02	1.896428576e-01	-3.217387286e-04	9.834922402e-12
-1.060000000e-02	1.896428572e-01	-3.198104799e-04	8.985249154e-12
-1.070000000e-02	1.896428566e-01	-3.178822313e-04	1.102611928e-11
-1.080000000e-02	1.896428560e-01	-3.159539827e-04	1.335665129e-11
-1.090000000e-02	1.896428554e-01	-3.140257343e-04	9.101649495e-12
-1.100000000e-02	1.896428547e-01	-3.120974859e-04	1.091104056e-11
-1.110000000e-02	1.896428539e-01	-3.101692376e-04	1.738612611e-11
-1.120000000e-02	1.896428531e-01	-3.082409894e-04	1.277105334e-11
-1.130000000e-02	1.896428522e-01	-3.063127413e-04	1.036507390e-11
-1.140000000e-02	1.896428512e-01	-3.043844933e-04	1.227843753e-11
-1.150000000e-02	1.896428502e-01	-3.024562454e-04	1.706543407e-11
-1.160000000e-02	1.896428492e-01	-3.005279976e-04	6.642919055e-12
-1.170000000e-02	1.896428481e-01	-2.985997499e-04	2.143309979e-11
-1.180000000e-02	1.896428469e-01	-2.966715023e-04	1.674955110e-11
-1.190000000e-02	1.896428456e-01	-2.947432549e-04	2.101745777e-11
-1.200000000e-02	1.896428443e-01	-2.928150075e-04	4.755767044e-11
-1.210000000e-02	1.896428430e-01	-2.908867603e-04	1.573964174e-11
-1.220000000e-02	1.896428416e-01	-2.889585132e-04	3.154554380e-11
-1.230000000e-02	1.896428401e-01	-2.870302662e-04	1.630162243e-11
-1.240000000e-02	1.896428386e-01	-2.851020193e-04	1.973048152e-11
-1.250000000e-02	1.896428370e-01	-2.831737726e-04	2.068630296e-11
-1.260000000e-02	1.896428353e-01	-2.812455260e-04	4.654776917e-11
-1.270000000e-02	1.896428336e-01	-2.793172795e-04	2.050237424e-11
-1.280000000e-02	1.896428319e-01	-2.773890332e-04	1.205582803e-11
-1.290000000e-02	1.896428300e-01	-2.754607870e-04	1.267334039e-11
-1.300000000e-02	1.896428281e-01	-2.735325410e-04	9.444507509e-12
-1.310000000e-02	1.896428262e-01	-2.716042951e-04	1.829591276e-11
-1.320000000e-02	1.896428242e-01	-2.696760494e-04	1.060908960e-11
-1.330000000e-02	1.896428221e-01	-2.677478038e-04	1.237923277e-11
-1.340000000e-02	1.896428200e-01	-2.658195584e-04	6.940675252e-12
-1.350000000e-02	1.896428178e-01	-2.638913132e-04	1.674723127e-10
-1.360000000e-02	1.896428156e-01	-2.619630680e-04	1.034703897e-11
-1.370000000e-02	1.896428133e-01	-2.600348231e-04	2.638199781e-11
-1.380000000e-02	1.896428110e-01	-2.581065783e-04	6.420942906e-12
-1.390000000e-02	1.896428085e-01	-2.561783337e-04	1.250449162e-11
-1.400000000e-02	1.896428061e-01	-2.542500893e-04	2.549325048e-11
-1.410000000e-02	1.896428035e-01	-2.523218451e-04	7.483820487e-12
-1.420000000e-02	1.896428009e-01	-2.503936010e-04	2.037425901e-11
-1.430000000e-02	1.896427983e-01	-2.484653572e-04	1.376710866e-11
-1.440000000e-02	1.896427956e-01	-2.465371135e-04	7.451742624e-12
-1.450000000e-02	1.896427928e-01	-2.446088700e-04	1.515423186e-11
-1.460000000e-02	1.896427900e-01	-2.426806267e-04	1.175666047e-11
-1.470000000e-02	1.896427871e-01	-2.407523836e-04	4.746195866e-12
-1.480000000e-02	1.896427842e-01	-2.388241407e-04	2.093986055e-11
-1.490000000e-02	1.896427812e-01	-2.368958979e-04	1.045566270e-11
-1.500000000e-02	1.896427781e-01	-2.349676555e-04	4.645000706e-12
-1.510000000e-02	1.896427750e-01	-2.330394132e-04	1.779886321e-11
-1.520000000e-02	1.896427718e-01	-2.311111711e-04	1.906225918e-11
-1.530000000e-02	1.896427686e-01	-2.291829292e-04	1.146695301e-10
-1.540000000e-02	1.896427653e-01	-2.272546876e-04	9.422770326e-12
-1.550000000e-02	1.896427619e-01	-2.253264461e-04	3.597201196e-11
-1.560000000e-02	1.896427585e-01	-2.233982049e-04	1.512143206e-11
-1.570000000e-02	1.896427550e-01	-2.214699640e-04	5.787007609e-11
-1.580000000e-02	1.896427515e-01	-2.195417232e-04	2.327585320e-11
-1.590000000e-02	1.896427479e-01	-2.176134827e-04	1.640855675e-11
-1.600000000e-02	1.896427443e-01	-2.156852424e-04	1.331764773e-11
-1.610000000e-02	1.896427406e-01	-2.137570023e-04	1.368093961e-11
-1.620000000e-02	1.896427368e-01	-2.118287625e-04	1.097004786e-11
-1.630000000e-02	1.896427330e-01	-2.099005230e-04	1.677652709e-11
-1.640000000e-02	1.896427291e-01	-2.079722836e-04	1.188570344e-11
-1.650000000e-02	1.896427252e-01	-2.060440446e-04	1.083079404e-11
-1.660000000e-02	1.896427212e-01	-2.041158058e-04	1.317378500e-11
-1.670000000e-02	1.896427171e-01	-2.021875672e-04	7.937955353e-12
-1.680000000e-02	1.896427130e-01	-2.002593289e-04	1.410565450e-11
-1.690000000e-02	1.896427088e-01	-1.983310909e-04	1.446052049e-11
-1.700000000e-02	1.896427046e-01	-1.964028531e-04	1.960923933e-11
-1.710000000e-02	1.896427003e-01	-1.944746156e-04	3.922299686e-11
-1.720000000e-02	1.896426959e-01	-1.925463784e-04	1.402274299e-11
-1.730000000e-02	1.896426915e-01	-1.906181414e-04	1.068578980e-11
-1.740000000e-02	1.896426870e-01	-1.886899047e-04	1.164870727e-11
-1.750000000e-02	1.896426825e-01	-1.867616683e-04	1.371125346e-11
-1.760000000e-02	1.896426779e-01	-1.848334322e-04	1.158718111e-11
-1.770000000e-02	1.896426733e-01	-1.829051963e-04	9.164469348e-12
-1.780000000e-02	1.896426686e-01	-1.809769608e-04	1.685654646e-11
-1.790000000e-02	1.896426638e-01	-1.790487255e-04	2.522009672e-11
-1.800000000e-02	1.896426590e-01	-1.771204906e-04	1.383689857e-11
-1.810000000e-02	1.896426541e-01	-1.751922559e-04	7.920211542e-12
-1.820000000e-02	1.896426492e-01	-1.732640215e-04	1.093289856e-11
-1.830000000e-02	1.896426442e-01	-1.713357875e-04	5.204282373e-11
-1.840000000e-02	1.896426391e-01	-1.694075537e-04	9.807422510e-12
-1.850000000e-02	1.896426340e-01	-1.674793203e-04	1.167125232e-11
-1.860000000e-02	1.896426288e-01	-1.655510871e-04	8.524134036e-12
-1.870000000e-02	1.896426236e-01	-1.636228543e-04	1.528608509e-11
-1.880000000e-02	1.896426183e-01	-1.616946218e-04	1.200907719e-11
-1.890000000e-02	1.896426129e-01	-1.597663896e-04	1.990523321e-11
-1.900000000e-02	1.896426075e-01	-1.578381578e-04	3.117683813e-11
-1.910000000e-02	1.896426020e-01	-1.559099263e-04	1.413810293e-11
-1.920000000e-02	1.896425965e-01	-1.539816951e-04	1.497482497e-11
-1.930000000e-02	1.896425909e-01	-1.520534642e-04	1.116813990e-11
-1.940000000e-02	1.896425853e-01	-1.501252337e-04	4.296145853e-11
-1.950000000e-02	1.896425796e-01	-1.481970035e-04	1.707332776e-11
-1.960000000e-02	1.896425738e-01	-1.462687736e-04	8.898610940e-12
-1.970000000e-02	1.896425680e-01	-1.443405441e-04	1.258161578e-11
-1.980000000e-02	1.896425621e-01	-1.424123150e-04	6.174200335e-12
-1.990000000e-02	1.896425562e-01	-1.404840862e-04	9.282693693e-12
-2.000000000e-02	1.896425502e-01	-1.385558577e-04	9.451785051e-12
-2.010000000e-02	1.896425441e-01	-1.366276296e-04	1.804942405e-11
-2.020000000e-02	1.896425380e-01	-1.346994019e-04	1.033389913e-11
-2.030000000e-02	1.896425318e-01	-1.327711745e-04	1.199499140e-11
-2.040000000e-02	1.896425256e-01	-1.308429475e-04	1.540811244e-11
-2.050000000e-02	1.896425193e-01	-1.289147209e-04	1.039996443e-11
-2.060000000e-02	1.896425130e-01	-1.269864947e-04	1.117363413e-11
-2.070000000e-02	1.896425065e-01	-1.250582688e-04	1.070468799e-11
-2.080000000e-02	1.896425001e-01	-1.231300433e-04	1.240502307e-11
-2.090000000e-02	1.896424935e-01	-1.212018181e-04	1.024014663e-11
-2.100000000e-02	1.896424870e-01	-1.192735934e-04	2.635340551e-11
-2.110000000e-02	1.896424803e-01	-1.173453690e-04	1.293224749e-11
-2.120000000e-02	1.896424736e-01	-1.154171451e-04	2.007539843e-11
-2.130000000e-02	1.896424668e-01	-1.134889215e-04	4.094762218e-11
-2.140000000e-02	1.896424600e-01	-1.115606983e-04	2.074916279e-11
-2.150000000e-02	1.896424531e-01	-1.096324755e-04	1.074026905e-11
-2.160000000e-02	1.896424462e-01	-1.077042532e-04	1.141897917e-11
-2.170000000e-02	1.896424392e-01	-1.057760312e-04	1.673448811e-11
-2.180000000e-02	1.896424322e-01	-1.038478096e-04	1.748467017e-11
-2.190000000e-02	1.896424250e-01	-1.019195885e-04	1.259109342e-11
-2.200000000e-02	1.896424179e-01	-9.999136774e-05	7.994412524e-12
-2.210000000e-02	1.896424106e-01	-9.806314742e-05	8.790729516e-12
-2.220000000e-02	1.896424033e-01	-9.613492752e-05	1.662439578e-11
-2.230000000e-02	1.896423960e-01	-9.420670804e-05	1.402899245e-11
-2.240000000e-02	1.896423886e-01	-9.227848898e-05	1.611015862e-11
-2.250000000e-02	1.896423811e-01	-9.035027036e-05	1.446378265e-11
-2.260000000e-02	1.896423736e-01	-8.842205216e-05	1.512472401e-11
-2.270000000e-02	1.896423660e-01	-8.649383441e-05	2.827040319e-11
-2.280000000e-02	1.896423584e-01	-8.456561708e-05	9.289835064e-12
-2.290000000e-02	1.896423507e-01	-8.263740020e-05	6.881371274e-12
-2.300000000e-02	1.896423429e-01	-8.070918376e-05	1.660705786e-11
-2.310000000e-02	1.896423351e-01	-7.878096778e-05	1.282854775e-11
-2.320000000e-02	1.896423272e-01	-7.685275223e-05	4.512272413e-11
-2.330000000e-02	1.896423193e-01	-7.492453715e-05	1.115667402e-11
-2.340000000e-02	1.896423113e-01	-7.299632251e-05	1.977952041e-11
-2.350000000e-02	1.896423032e-01	-7.106810834e-05	1.632695588e-11
-2.360000000e-02	1.896422951e-01	-6.913989464e-05	6.009962301e-11
-2.370000000e-02	1.896422869e-01	-6.721168138e-05	5.204562493e-12
-2.380000000e-02	1.896422787e-01	-6.528346860e-05	5.176903015e-12
-2.390000000e-02	1.896422704e-01	-6.335525629e-05	1.259938037e-11
-2.400000000e-02	1.896422621e-01	-6.142704445e-05	1.005451430e-11
-2.410000000e-02	1.896422536e-01	-5.949883309e-05	1.168989293e-11
-2.420000000e-02	1.896422452e-01	-5.757062221e-05	2.187679633e-11
-2.430000000e-02	1.896422367e-01	-5.564241180e-05	1.886298890e-11
-2.440000000e-02	1.896422281e-01	-5.371420189e-05	3.643185066e-11
-2.450000000e-02	1.896422194e-01	-5.178599246e-05	1.320014433e-11
-2.460000000e-02	1.896422107e-01	-4.985778353e-05	1.559242510e-11
-2.470000000e-02	1.896422020e-01	-4.792957509e-05	1.520273302e-11
-2.480000000e-02	1.896421931e-01	-4.600136715e-05	5.049644029e-12
-2.490000000e-02	1.896421843e-01	-4.407315971e-05	1.271462442e-11
-2.500000000e-02	1.896421753e-01	-4.214495277e-05	1.021145823e-11
-2.510000000e-02	1.896421663e-01	-4.021674633e-05	1.074214335e-11
-2.520000000e-02	1.896421573e-01	-3.828854041e-05	1.593777635e-11
-2.530000000e-02	1.896421482e-01	-3.636033501e-05	8.217942864e-11
-2.540000000e-02	1.896421390e-01	-3.443213010e-05	3.043912266e-11
-2.550000000e-02	1.896421298e-01	-3.250392572e-05	6.769843837e-12
-2.560000000e-02	1.896421205e-01	-3.057572187e-05	2.252710884e-11
-2.570000000e-02	1.896421111e-01	-2.864751853e-05	6.894543170e-12
-2.580000000e-02	1.896421017e-01	-2.671931572e-05	2.810728373e-11
-2.590000000e-02	1.896420923e-01	-2.479111346e-05	1.560534026e-11
-2.600000000e-02	1.896420827e-01	-2.286291171e-05	1.499909683e-11
-2.610000000e-02	1.896420731e-01	-2.093471050e-05	1.868463848e-11
-2.620000000e-02	1.896420635e-01	-1.900650984e-05	1.321867124e-11
-2.630000000e-02	1.896420538e-01	-1.707830971e-05	2.055413511e-11
-2.640000000e-02	1.896420440e-01	-1.515011013e-05	2.412419884e-11
-2.650000000e-02	1.896420342e-01	-1.322191110e-05	2.370635558e-11
-2.660000000e-02	1.896420243e-01	-1.129371261e-05	1.087995281e-11
-2.670000000e-02	1.896420144e-01	-9.365514688e-06	8.851580436e-12
-2.680000000e-02	1.896420044e-01	-7.437317319e-06	2.263748273e-11
-2.690000000e-02	1.896419944e-01	-5.509120488e-06	7.491572966e-11
-2.700000000e-02	1.896419843e-01	-3.580924256e-06	1.035310981e-11
-2.710000000e-02	1.896419741e-01	-1.652728575e-06	1.791181676e-11
-2.720000000e-02	1.896419639e-01	2.754665390e-07	1.071558851e-11
-2.730000000e-02	1.896419536e-01	2.203661078e-06	2.811583460e-11
-2.740000000e-02	1.896419432e-01	4.131855052e-06	1.822255557e-11
-2.750000000e-02	1.896419328e-01	6.060048439e-06	1.075494567e-11
-2.760000000e-02	1.896419223e-01	7.988241247e-06	6.177124519e-12
-2.770000000e-02	1.896419118e-01	9.916433470e-06	7.715794585e-12
-2.780000000e-02	1.896419012e-01	1.184462511e-05	1.323666761e-11
-2.790000000e-02	1.896418906e-01	1.377281616e-05	8.694234784e-12
-2.800000000e-02	1.896418799e-01	1.570100662e-05	1.020087800e-11
-2.810000000e-02	1.896418691e-01	1.762919648e-05	2.923680658e-11
-2.820000000e-02	1.896418583e-01	1.955738574e-05	1.220279530e-11
-2.830000000e-02	1.896418475e-01	2.148557440e-05	3.392552636e-11
-2.840000000e-02	1.896418365e-01	2.341376245e-05	7.844421947e-12
-2.850000000e-02	1.896418255e-01	2.534194990e-05	2.099701933e-11
-2.860000000e-02	1.896418145e-01	2.727013673e-05	8.963517714e-12
-2.870000000e-02	1.896418034e-01	2.919832296e-05	8.005673787e-12
-2.880000000e-02	1.896417922e-01	3.112650857e-05	1.462854333e-11
-2.890000000e-02	1.896417810e-01	3.305469355e-05	7.673559641e-11
-2.900000000e-02	1.896417697e-01	3.498287791e-05	1.260643659e-11
-2.910000000e-02	1.896417583e-01	3.691106165e-05	1.496028465e-11
-2.920000000e-02	1.896417469e-01	3.883924477e-05	1.726690444e-11
-2.930000000e-02	1.896417355e-01	4.076742725e-05	3.970948355e-11
-2.940000000e-02	1.896417239e-01	4.269560909e-05	2.608460279e-11
-2.950000000e-02	1.896417124e-01	4.462379031e-05	7.117754504e-11
-2.960000000e-02	1.896417007e-01	4.655197086e-05	1.026880914e-11
-2.970000000e-02	1.896416890e-01	4.848015079e-05	9.006805879e-12
-2.980000000e-02	1.896416773e-01	5.040833006e-05	7.071120786e-12
-2.990000000e-02	1.896416654e-01	5.233650869e-05	1.771750950e-11
-3.000000000e-02	1.896416536e-01	5.426468667e-05	2.338768608e-11
