# Im(epsi1)     Re(omega/c)      Im(omega/c)      Eq(det).Opt det CON kz, R=0.5 \mum, mu_c=0.3, Re(epsi1)=3.90solve_det_conkz_vs_kz.py
0.000000000e+00	1.896437094e-01	-5.242079664e-04	1.126646932e-11
-1.000000000e-04	1.896437151e-01	-5.222797207e-04	1.361951565e-11
-2.000000000e-04	1.896437208e-01	-5.203514748e-04	9.711288068e-12
-3.000000000e-04	1.896437263e-01	-5.184232287e-04	1.019591387e-11
-4.000000000e-04	1.896437319e-01	-5.164949823e-04	1.889098685e-11
-5.000000000e-04	1.896437373e-01	-5.145667357e-04	9.396740449e-12
-6.000000000e-04	1.896437427e-01	-5.126384889e-04	2.583655969e-11
-7.000000000e-04	1.896437481e-01	-5.107102419e-04	8.470106871e-11
-8.000000000e-04	1.896437534e-01	-5.087819946e-04	1.522150540e-11
-9.000000000e-04	1.896437586e-01	-5.068537471e-04	1.327225171e-11
-1.000000000e-03	1.896437637e-01	-5.049254994e-04	1.431785333e-11
-1.100000000e-03	1.896437689e-01	-5.029972515e-04	1.413214528e-11
-1.200000000e-03	1.896437739e-01	-5.010690034e-04	7.123254027e-12
-1.300000000e-03	1.896437789e-01	-4.991407551e-04	1.946672456e-11
-1.400000000e-03	1.896437838e-01	-4.972125065e-04	9.449020158e-12
-1.500000000e-03	1.896437887e-01	-4.952842578e-04	3.893714117e-11
-1.600000000e-03	1.896437935e-01	-4.933560089e-04	1.889852626e-11
-1.700000000e-03	1.896437983e-01	-4.914277598e-04	5.830503701e-11
-1.800000000e-03	1.896438030e-01	-4.894995105e-04	1.184823434e-11
-1.900000000e-03	1.896438076e-01	-4.875712611e-04	1.405764105e-11
-2.000000000e-03	1.896438122e-01	-4.856430114e-04	6.410659870e-12
-2.100000000e-03	1.896438167e-01	-4.837147616e-04	1.250297061e-11
-2.200000000e-03	1.896438212e-01	-4.817865115e-04	3.745722674e-11
-2.300000000e-03	1.896438256e-01	-4.798582614e-04	5.457323666e-11
-2.400000000e-03	1.896438299e-01	-4.779300110e-04	9.746766267e-12
-2.500000000e-03	1.896438342e-01	-4.760017605e-04	1.137397990e-11
-2.600000000e-03	1.896438384e-01	-4.740735098e-04	6.125674469e-12
-2.700000000e-03	1.896438426e-01	-4.721452589e-04	8.105420012e-12
-2.800000000e-03	1.896438467e-01	-4.702170079e-04	2.419647734e-11
-2.900000000e-03	1.896438508e-01	-4.682887568e-04	2.670495416e-11
-3.000000000e-03	1.896438548e-01	-4.663605054e-04	2.091534006e-11
-3.100000000e-03	1.896438587e-01	-4.644322540e-04	1.007151788e-11
-3.200000000e-03	1.896438626e-01	-4.625040024e-04	1.282776230e-11
-3.300000000e-03	1.896438664e-01	-4.605757506e-04	1.253128835e-11
-3.400000000e-03	1.896438701e-01	-4.586474987e-04	2.395140910e-11
-3.500000000e-03	1.896438738e-01	-4.567192466e-04	1.108067065e-11
-3.600000000e-03	1.896438775e-01	-4.547909945e-04	1.044866894e-11
-3.700000000e-03	1.896438811e-01	-4.528627422e-04	1.736192091e-11
-3.800000000e-03	1.896438846e-01	-4.509344897e-04	3.131992395e-11
-3.900000000e-03	1.896438880e-01	-4.490062372e-04	1.009286444e-11
-4.000000000e-03	1.896438914e-01	-4.470779845e-04	9.523603013e-12
-4.100000000e-03	1.896438948e-01	-4.451497317e-04	6.253362571e-12
-4.200000000e-03	1.896438981e-01	-4.432214788e-04	8.618376615e-12
-4.300000000e-03	1.896439013e-01	-4.412932257e-04	6.064280919e-12
-4.400000000e-03	1.896439045e-01	-4.393649726e-04	1.931253721e-11
-4.500000000e-03	1.896439076e-01	-4.374367193e-04	1.154081689e-11
-4.600000000e-03	1.896439106e-01	-4.355084660e-04	6.848926069e-12
-4.700000000e-03	1.896439136e-01	-4.335802125e-04	1.801592599e-11
-4.800000000e-03	1.896439166e-01	-4.316519589e-04	1.051413279e-11
-4.900000000e-03	1.896439194e-01	-4.297237053e-04	1.431336446e-11
-5.000000000e-03	1.896439223e-01	-4.277954515e-04	5.309128377e-11
-5.100000000e-03	1.896439250e-01	-4.258671977e-04	8.089102877e-12
-5.200000000e-03	1.896439277e-01	-4.239389437e-04	2.136967528e-11
-5.300000000e-03	1.896439303e-01	-4.220106897e-04	1.405367699e-11
-5.400000000e-03	1.896439329e-01	-4.200824356e-04	1.122516540e-11
-5.500000000e-03	1.896439355e-01	-4.181541815e-04	7.424782145e-12
-5.600000000e-03	1.896439379e-01	-4.162259272e-04	7.999083054e-11
-5.700000000e-03	1.896439403e-01	-4.142976729e-04	1.499964471e-11
-5.800000000e-03	1.896439427e-01	-4.123694185e-04	1.109689875e-11
-5.900000000e-03	1.896439450e-01	-4.104411640e-04	1.047114083e-11
-6.000000000e-03	1.896439472e-01	-4.085129095e-04	1.274307121e-11
-6.100000000e-03	1.896439494e-01	-4.065846549e-04	5.878989987e-12
-6.200000000e-03	1.896439515e-01	-4.046564003e-04	6.997914732e-12
-6.300000000e-03	1.896439535e-01	-4.027281456e-04	1.799785912e-11
-6.400000000e-03	1.896439555e-01	-4.007998909e-04	1.361447420e-11
-6.500000000e-03	1.896439574e-01	-3.988716361e-04	1.657096422e-11
-6.600000000e-03	1.896439593e-01	-3.969433812e-04	1.138791650e-11
-6.700000000e-03	1.896439611e-01	-3.950151264e-04	1.791841012e-11
-6.800000000e-03	1.896439629e-01	-3.930868714e-04	4.416625003e-12
-6.900000000e-03	1.896439646e-01	-3.911586165e-04	1.600759578e-11
-7.000000000e-03	1.896439662e-01	-3.892303615e-04	8.329281899e-12
-7.100000000e-03	1.896439678e-01	-3.873021065e-04	6.578879380e-12
-7.200000000e-03	1.896439693e-01	-3.853738514e-04	1.364664039e-11
-7.300000000e-03	1.896439708e-01	-3.834455963e-04	2.792694640e-11
-7.400000000e-03	1.896439722e-01	-3.815173412e-04	9.179843116e-12
-7.500000000e-03	1.896439736e-01	-3.795890861e-04	1.102541865e-11
-7.600000000e-03	1.896439749e-01	-3.776608310e-04	1.802575597e-11
-7.700000000e-03	1.896439761e-01	-3.757325759e-04	1.032153059e-11
-7.800000000e-03	1.896439773e-01	-3.738043207e-04	9.107977393e-12
-7.900000000e-03	1.896439784e-01	-3.718760655e-04	6.257925298e-12
-8.000000000e-03	1.896439794e-01	-3.699478104e-04	2.539862252e-11
-8.100000000e-03	1.896439804e-01	-3.680195552e-04	4.949452018e-11
-8.200000000e-03	1.896439814e-01	-3.660913001e-04	1.718453604e-11
-8.300000000e-03	1.896439822e-01	-3.641630449e-04	1.361871343e-11
-8.400000000e-03	1.896439830e-01	-3.622347898e-04	1.067797016e-11
-8.500000000e-03	1.896439838e-01	-3.603065346e-04	2.763817404e-11
-8.600000000e-03	1.896439845e-01	-3.583782795e-04	7.644398331e-11
-8.700000000e-03	1.896439852e-01	-3.564500244e-04	1.017907320e-11
-8.800000000e-03	1.896439857e-01	-3.545217693e-04	1.309052986e-11
-8.900000000e-03	1.896439863e-01	-3.525935142e-04	9.048882266e-12
-9.000000000e-03	1.896439867e-01	-3.506652592e-04	5.952061444e-12
-9.100000000e-03	1.896439871e-01	-3.487370042e-04	5.412120466e-12
-9.200000000e-03	1.896439875e-01	-3.468087492e-04	1.569124961e-11
-9.300000000e-03	1.896439878e-01	-3.448804943e-04	1.109873918e-11
-9.400000000e-03	1.896439880e-01	-3.429522394e-04	1.069050363e-11
-9.500000000e-03	1.896439882e-01	-3.410239845e-04	9.356296662e-11
-9.600000000e-03	1.896439883e-01	-3.390957297e-04	1.627679984e-11
-9.700000000e-03	1.896439883e-01	-3.371674749e-04	1.007683738e-11
-9.800000000e-03	1.896439883e-01	-3.352392202e-04	1.394599006e-11
-9.900000000e-03	1.896439883e-01	-3.333109655e-04	2.440490805e-11
-1.000000000e-02	1.896439882e-01	-3.313827109e-04	1.706844646e-11
-1.010000000e-02	1.896439880e-01	-3.294544564e-04	1.688539034e-11
-1.020000000e-02	1.896439877e-01	-3.275262019e-04	3.018349883e-11
-1.030000000e-02	1.896439874e-01	-3.255979475e-04	9.096034729e-12
-1.040000000e-02	1.896439871e-01	-3.236696931e-04	1.022818281e-10
-1.050000000e-02	1.896439867e-01	-3.217414388e-04	1.689391741e-11
-1.060000000e-02	1.896439862e-01	-3.198131846e-04	4.659129457e-11
-1.070000000e-02	1.896439857e-01	-3.178849305e-04	2.214507303e-11
-1.080000000e-02	1.896439851e-01	-3.159566764e-04	6.272154350e-11
-1.090000000e-02	1.896439844e-01	-3.140284224e-04	7.895519816e-12
-1.100000000e-02	1.896439837e-01	-3.121001685e-04	1.149113843e-11
-1.110000000e-02	1.896439829e-01	-3.101719147e-04	3.072993991e-11
-1.120000000e-02	1.896439821e-01	-3.082436610e-04	1.234668658e-11
-1.130000000e-02	1.896439812e-01	-3.063154074e-04	8.113695852e-12
-1.140000000e-02	1.896439803e-01	-3.043871539e-04	1.610088605e-11
-1.150000000e-02	1.896439793e-01	-3.024589005e-04	2.088547697e-11
-1.160000000e-02	1.896439782e-01	-3.005306472e-04	1.487664952e-11
-1.170000000e-02	1.896439771e-01	-2.986023940e-04	1.425901250e-11
-1.180000000e-02	1.896439759e-01	-2.966741409e-04	1.910195026e-11
-1.190000000e-02	1.896439747e-01	-2.947458879e-04	8.789833254e-12
-1.200000000e-02	1.896439734e-01	-2.928176350e-04	2.219929369e-11
-1.210000000e-02	1.896439720e-01	-2.908893823e-04	5.086375762e-11
-1.220000000e-02	1.896439706e-01	-2.889611296e-04	3.406462250e-11
-1.230000000e-02	1.896439691e-01	-2.870328771e-04	1.161204222e-11
-1.240000000e-02	1.896439676e-01	-2.851046248e-04	7.813107788e-12
-1.250000000e-02	1.896439660e-01	-2.831763725e-04	2.025087148e-11
-1.260000000e-02	1.896439644e-01	-2.812481204e-04	1.257785452e-11
-1.270000000e-02	1.896439627e-01	-2.793198684e-04	1.380622023e-11
-1.280000000e-02	1.896439609e-01	-2.773916166e-04	9.764185133e-12
-1.290000000e-02	1.896439591e-01	-2.754633649e-04	8.701518112e-12
-1.300000000e-02	1.896439572e-01	-2.735351133e-04	1.080392541e-11
-1.310000000e-02	1.896439552e-01	-2.716068619e-04	1.163534118e-11
-1.320000000e-02	1.896439532e-01	-2.696786107e-04	7.837201192e-12
-1.330000000e-02	1.896439512e-01	-2.677503596e-04	1.658210394e-11
-1.340000000e-02	1.896439490e-01	-2.658221087e-04	2.206100357e-11
-1.350000000e-02	1.896439469e-01	-2.638938579e-04	1.574817558e-11
-1.360000000e-02	1.896439446e-01	-2.619656073e-04	1.524334534e-11
-1.370000000e-02	1.896439423e-01	-2.600373568e-04	1.898717242e-11
-1.380000000e-02	1.896439400e-01	-2.581091065e-04	2.987529213e-11
-1.390000000e-02	1.896439376e-01	-2.561808564e-04	1.041035362e-11
-1.400000000e-02	1.896439351e-01	-2.542526065e-04	3.002076561e-11
-1.410000000e-02	1.896439326e-01	-2.523243568e-04	3.044823170e-11
-1.420000000e-02	1.896439300e-01	-2.503961072e-04	1.559814584e-11
-1.430000000e-02	1.896439273e-01	-2.484678578e-04	7.191152334e-12
-1.440000000e-02	1.896439246e-01	-2.465396086e-04	1.283280802e-11
-1.450000000e-02	1.896439219e-01	-2.446113596e-04	1.645137598e-11
-1.460000000e-02	1.896439190e-01	-2.426831108e-04	4.364082205e-11
-1.470000000e-02	1.896439161e-01	-2.407548621e-04	1.681804785e-11
-1.480000000e-02	1.896439132e-01	-2.388266137e-04	1.446378296e-11
-1.490000000e-02	1.896439102e-01	-2.368983655e-04	5.045387427e-12
-1.500000000e-02	1.896439071e-01	-2.349701175e-04	7.215642066e-12
-1.510000000e-02	1.896439040e-01	-2.330418697e-04	9.318793136e-12
-1.520000000e-02	1.896439008e-01	-2.311136221e-04	1.727904159e-11
-1.530000000e-02	1.896438976e-01	-2.291853747e-04	7.719386978e-12
-1.540000000e-02	1.896438943e-01	-2.272571275e-04	8.800791992e-12
-1.550000000e-02	1.896438910e-01	-2.253288806e-04	3.745990972e-11
-1.560000000e-02	1.896438875e-01	-2.234006339e-04	9.816739597e-12
-1.570000000e-02	1.896438841e-01	-2.214723874e-04	8.327161069e-12
-1.580000000e-02	1.896438805e-01	-2.195441411e-04	7.187214265e-12
-1.590000000e-02	1.896438770e-01	-2.176158951e-04	8.647298304e-12
-1.600000000e-02	1.896438733e-01	-2.156876493e-04	1.100186218e-11
-1.610000000e-02	1.896438696e-01	-2.137594037e-04	3.832134667e-11
-1.620000000e-02	1.896438658e-01	-2.118311584e-04	7.077144252e-12
-1.630000000e-02	1.896438620e-01	-2.099029133e-04	1.247601755e-11
-1.640000000e-02	1.896438581e-01	-2.079746685e-04	4.741066293e-12
-1.650000000e-02	1.896438542e-01	-2.060464239e-04	1.308826532e-11
-1.660000000e-02	1.896438502e-01	-2.041181796e-04	2.944402551e-11
-1.670000000e-02	1.896438461e-01	-2.021899355e-04	1.763727190e-11
-1.680000000e-02	1.896438420e-01	-2.002616917e-04	1.663988810e-11
-1.690000000e-02	1.896438378e-01	-1.983334481e-04	2.354827725e-10
-1.700000000e-02	1.896438336e-01	-1.964052048e-04	3.845425883e-11
-1.710000000e-02	1.896438293e-01	-1.944769618e-04	1.229158907e-11
-1.720000000e-02	1.896438250e-01	-1.925487190e-04	1.221162125e-11
-1.730000000e-02	1.896438205e-01	-1.906204766e-04	1.561594098e-11
-1.740000000e-02	1.896438161e-01	-1.886922344e-04	3.837281953e-11
-1.750000000e-02	1.896438115e-01	-1.867639924e-04	2.180391207e-11
-1.760000000e-02	1.896438070e-01	-1.848357508e-04	3.493359023e-11
-1.770000000e-02	1.896438023e-01	-1.829075095e-04	2.076769370e-11
-1.780000000e-02	1.896437976e-01	-1.809792684e-04	9.132708896e-12
-1.790000000e-02	1.896437928e-01	-1.790510276e-04	9.110233278e-12
-1.800000000e-02	1.896437880e-01	-1.771227871e-04	8.416323672e-12
-1.810000000e-02	1.896437831e-01	-1.751945469e-04	1.016961917e-11
-1.820000000e-02	1.896437782e-01	-1.732663071e-04	1.194287551e-11
-1.830000000e-02	1.896437732e-01	-1.713380675e-04	1.127037933e-11
-1.840000000e-02	1.896437681e-01	-1.694098282e-04	5.063981578e-12
-1.850000000e-02	1.896437630e-01	-1.674815893e-04	3.171488154e-11
-1.860000000e-02	1.896437578e-01	-1.655533506e-04	1.562726559e-11
-1.870000000e-02	1.896437526e-01	-1.636251123e-04	2.005909641e-11
-1.880000000e-02	1.896437473e-01	-1.616968743e-04	2.196484648e-11
-1.890000000e-02	1.896437420e-01	-1.597686366e-04	8.156692264e-12
-1.900000000e-02	1.896437365e-01	-1.578403992e-04	1.459384798e-11
-1.910000000e-02	1.896437311e-01	-1.559121622e-04	2.006649902e-11
-1.920000000e-02	1.896437256e-01	-1.539839254e-04	8.020577152e-12
-1.930000000e-02	1.896437200e-01	-1.520556891e-04	8.597284125e-11
-1.940000000e-02	1.896437143e-01	-1.501274530e-04	6.059789547e-12
-1.950000000e-02	1.896437086e-01	-1.481992173e-04	1.201818764e-11
-1.960000000e-02	1.896437029e-01	-1.462709819e-04	8.997394886e-12
-1.970000000e-02	1.896436970e-01	-1.443427469e-04	9.568735324e-12
-1.980000000e-02	1.896436911e-01	-1.424145123e-04	4.273896944e-11
-1.990000000e-02	1.896436852e-01	-1.404862779e-04	1.528737632e-11
-2.000000000e-02	1.896436792e-01	-1.385580440e-04	1.531277083e-11
-2.010000000e-02	1.896436732e-01	-1.366298104e-04	8.350783968e-12
-2.020000000e-02	1.896436670e-01	-1.347015771e-04	1.036731425e-11
-2.030000000e-02	1.896436609e-01	-1.327733443e-04	1.828251071e-11
-2.040000000e-02	1.896436546e-01	-1.308451117e-04	9.133207077e-11
-2.050000000e-02	1.896436483e-01	-1.289168796e-04	9.545475045e-12
-2.060000000e-02	1.896436420e-01	-1.269886478e-04	1.744757549e-11
-2.070000000e-02	1.896436356e-01	-1.250604164e-04	9.797308573e-12
-2.080000000e-02	1.896436291e-01	-1.231321854e-04	2.329680293e-11
-2.090000000e-02	1.896436226e-01	-1.212039547e-04	1.242254956e-10
-2.100000000e-02	1.896436160e-01	-1.192757251e-04	2.983068741e-09
-2.110000000e-02	1.896436093e-01	-1.173474946e-04	1.301364846e-11
-2.120000000e-02	1.896436026e-01	-1.154192651e-04	4.599894058e-11
-2.130000000e-02	1.896435959e-01	-1.134910360e-04	1.443835344e-11
-2.140000000e-02	1.896435891e-01	-1.115628073e-04	9.096291673e-12
-2.150000000e-02	1.896435822e-01	-1.096345791e-04	8.873366406e-12
-2.160000000e-02	1.896435752e-01	-1.077063512e-04	1.353129915e-11
-2.170000000e-02	1.896435682e-01	-1.057781237e-04	1.158612253e-11
-2.180000000e-02	1.896435612e-01	-1.038498966e-04	3.877964110e-11
-2.190000000e-02	1.896435541e-01	-1.019216699e-04	8.191566291e-12
-2.200000000e-02	1.896435469e-01	-9.999344367e-05	9.408689305e-12
-2.210000000e-02	1.896435397e-01	-9.806521783e-05	1.091724209e-11
-2.220000000e-02	1.896435324e-01	-9.613699242e-05	8.013060827e-12
-2.230000000e-02	1.896435250e-01	-9.420876742e-05	1.736667513e-11
-2.240000000e-02	1.896435176e-01	-9.228054285e-05	2.413027556e-11
-2.250000000e-02	1.896435102e-01	-9.035231871e-05	1.815605400e-11
-2.260000000e-02	1.896435026e-01	-8.842409500e-05	3.878228975e-12
-2.270000000e-02	1.896434950e-01	-8.649587172e-05	3.955379674e-11
-2.280000000e-02	1.896434874e-01	-8.456764889e-05	1.292722926e-11
-2.290000000e-02	1.896434797e-01	-8.263942648e-05	5.085649359e-11
-2.300000000e-02	1.896434719e-01	-8.071120454e-05	5.305299773e-12
-2.310000000e-02	1.896434641e-01	-7.878298303e-05	1.255762604e-11
-2.320000000e-02	1.896434562e-01	-7.685476198e-05	3.314919044e-11
-2.330000000e-02	1.896434483e-01	-7.492654137e-05	7.779143154e-12
-2.340000000e-02	1.896434403e-01	-7.299832122e-05	1.913079149e-11
-2.350000000e-02	1.896434322e-01	-7.107010153e-05	6.923137255e-12
-2.360000000e-02	1.896434241e-01	-6.914188230e-05	1.142855872e-11
-2.370000000e-02	1.896434160e-01	-6.721366353e-05	1.375410276e-11
-2.380000000e-02	1.896434077e-01	-6.528544523e-05	5.791674541e-11
-2.390000000e-02	1.896433994e-01	-6.335722741e-05	8.741423306e-12
-2.400000000e-02	1.896433911e-01	-6.142901006e-05	7.175863984e-12
-2.410000000e-02	1.896433827e-01	-5.950079318e-05	9.618536426e-12
-2.420000000e-02	1.896433742e-01	-5.757257678e-05	1.822848437e-11
-2.430000000e-02	1.896433657e-01	-5.564436087e-05	1.422010580e-11
-2.440000000e-02	1.896433571e-01	-5.371614543e-05	2.898885624e-11
-2.450000000e-02	1.896433485e-01	-5.178793050e-05	5.845841197e-12
-2.460000000e-02	1.896433398e-01	-4.985971605e-05	1.004403948e-11
-2.470000000e-02	1.896433310e-01	-4.793150209e-05	1.102768580e-11
-2.480000000e-02	1.896433222e-01	-4.600328863e-05	1.151487470e-11
-2.490000000e-02	1.896433133e-01	-4.407507567e-05	2.029315133e-11
-2.500000000e-02	1.896433044e-01	-4.214686322e-05	2.042556937e-11
-2.510000000e-02	1.896432954e-01	-4.021865127e-05	5.024703479e-12
-2.520000000e-02	1.896432863e-01	-3.829043983e-05	1.265259937e-11
-2.530000000e-02	1.896432772e-01	-3.636222890e-05	1.147516497e-11
-2.540000000e-02	1.896432680e-01	-3.443401849e-05	1.084316468e-11
-2.550000000e-02	1.896432588e-01	-3.250580859e-05	2.130929593e-11
-2.560000000e-02	1.896432495e-01	-3.057759922e-05	1.563466843e-11
-2.570000000e-02	1.896432402e-01	-2.864939037e-05	3.855273695e-11
-2.580000000e-02	1.896432308e-01	-2.672118206e-05	5.332205332e-11
-2.590000000e-02	1.896432213e-01	-2.479297426e-05	1.827480084e-11
-2.600000000e-02	1.896432118e-01	-2.286476700e-05	8.944023885e-12
-2.610000000e-02	1.896432022e-01	-2.093656027e-05	5.336283928e-11
-2.620000000e-02	1.896431925e-01	-1.900835409e-05	1.713457505e-11
-2.630000000e-02	1.896431828e-01	-1.708014845e-05	1.544173559e-11
-2.640000000e-02	1.896431731e-01	-1.515194336e-05	1.688055794e-11
-2.650000000e-02	1.896431633e-01	-1.322373881e-05	1.469768890e-11
-2.660000000e-02	1.896431534e-01	-1.129553481e-05	1.335859997e-11
-2.670000000e-02	1.896431435e-01	-9.367331365e-06	9.135455657e-12
-2.680000000e-02	1.896431335e-01	-7.439128479e-06	8.211983453e-12
-2.690000000e-02	1.896431234e-01	-5.510926151e-06	1.982944766e-11
-2.700000000e-02	1.896431133e-01	-3.582724415e-06	1.373140911e-10
-2.710000000e-02	1.896431031e-01	-1.654523190e-06	2.734020153e-11
-2.720000000e-02	1.896430929e-01	2.736774450e-07	1.732365911e-11
-2.730000000e-02	1.896430826e-01	2.201877514e-06	1.288666981e-10
-2.740000000e-02	1.896430723e-01	4.130077004e-06	1.029775135e-10
-2.750000000e-02	1.896430619e-01	6.058275891e-06	2.201215633e-11
-2.760000000e-02	1.896430514e-01	7.986474212e-06	1.361915386e-11
-2.770000000e-02	1.896430409e-01	9.914671951e-06	1.328465429e-11
-2.780000000e-02	1.896430303e-01	1.184286911e-05	1.409886765e-11
-2.790000000e-02	1.896430196e-01	1.377106567e-05	1.197119111e-11
-2.800000000e-02	1.896430089e-01	1.569926164e-05	1.932242352e-11
-2.810000000e-02	1.896429982e-01	1.762745702e-05	1.234411518e-11
-2.820000000e-02	1.896429874e-01	1.955565180e-05	1.099748917e-11
-2.830000000e-02	1.896429765e-01	2.148384597e-05	1.222130457e-11
-2.840000000e-02	1.896429656e-01	2.341203955e-05	9.603110951e-12
-2.850000000e-02	1.896429546e-01	2.534023251e-05	9.994805339e-12
-2.860000000e-02	1.896429435e-01	2.726842486e-05	8.657178424e-12
-2.870000000e-02	1.896429324e-01	2.919661661e-05	2.650285274e-11
-2.880000000e-02	1.896429212e-01	3.112480772e-05	9.727503053e-12
-2.890000000e-02	1.896429100e-01	3.305299822e-05	2.103692023e-11
-2.900000000e-02	1.896428987e-01	3.498118811e-05	7.626319705e-12
-2.910000000e-02	1.896428874e-01	3.690937736e-05	1.021369886e-11
-2.920000000e-02	1.896428760e-01	3.883756599e-05	1.366214454e-11
-2.930000000e-02	1.896428645e-01	4.076575399e-05	2.269519685e-11
-2.940000000e-02	1.896428530e-01	4.269394135e-05	9.241731839e-12
-2.950000000e-02	1.896428414e-01	4.462212807e-05	1.132162371e-11
-2.960000000e-02	1.896428298e-01	4.655031415e-05	1.043583789e-11
-2.970000000e-02	1.896428181e-01	4.847849959e-05	2.920602787e-11
-2.980000000e-02	1.896428063e-01	5.040668439e-05	3.497984757e-11
-2.990000000e-02	1.896427945e-01	5.233486853e-05	9.260498577e-12
-3.000000000e-02	1.896427826e-01	5.426305202e-05	8.870623624e-12
