# Im(epsi1)     Re(omega/c)      Im(omega/c)      Eq(det).Opt det CON kz, R=0.5 \mum, mu_c=0.3, Re(epsi1)=3.90solve_det_conkz_vs_kz.py
0.000000000e+00	1.896536191e-01	-5.242342442e-04	9.465114187e-12
-1.000000000e-04	1.896536248e-01	-5.223059500e-04	5.590300604e-12
-2.000000000e-04	1.896536305e-01	-5.203776556e-04	6.988764111e-12
-3.000000000e-04	1.896536360e-01	-5.184493610e-04	1.409625968e-11
-4.000000000e-04	1.896536416e-01	-5.165210661e-04	9.315512346e-12
-5.000000000e-04	1.896536470e-01	-5.145927711e-04	1.244607451e-11
-6.000000000e-04	1.896536524e-01	-5.126644758e-04	1.809511838e-11
-7.000000000e-04	1.896536578e-01	-5.107361802e-04	9.974460467e-12
-8.000000000e-04	1.896536630e-01	-5.088078845e-04	7.525912913e-12
-9.000000000e-04	1.896536683e-01	-5.068795885e-04	2.496303154e-11
-1.000000000e-03	1.896536734e-01	-5.049512923e-04	5.610300910e-11
-1.100000000e-03	1.896536786e-01	-5.030229959e-04	1.187877565e-11
-1.200000000e-03	1.896536836e-01	-5.010946994e-04	8.014424155e-12
-1.300000000e-03	1.896536886e-01	-4.991664026e-04	2.905189234e-11
-1.400000000e-03	1.896536935e-01	-4.972381056e-04	2.997580452e-11
-1.500000000e-03	1.896536984e-01	-4.953098084e-04	3.636356586e-11
-1.600000000e-03	1.896537032e-01	-4.933815110e-04	9.907468337e-12
-1.700000000e-03	1.896537080e-01	-4.914532134e-04	1.574022028e-11
-1.800000000e-03	1.896537127e-01	-4.895249156e-04	1.498131655e-11
-1.900000000e-03	1.896537173e-01	-4.875966177e-04	8.563646029e-12
-2.000000000e-03	1.896537219e-01	-4.856683195e-04	1.253788951e-11
-2.100000000e-03	1.896537264e-01	-4.837400212e-04	6.476464517e-12
-2.200000000e-03	1.896537309e-01	-4.818117227e-04	1.230688932e-10
-2.300000000e-03	1.896537353e-01	-4.798834240e-04	1.948654639e-11
-2.400000000e-03	1.896537396e-01	-4.779551252e-04	6.174335242e-12
-2.500000000e-03	1.896537439e-01	-4.760268262e-04	1.847710019e-11
-2.600000000e-03	1.896537481e-01	-4.740985270e-04	6.490324274e-11
-2.700000000e-03	1.896537523e-01	-4.721702277e-04	1.996614929e-11
-2.800000000e-03	1.896537564e-01	-4.702419282e-04	1.794520568e-11
-2.900000000e-03	1.896537605e-01	-4.683136285e-04	1.001535114e-11
-3.000000000e-03	1.896537645e-01	-4.663853287e-04	8.156991473e-12
-3.100000000e-03	1.896537684e-01	-4.644570288e-04	2.550033341e-11
-3.200000000e-03	1.896537723e-01	-4.625287287e-04	7.856640630e-12
-3.300000000e-03	1.896537761e-01	-4.606004284e-04	7.815302391e-12
-3.400000000e-03	1.896537798e-01	-4.586721281e-04	6.414395193e-12
-3.500000000e-03	1.896537835e-01	-4.567438275e-04	2.134373393e-11
-3.600000000e-03	1.896537872e-01	-4.548155269e-04	3.729451290e-11
-3.700000000e-03	1.896537908e-01	-4.528872261e-04	1.302478125e-11
-3.800000000e-03	1.896537943e-01	-4.509589252e-04	1.691859404e-11
-3.900000000e-03	1.896537977e-01	-4.490306241e-04	1.115479250e-11
-4.000000000e-03	1.896538011e-01	-4.471023230e-04	1.033640072e-11
-4.100000000e-03	1.896538045e-01	-4.451740217e-04	1.496301636e-11
-4.200000000e-03	1.896538078e-01	-4.432457203e-04	9.097617180e-12
-4.300000000e-03	1.896538110e-01	-4.413174188e-04	5.282841304e-11
-4.400000000e-03	1.896538142e-01	-4.393891171e-04	1.341105515e-11
-4.500000000e-03	1.896538173e-01	-4.374608154e-04	7.269222134e-12
-4.600000000e-03	1.896538203e-01	-4.355325135e-04	6.641411997e-12
-4.700000000e-03	1.896538233e-01	-4.336042116e-04	7.331926202e-12
-4.800000000e-03	1.896538263e-01	-4.316759095e-04	1.038961558e-11
-4.900000000e-03	1.896538291e-01	-4.297476074e-04	1.578509091e-11
-5.000000000e-03	1.896538320e-01	-4.278193052e-04	1.062517053e-11
-5.100000000e-03	1.896538347e-01	-4.258910028e-04	9.374908920e-12
-5.200000000e-03	1.896538374e-01	-4.239627004e-04	2.646169017e-11
-5.300000000e-03	1.896538401e-01	-4.220343979e-04	1.154448833e-11
-5.400000000e-03	1.896538426e-01	-4.201060954e-04	1.256222146e-11
-5.500000000e-03	1.896538452e-01	-4.181777927e-04	1.028419239e-11
-5.600000000e-03	1.896538476e-01	-4.162494900e-04	7.891642088e-12
-5.700000000e-03	1.896538500e-01	-4.143211872e-04	1.566369169e-11
-5.800000000e-03	1.896538524e-01	-4.123928843e-04	1.535973735e-11
-5.900000000e-03	1.896538547e-01	-4.104645814e-04	1.532672515e-11
-6.000000000e-03	1.896538569e-01	-4.085362784e-04	1.089808370e-11
-6.100000000e-03	1.896538591e-01	-4.066079753e-04	3.191035738e-11
-6.200000000e-03	1.896538612e-01	-4.046796722e-04	1.159002085e-11
-6.300000000e-03	1.896538632e-01	-4.027513690e-04	1.059270517e-11
-6.400000000e-03	1.896538652e-01	-4.008230658e-04	1.056123376e-11
-6.500000000e-03	1.896538672e-01	-3.988947625e-04	1.756360203e-11
-6.600000000e-03	1.896538690e-01	-3.969664592e-04	2.199108331e-11
-6.700000000e-03	1.896538709e-01	-3.950381558e-04	1.438568536e-11
-6.800000000e-03	1.896538726e-01	-3.931098524e-04	6.629285968e-12
-6.900000000e-03	1.896538743e-01	-3.911815490e-04	9.436115475e-12
-7.000000000e-03	1.896538760e-01	-3.892532455e-04	1.597722873e-11
-7.100000000e-03	1.896538775e-01	-3.873249420e-04	1.389990246e-11
-7.200000000e-03	1.896538791e-01	-3.853966385e-04	3.573412160e-11
-7.300000000e-03	1.896538805e-01	-3.834683349e-04	1.138940623e-11
-7.400000000e-03	1.896538819e-01	-3.815400313e-04	4.554518106e-11
-7.500000000e-03	1.896538833e-01	-3.796117277e-04	1.698252593e-11
-7.600000000e-03	1.896538846e-01	-3.776834241e-04	7.950487638e-12
-7.700000000e-03	1.896538858e-01	-3.757551205e-04	6.755038389e-11
-7.800000000e-03	1.896538870e-01	-3.738268169e-04	8.077037664e-11
-7.900000000e-03	1.896538881e-01	-3.718985132e-04	1.055088725e-11
-8.000000000e-03	1.896538891e-01	-3.699702096e-04	1.113541473e-11
-8.100000000e-03	1.896538901e-01	-3.680419059e-04	1.960801766e-11
-8.200000000e-03	1.896538911e-01	-3.661136023e-04	1.014593715e-11
-8.300000000e-03	1.896538920e-01	-3.641852986e-04	1.000071446e-11
-8.400000000e-03	1.896538928e-01	-3.622569950e-04	7.550537342e-12
-8.500000000e-03	1.896538935e-01	-3.603286914e-04	1.660207982e-11
-8.600000000e-03	1.896538942e-01	-3.584003878e-04	6.889294072e-12
-8.700000000e-03	1.896538949e-01	-3.564720842e-04	1.088005818e-11
-8.800000000e-03	1.896538955e-01	-3.545437806e-04	1.924428005e-11
-8.900000000e-03	1.896538960e-01	-3.526154771e-04	8.241195890e-12
-9.000000000e-03	1.896538965e-01	-3.506871736e-04	2.153781984e-11
-9.100000000e-03	1.896538969e-01	-3.487588701e-04	2.961757325e-11
-9.200000000e-03	1.896538972e-01	-3.468305666e-04	1.654275180e-11
-9.300000000e-03	1.896538975e-01	-3.449022632e-04	1.090478047e-11
-9.400000000e-03	1.896538977e-01	-3.429739598e-04	9.246573346e-12
-9.500000000e-03	1.896538979e-01	-3.410456565e-04	2.932650234e-11
-9.600000000e-03	1.896538980e-01	-3.391173532e-04	1.106009187e-11
-9.700000000e-03	1.896538981e-01	-3.371890499e-04	1.275022378e-11
-9.800000000e-03	1.896538981e-01	-3.352607467e-04	8.356863316e-12
-9.900000000e-03	1.896538980e-01	-3.333324435e-04	7.360216991e-12
-1.000000000e-02	1.896538979e-01	-3.314041405e-04	1.843453657e-11
-1.010000000e-02	1.896538977e-01	-3.294758374e-04	2.616016264e-11
-1.020000000e-02	1.896538975e-01	-3.275475344e-04	3.094233815e-11
-1.030000000e-02	1.896538972e-01	-3.256192315e-04	3.105363071e-11
-1.040000000e-02	1.896538968e-01	-3.236909287e-04	3.242012343e-11
-1.050000000e-02	1.896538964e-01	-3.217626259e-04	1.431742000e-11
-1.060000000e-02	1.896538959e-01	-3.198343232e-04	2.331952533e-11
-1.070000000e-02	1.896538954e-01	-3.179060206e-04	1.543720222e-11
-1.080000000e-02	1.896538948e-01	-3.159777181e-04	6.909522710e-12
-1.090000000e-02	1.896538941e-01	-3.140494156e-04	1.142088332e-11
-1.100000000e-02	1.896538934e-01	-3.121211132e-04	2.654906967e-11
-1.110000000e-02	1.896538927e-01	-3.101928109e-04	1.539924634e-11
-1.120000000e-02	1.896538918e-01	-3.082645088e-04	9.925028056e-12
-1.130000000e-02	1.896538910e-01	-3.063362067e-04	3.935328467e-11
-1.140000000e-02	1.896538900e-01	-3.044079046e-04	1.229837726e-10
-1.150000000e-02	1.896538890e-01	-3.024796028e-04	1.207206528e-11
-1.160000000e-02	1.896538880e-01	-3.005513010e-04	1.161241678e-11
-1.170000000e-02	1.896538868e-01	-2.986229993e-04	1.448691933e-11
-1.180000000e-02	1.896538857e-01	-2.966946977e-04	2.741197630e-11
-1.190000000e-02	1.896538844e-01	-2.947663962e-04	1.314371287e-11
-1.200000000e-02	1.896538831e-01	-2.928380949e-04	1.310176649e-11
-1.210000000e-02	1.896538818e-01	-2.909097936e-04	1.957746014e-11
-1.220000000e-02	1.896538803e-01	-2.889814925e-04	3.065268308e-11
-1.230000000e-02	1.896538789e-01	-2.870531915e-04	1.319213843e-11
-1.240000000e-02	1.896538773e-01	-2.851248907e-04	1.332291765e-10
-1.250000000e-02	1.896538758e-01	-2.831965900e-04	9.951088064e-12
-1.260000000e-02	1.896538741e-01	-2.812682894e-04	1.370637902e-11
-1.270000000e-02	1.896538724e-01	-2.793399889e-04	1.878222936e-11
-1.280000000e-02	1.896538706e-01	-2.774116886e-04	1.260242302e-11
-1.290000000e-02	1.896538688e-01	-2.754833884e-04	2.582201554e-11
-1.300000000e-02	1.896538669e-01	-2.735550884e-04	1.416751251e-11
-1.310000000e-02	1.896538650e-01	-2.716267885e-04	1.349920366e-11
-1.320000000e-02	1.896538630e-01	-2.696984887e-04	2.104621305e-11
-1.330000000e-02	1.896538609e-01	-2.677701892e-04	6.784717243e-12
-1.340000000e-02	1.896538588e-01	-2.658418897e-04	5.537042276e-12
-1.350000000e-02	1.896538566e-01	-2.639135905e-04	2.603414353e-11
-1.360000000e-02	1.896538544e-01	-2.619852914e-04	8.565241245e-12
-1.370000000e-02	1.896538521e-01	-2.600569925e-04	1.515313136e-11
-1.380000000e-02	1.896538497e-01	-2.581286937e-04	7.192692140e-12
-1.390000000e-02	1.896538473e-01	-2.562003951e-04	6.528032426e-12
-1.400000000e-02	1.896538448e-01	-2.542720967e-04	1.591076421e-11
-1.410000000e-02	1.896538423e-01	-2.523437985e-04	1.237315803e-11
-1.420000000e-02	1.896538397e-01	-2.504155004e-04	6.574742615e-12
-1.430000000e-02	1.896538371e-01	-2.484872025e-04	1.740100181e-11
-1.440000000e-02	1.896538344e-01	-2.465589048e-04	1.078988039e-11
-1.450000000e-02	1.896538316e-01	-2.446306073e-04	3.258867984e-11
-1.460000000e-02	1.896538288e-01	-2.427023100e-04	1.946265012e-11
-1.470000000e-02	1.896538259e-01	-2.407740129e-04	8.972672788e-12
-1.480000000e-02	1.896538230e-01	-2.388457160e-04	7.642806365e-11
-1.490000000e-02	1.896538200e-01	-2.369174193e-04	6.552982872e-12
-1.500000000e-02	1.896538169e-01	-2.349891228e-04	1.249158069e-11
-1.510000000e-02	1.896538138e-01	-2.330608265e-04	2.040314739e-11
-1.520000000e-02	1.896538106e-01	-2.311325305e-04	1.655623183e-11
-1.530000000e-02	1.896538074e-01	-2.292042346e-04	9.746093192e-12
-1.540000000e-02	1.896538041e-01	-2.272759389e-04	8.514769939e-12
-1.550000000e-02	1.896538007e-01	-2.253476435e-04	2.333204361e-11
-1.560000000e-02	1.896537973e-01	-2.234193483e-04	4.814652390e-11
-1.570000000e-02	1.896537938e-01	-2.214910533e-04	1.343335990e-11
-1.580000000e-02	1.896537903e-01	-2.195627586e-04	2.165247040e-11
-1.590000000e-02	1.896537867e-01	-2.176344640e-04	7.149955209e-11
-1.600000000e-02	1.896537831e-01	-2.157061698e-04	1.327146684e-11
-1.610000000e-02	1.896537794e-01	-2.137778757e-04	6.551928928e-12
-1.620000000e-02	1.896537756e-01	-2.118495819e-04	3.257902420e-11
-1.630000000e-02	1.896537718e-01	-2.099212883e-04	1.287361683e-11
-1.640000000e-02	1.896537679e-01	-2.079929950e-04	1.511639683e-11
-1.650000000e-02	1.896537639e-01	-2.060647020e-04	1.669271632e-11
-1.660000000e-02	1.896537599e-01	-2.041364091e-04	2.131987193e-11
-1.670000000e-02	1.896537559e-01	-2.022081166e-04	2.363423686e-11
-1.680000000e-02	1.896537518e-01	-2.002798243e-04	1.743615521e-11
-1.690000000e-02	1.896537476e-01	-1.983515322e-04	2.303788692e-11
-1.700000000e-02	1.896537434e-01	-1.964232405e-04	1.676762696e-11
-1.710000000e-02	1.896537391e-01	-1.944949490e-04	8.111561220e-12
-1.720000000e-02	1.896537347e-01	-1.925666577e-04	2.394946842e-11
-1.730000000e-02	1.896537303e-01	-1.906383668e-04	1.747515736e-11
-1.740000000e-02	1.896537258e-01	-1.887100761e-04	9.779196252e-12
-1.750000000e-02	1.896537213e-01	-1.867817857e-04	2.191815358e-11
-1.760000000e-02	1.896537167e-01	-1.848534955e-04	7.503000794e-12
-1.770000000e-02	1.896537121e-01	-1.829252057e-04	1.394538461e-11
-1.780000000e-02	1.896537074e-01	-1.809969162e-04	9.770796938e-12
-1.790000000e-02	1.896537026e-01	-1.790686269e-04	2.220064818e-11
-1.800000000e-02	1.896536978e-01	-1.771403379e-04	1.445186523e-11
-1.810000000e-02	1.896536929e-01	-1.752120493e-04	1.320138030e-10
-1.820000000e-02	1.896536880e-01	-1.732837609e-04	4.275684831e-11
-1.830000000e-02	1.896536830e-01	-1.713554728e-04	1.635228212e-11
-1.840000000e-02	1.896536779e-01	-1.694271851e-04	1.223364652e-11
-1.850000000e-02	1.896536728e-01	-1.674988976e-04	8.438774627e-12
-1.860000000e-02	1.896536676e-01	-1.655706105e-04	1.301025147e-11
-1.870000000e-02	1.896536624e-01	-1.636423237e-04	1.117825029e-11
-1.880000000e-02	1.896536571e-01	-1.617140372e-04	1.771567280e-11
-1.890000000e-02	1.896536517e-01	-1.597857510e-04	1.653026911e-11
-1.900000000e-02	1.896536463e-01	-1.578574652e-04	1.505742344e-11
-1.910000000e-02	1.896536408e-01	-1.559291796e-04	1.333425671e-11
-1.920000000e-02	1.896536353e-01	-1.540008944e-04	5.167290976e-12
-1.930000000e-02	1.896536297e-01	-1.520726096e-04	1.676540113e-11
-1.940000000e-02	1.896536241e-01	-1.501443250e-04	1.161584694e-11
-1.950000000e-02	1.896536184e-01	-1.482160408e-04	2.393524449e-11
-1.960000000e-02	1.896536126e-01	-1.462877570e-04	2.647439497e-11
-1.970000000e-02	1.896536068e-01	-1.443594735e-04	4.293831175e-11
-1.980000000e-02	1.896536009e-01	-1.424311903e-04	1.989575226e-11
-1.990000000e-02	1.896535950e-01	-1.405029075e-04	1.356295019e-11
-2.000000000e-02	1.896535890e-01	-1.385746251e-04	9.955782315e-12
-2.010000000e-02	1.896535829e-01	-1.366463430e-04	1.385456388e-11
-2.020000000e-02	1.896535768e-01	-1.347180613e-04	1.016312224e-11
-2.030000000e-02	1.896535706e-01	-1.327897799e-04	2.492948887e-11
-2.040000000e-02	1.896535644e-01	-1.308614989e-04	1.813116717e-11
-2.050000000e-02	1.896535581e-01	-1.289332183e-04	1.159958745e-11
-2.060000000e-02	1.896535518e-01	-1.270049380e-04	9.897963565e-12
-2.070000000e-02	1.896535453e-01	-1.250766581e-04	6.718691999e-12
-2.080000000e-02	1.896535389e-01	-1.231483786e-04	1.470576460e-11
-2.090000000e-02	1.896535324e-01	-1.212200995e-04	2.583472425e-11
-2.100000000e-02	1.896535258e-01	-1.192918207e-04	1.332097446e-11
-2.110000000e-02	1.896535191e-01	-1.173635424e-04	2.176270164e-11
-2.120000000e-02	1.896535124e-01	-1.154352644e-04	8.144442034e-12
-2.130000000e-02	1.896535057e-01	-1.135069868e-04	8.130206519e-12
-2.140000000e-02	1.896534988e-01	-1.115787097e-04	1.895731974e-11
-2.150000000e-02	1.896534920e-01	-1.096504329e-04	5.296744781e-12
-2.160000000e-02	1.896534850e-01	-1.077221565e-04	1.676776441e-11
-2.170000000e-02	1.896534780e-01	-1.057938805e-04	1.053056185e-11
-2.180000000e-02	1.896534710e-01	-1.038656050e-04	1.536554971e-11
-2.190000000e-02	1.896534639e-01	-1.019373298e-04	1.652641807e-11
-2.200000000e-02	1.896534567e-01	-1.000090551e-04	5.047214065e-12
-2.210000000e-02	1.896534494e-01	-9.808078075e-05	3.197550739e-11
-2.220000000e-02	1.896534422e-01	-9.615250684e-05	1.728786427e-11
-2.230000000e-02	1.896534348e-01	-9.422423336e-05	1.892592616e-11
-2.240000000e-02	1.896534274e-01	-9.229596030e-05	1.394467779e-11
-2.250000000e-02	1.896534199e-01	-9.036768767e-05	9.751256350e-12
-2.260000000e-02	1.896534124e-01	-8.843941547e-05	3.181092791e-11
-2.270000000e-02	1.896534048e-01	-8.651114372e-05	8.021975773e-12
-2.280000000e-02	1.896533972e-01	-8.458287239e-05	1.142406381e-11
-2.290000000e-02	1.896533895e-01	-8.265460151e-05	1.007219876e-11
-2.300000000e-02	1.896533817e-01	-8.072633107e-05	9.696206759e-12
-2.310000000e-02	1.896533739e-01	-7.879806108e-05	1.106473167e-11
-2.320000000e-02	1.896533660e-01	-7.686979154e-05	5.557604513e-11
-2.330000000e-02	1.896533581e-01	-7.494152244e-05	4.862102268e-12
-2.340000000e-02	1.896533501e-01	-7.301325381e-05	3.129653948e-11
-2.350000000e-02	1.896533420e-01	-7.108498563e-05	1.451598106e-11
-2.360000000e-02	1.896533339e-01	-6.915671792e-05	1.383699957e-11
-2.370000000e-02	1.896533257e-01	-6.722845066e-05	1.437084323e-11
-2.380000000e-02	1.896533175e-01	-6.530018388e-05	1.028810000e-11
-2.390000000e-02	1.896533092e-01	-6.337191757e-05	9.524864083e-12
-2.400000000e-02	1.896533009e-01	-6.144365173e-05	1.663924793e-11
-2.410000000e-02	1.896532925e-01	-5.951538637e-05	1.274951091e-11
-2.420000000e-02	1.896532840e-01	-5.758712148e-05	7.078785267e-12
-2.430000000e-02	1.896532755e-01	-5.565885708e-05	1.207636454e-11
-2.440000000e-02	1.896532669e-01	-5.373059316e-05	1.159343541e-11
-2.450000000e-02	1.896532582e-01	-5.180232973e-05	1.455739705e-10
-2.460000000e-02	1.896532495e-01	-4.987406680e-05	1.670666258e-11
-2.470000000e-02	1.896532408e-01	-4.794580436e-05	1.067076641e-11
-2.480000000e-02	1.896532320e-01	-4.601754241e-05	6.809481826e-12
-2.490000000e-02	1.896532231e-01	-4.408928097e-05	1.259853549e-11
-2.500000000e-02	1.896532142e-01	-4.216102002e-05	8.456978050e-12
-2.510000000e-02	1.896532052e-01	-4.023275959e-05	6.234018187e-11
-2.520000000e-02	1.896531961e-01	-3.830449966e-05	5.131112741e-12
-2.530000000e-02	1.896531870e-01	-3.637624025e-05	7.213100485e-12
-2.540000000e-02	1.896531778e-01	-3.444798135e-05	3.125004355e-11
-2.550000000e-02	1.896531686e-01	-3.251972297e-05	1.562890711e-11
-2.560000000e-02	1.896531593e-01	-3.059146511e-05	1.329708608e-11
-2.570000000e-02	1.896531500e-01	-2.866320777e-05	1.210552318e-11
-2.580000000e-02	1.896531406e-01	-2.673495096e-05	1.263623877e-11
-2.590000000e-02	1.896531311e-01	-2.480669468e-05	1.569895732e-11
-2.600000000e-02	1.896531216e-01	-2.287843894e-05	1.141074931e-11
-2.610000000e-02	1.896531120e-01	-2.095018373e-05	1.027791616e-11
-2.620000000e-02	1.896531023e-01	-1.902192905e-05	3.174341797e-11
-2.630000000e-02	1.896530926e-01	-1.709367493e-05	8.368862005e-12
-2.640000000e-02	1.896530829e-01	-1.516542134e-05	2.026335752e-11
-2.650000000e-02	1.896530731e-01	-1.323716831e-05	8.593336025e-12
-2.660000000e-02	1.896530632e-01	-1.130891582e-05	1.316113405e-11
-2.670000000e-02	1.896530533e-01	-9.380663888e-06	1.292630756e-11
-2.680000000e-02	1.896530433e-01	-7.452412514e-06	1.449235138e-11
-2.690000000e-02	1.896530332e-01	-5.524161703e-06	2.615959292e-11
-2.700000000e-02	1.896530231e-01	-3.595911451e-06	1.361327794e-11
-2.710000000e-02	1.896530129e-01	-1.667661763e-06	5.716863437e-12
-2.720000000e-02	1.896530027e-01	2.605873527e-07	1.534355247e-11
-2.730000000e-02	1.896529924e-01	2.188835899e-06	1.480778197e-11
-2.740000000e-02	1.896529821e-01	4.117083871e-06	1.428410492e-11
-2.750000000e-02	1.896529717e-01	6.045331264e-06	4.135864311e-11
-2.760000000e-02	1.896529612e-01	7.973578074e-06	7.855570690e-12
-2.770000000e-02	1.896529507e-01	9.901824303e-06	2.233222865e-12
-2.780000000e-02	1.896529401e-01	1.183006995e-05	1.410489901e-11
-2.790000000e-02	1.896529294e-01	1.375831500e-05	1.138048357e-11
-2.800000000e-02	1.896529187e-01	1.568655946e-05	1.164711214e-11
-2.810000000e-02	1.896529080e-01	1.761480332e-05	1.106106880e-11
-2.820000000e-02	1.896528972e-01	1.954304659e-05	6.389136127e-12
-2.830000000e-02	1.896528863e-01	2.147128925e-05	4.234524298e-12
-2.840000000e-02	1.896528754e-01	2.339953131e-05	9.644656003e-12
-2.850000000e-02	1.896528644e-01	2.532777276e-05	2.924494558e-11
-2.860000000e-02	1.896528533e-01	2.725601360e-05	6.593615005e-12
-2.870000000e-02	1.896528422e-01	2.918425383e-05	1.552319864e-11
-2.880000000e-02	1.896528310e-01	3.111249344e-05	5.570273773e-12
-2.890000000e-02	1.896528198e-01	3.304073243e-05	1.145527779e-11
-2.900000000e-02	1.896528085e-01	3.496897079e-05	3.604970638e-11
-2.910000000e-02	1.896527972e-01	3.689720854e-05	1.850883756e-11
-2.920000000e-02	1.896527858e-01	3.882544566e-05	1.054644781e-11
-2.930000000e-02	1.896527743e-01	4.075368214e-05	1.668891647e-11
-2.940000000e-02	1.896527628e-01	4.268191799e-05	1.773701416e-11
-2.950000000e-02	1.896527512e-01	4.461015320e-05	2.509819543e-11
-2.960000000e-02	1.896527396e-01	4.653838777e-05	1.609278324e-11
-2.970000000e-02	1.896527279e-01	4.846662170e-05	1.262645822e-11
-2.980000000e-02	1.896527161e-01	5.039485498e-05	2.845006251e-11
-2.990000000e-02	1.896527043e-01	5.232308761e-05	9.028199000e-12
-3.000000000e-02	1.896526924e-01	5.425131959e-05	1.080058786e-11
