# Im(epsi1)     Re(omega/c)      Im(omega/c)      Eq(det).Opt det CON kz, R=0.5 \mum, mu_c=0.3, Re(epsi1)=3.90solve_det_conkz_vs_kz.py
0.000000000e+00	1.896769303e-01	-5.242776967e-04	1.921056584e-11
-1.000000000e-04	1.896769360e-01	-5.223492880e-04	1.967767435e-11
-2.000000000e-04	1.896769417e-01	-5.204208791e-04	3.575290639e-12
-3.000000000e-04	1.896769473e-01	-5.184924699e-04	2.114895644e-12
-4.000000000e-04	1.896769528e-01	-5.165640604e-04	1.845298931e-11
-5.000000000e-04	1.896769582e-01	-5.146356508e-04	5.855399760e-12
-6.000000000e-04	1.896769636e-01	-5.127072409e-04	1.527347385e-11
-7.000000000e-04	1.896769690e-01	-5.107788308e-04	1.348169108e-11
-8.000000000e-04	1.896769743e-01	-5.088504205e-04	1.704929981e-11
-9.000000000e-04	1.896769795e-01	-5.069220100e-04	1.437556036e-11
-1.000000000e-03	1.896769847e-01	-5.049935993e-04	1.961928492e-11
-1.100000000e-03	1.896769898e-01	-5.030651883e-04	2.505916278e-11
-1.200000000e-03	1.896769948e-01	-5.011367772e-04	9.734153525e-12
-1.300000000e-03	1.896769998e-01	-4.992083658e-04	2.067250139e-11
-1.400000000e-03	1.896770047e-01	-4.972799542e-04	3.693406422e-11
-1.500000000e-03	1.896770096e-01	-4.953515425e-04	2.014981028e-11
-1.600000000e-03	1.896770144e-01	-4.934231305e-04	6.095713773e-12
-1.700000000e-03	1.896770192e-01	-4.914947184e-04	8.775051896e-12
-1.800000000e-03	1.896770239e-01	-4.895663061e-04	1.357337720e-11
-1.900000000e-03	1.896770285e-01	-4.876378935e-04	1.348503886e-11
-2.000000000e-03	1.896770331e-01	-4.857094808e-04	1.172534162e-11
-2.100000000e-03	1.896770376e-01	-4.837810680e-04	1.398324613e-11
-2.200000000e-03	1.896770421e-01	-4.818526549e-04	2.644667652e-11
-2.300000000e-03	1.896770465e-01	-4.799242417e-04	6.222852356e-12
-2.400000000e-03	1.896770508e-01	-4.779958283e-04	1.447148403e-11
-2.500000000e-03	1.896770551e-01	-4.760674147e-04	6.391463650e-12
-2.600000000e-03	1.896770594e-01	-4.741390010e-04	7.816468085e-12
-2.700000000e-03	1.896770635e-01	-4.722105871e-04	1.088491732e-11
-2.800000000e-03	1.896770676e-01	-4.702821730e-04	2.726988298e-11
-2.900000000e-03	1.896770717e-01	-4.683537588e-04	8.562542919e-11
-3.000000000e-03	1.896770757e-01	-4.664253444e-04	1.275525153e-11
-3.100000000e-03	1.896770796e-01	-4.644969299e-04	1.718377989e-11
-3.200000000e-03	1.896770835e-01	-4.625685153e-04	1.757919411e-11
-3.300000000e-03	1.896770873e-01	-4.606401004e-04	1.028587086e-11
-3.400000000e-03	1.896770911e-01	-4.587116855e-04	2.971556260e-11
-3.500000000e-03	1.896770948e-01	-4.567832704e-04	9.472379343e-12
-3.600000000e-03	1.896770984e-01	-4.548548552e-04	7.701785264e-12
-3.700000000e-03	1.896771020e-01	-4.529264398e-04	1.784070009e-11
-3.800000000e-03	1.896771055e-01	-4.509980244e-04	1.883169561e-11
-3.900000000e-03	1.896771090e-01	-4.490696088e-04	9.717449107e-12
-4.000000000e-03	1.896771124e-01	-4.471411930e-04	1.328435961e-11
-4.100000000e-03	1.896771157e-01	-4.452127772e-04	8.455830465e-12
-4.200000000e-03	1.896771190e-01	-4.432843612e-04	5.835238490e-12
-4.300000000e-03	1.896771222e-01	-4.413559451e-04	1.381023595e-11
-4.400000000e-03	1.896771254e-01	-4.394275289e-04	1.652357644e-11
-4.500000000e-03	1.896771285e-01	-4.374991126e-04	3.879854784e-11
-4.600000000e-03	1.896771316e-01	-4.355706962e-04	1.675910448e-11
-4.700000000e-03	1.896771346e-01	-4.336422797e-04	1.363259034e-11
-4.800000000e-03	1.896771375e-01	-4.317138631e-04	2.072709268e-11
-4.900000000e-03	1.896771404e-01	-4.297854464e-04	9.285234959e-12
-5.000000000e-03	1.896771432e-01	-4.278570296e-04	4.407781559e-11
-5.100000000e-03	1.896771460e-01	-4.259286127e-04	6.003910319e-12
-5.200000000e-03	1.896771487e-01	-4.240001958e-04	1.383387055e-11
-5.300000000e-03	1.896771513e-01	-4.220717787e-04	1.620477051e-11
-5.400000000e-03	1.896771539e-01	-4.201433616e-04	4.694177367e-11
-5.500000000e-03	1.896771564e-01	-4.182149443e-04	1.016071302e-11
-5.600000000e-03	1.896771589e-01	-4.162865271e-04	7.078229956e-12
-5.700000000e-03	1.896771613e-01	-4.143581097e-04	2.632971581e-11
-5.800000000e-03	1.896771636e-01	-4.124296923e-04	1.289265186e-11
-5.900000000e-03	1.896771659e-01	-4.105012748e-04	7.193000854e-12
-6.000000000e-03	1.896771681e-01	-4.085728572e-04	1.441458683e-11
-6.100000000e-03	1.896771703e-01	-4.066444396e-04	1.241740222e-11
-6.200000000e-03	1.896771724e-01	-4.047160219e-04	1.665235627e-11
-6.300000000e-03	1.896771745e-01	-4.027876041e-04	1.467803405e-11
-6.400000000e-03	1.896771765e-01	-4.008591864e-04	1.652265394e-11
-6.500000000e-03	1.896771784e-01	-3.989307685e-04	1.112300704e-11
-6.600000000e-03	1.896771803e-01	-3.970023506e-04	1.066248707e-11
-6.700000000e-03	1.896771821e-01	-3.950739327e-04	1.745457993e-11
-6.800000000e-03	1.896771839e-01	-3.931455147e-04	8.548925936e-12
-6.900000000e-03	1.896771856e-01	-3.912170967e-04	8.685854405e-12
-7.000000000e-03	1.896771872e-01	-3.892886787e-04	2.877909331e-11
-7.100000000e-03	1.896771888e-01	-3.873602606e-04	5.194506324e-12
-7.200000000e-03	1.896771903e-01	-3.854318425e-04	1.601067551e-11
-7.300000000e-03	1.896771918e-01	-3.835034244e-04	8.585076869e-12
-7.400000000e-03	1.896771932e-01	-3.815750063e-04	1.928521426e-11
-7.500000000e-03	1.896771945e-01	-3.796465881e-04	6.545770061e-12
-7.600000000e-03	1.896771958e-01	-3.777181700e-04	9.251951806e-12
-7.700000000e-03	1.896771971e-01	-3.757897518e-04	9.105282222e-12
-7.800000000e-03	1.896771982e-01	-3.738613336e-04	1.874208484e-11
-7.900000000e-03	1.896771993e-01	-3.719329154e-04	9.528281215e-12
-8.000000000e-03	1.896772004e-01	-3.700044972e-04	8.168575419e-12
-8.100000000e-03	1.896772014e-01	-3.680760790e-04	1.017725661e-11
-8.200000000e-03	1.896772023e-01	-3.661476607e-04	1.110198611e-11
-8.300000000e-03	1.896772032e-01	-3.642192425e-04	2.714206166e-11
-8.400000000e-03	1.896772040e-01	-3.622908244e-04	5.396364697e-12
-8.500000000e-03	1.896772048e-01	-3.603624062e-04	1.255223388e-11
-8.600000000e-03	1.896772055e-01	-3.584339880e-04	5.451646348e-12
-8.700000000e-03	1.896772061e-01	-3.565055699e-04	8.926960304e-12
-8.800000000e-03	1.896772067e-01	-3.545771517e-04	4.488842224e-11
-8.900000000e-03	1.896772072e-01	-3.526487336e-04	1.155769290e-11
-9.000000000e-03	1.896772077e-01	-3.507203155e-04	1.180664041e-11
-9.100000000e-03	1.896772081e-01	-3.487918975e-04	1.129942763e-11
-9.200000000e-03	1.896772085e-01	-3.468634795e-04	1.627289293e-11
-9.300000000e-03	1.896772087e-01	-3.449350615e-04	1.150981533e-11
-9.400000000e-03	1.896772090e-01	-3.430066435e-04	7.338945234e-12
-9.500000000e-03	1.896772092e-01	-3.410782256e-04	1.309829970e-11
-9.600000000e-03	1.896772093e-01	-3.391498078e-04	1.589726592e-11
-9.700000000e-03	1.896772093e-01	-3.372213899e-04	1.148959616e-11
-9.800000000e-03	1.896772093e-01	-3.352929722e-04	1.151575797e-11
-9.900000000e-03	1.896772093e-01	-3.333645545e-04	1.016981531e-11
-1.000000000e-02	1.896772091e-01	-3.314361368e-04	3.272875881e-11
-1.010000000e-02	1.896772090e-01	-3.295077192e-04	2.384453300e-11
-1.020000000e-02	1.896772087e-01	-3.275793017e-04	9.174228015e-12
-1.030000000e-02	1.896772084e-01	-3.256508842e-04	3.225299525e-11
-1.040000000e-02	1.896772081e-01	-3.237224668e-04	9.803378795e-12
-1.050000000e-02	1.896772077e-01	-3.217940495e-04	1.599592485e-11
-1.060000000e-02	1.896772072e-01	-3.198656322e-04	1.231167231e-11
-1.070000000e-02	1.896772066e-01	-3.179372150e-04	6.560265945e-11
-1.080000000e-02	1.896772061e-01	-3.160087979e-04	6.046963464e-12
-1.090000000e-02	1.896772054e-01	-3.140803809e-04	4.956221650e-12
-1.100000000e-02	1.896772047e-01	-3.121519640e-04	2.837902635e-11
-1.110000000e-02	1.896772039e-01	-3.102235471e-04	1.258099312e-11
-1.120000000e-02	1.896772031e-01	-3.082951304e-04	7.751470637e-12
-1.130000000e-02	1.896772022e-01	-3.063667137e-04	1.268590265e-11
-1.140000000e-02	1.896772013e-01	-3.044382971e-04	6.950153238e-12
-1.150000000e-02	1.896772003e-01	-3.025098807e-04	6.011197735e-12
-1.160000000e-02	1.896771992e-01	-3.005814643e-04	2.747085650e-11
-1.170000000e-02	1.896771981e-01	-2.986530481e-04	9.415784961e-11
-1.180000000e-02	1.896771969e-01	-2.967246319e-04	1.324591414e-11
-1.190000000e-02	1.896771957e-01	-2.947962159e-04	1.905065390e-11
-1.200000000e-02	1.896771944e-01	-2.928678000e-04	5.903241511e-12
-1.210000000e-02	1.896771930e-01	-2.909393842e-04	1.578042212e-11
-1.220000000e-02	1.896771916e-01	-2.890109685e-04	7.191641950e-12
-1.230000000e-02	1.896771901e-01	-2.870825530e-04	1.131542542e-11
-1.240000000e-02	1.896771886e-01	-2.851541375e-04	1.883641167e-11
-1.250000000e-02	1.896771870e-01	-2.832257222e-04	9.469415826e-12
-1.260000000e-02	1.896771854e-01	-2.812973071e-04	2.334833866e-11
-1.270000000e-02	1.896771837e-01	-2.793688921e-04	2.075896609e-11
-1.280000000e-02	1.896771819e-01	-2.774404772e-04	8.018060039e-12
-1.290000000e-02	1.896771801e-01	-2.755120624e-04	1.358364761e-11
-1.300000000e-02	1.896771782e-01	-2.735836478e-04	9.579331157e-12
-1.310000000e-02	1.896771762e-01	-2.716552334e-04	5.722052419e-11
-1.320000000e-02	1.896771742e-01	-2.697268191e-04	6.091271032e-12
-1.330000000e-02	1.896771722e-01	-2.677984050e-04	3.197715766e-11
-1.340000000e-02	1.896771701e-01	-2.658699910e-04	7.685796003e-11
-1.350000000e-02	1.896771679e-01	-2.639415772e-04	2.054237664e-11
-1.360000000e-02	1.896771656e-01	-2.620131635e-04	5.492385649e-12
-1.370000000e-02	1.896771633e-01	-2.600847500e-04	1.520793245e-11
-1.380000000e-02	1.896771610e-01	-2.581563367e-04	9.078799892e-12
-1.390000000e-02	1.896771586e-01	-2.562279235e-04	1.118930642e-11
-1.400000000e-02	1.896771561e-01	-2.542995105e-04	1.076981816e-11
-1.410000000e-02	1.896771536e-01	-2.523710977e-04	2.641861541e-11
-1.420000000e-02	1.896771510e-01	-2.504426851e-04	4.159388440e-11
-1.430000000e-02	1.896771483e-01	-2.485142727e-04	7.716353080e-12
-1.440000000e-02	1.896771456e-01	-2.465858604e-04	2.656056663e-11
-1.450000000e-02	1.896771429e-01	-2.446574484e-04	2.693634112e-11
-1.460000000e-02	1.896771400e-01	-2.427290365e-04	5.952003116e-12
-1.470000000e-02	1.896771372e-01	-2.408006248e-04	8.137208338e-12
-1.480000000e-02	1.896771342e-01	-2.388722134e-04	6.681549166e-12
-1.490000000e-02	1.896771312e-01	-2.369438021e-04	1.780098514e-11
-1.500000000e-02	1.896771282e-01	-2.350153910e-04	1.353606082e-11
-1.510000000e-02	1.896771250e-01	-2.330869802e-04	6.584232366e-12
-1.520000000e-02	1.896771219e-01	-2.311585695e-04	1.124221463e-11
-1.530000000e-02	1.896771186e-01	-2.292301591e-04	1.214529844e-11
-1.540000000e-02	1.896771153e-01	-2.273017489e-04	1.440307556e-11
-1.550000000e-02	1.896771120e-01	-2.253733389e-04	1.988161524e-11
-1.560000000e-02	1.896771086e-01	-2.234449291e-04	1.840832304e-11
-1.570000000e-02	1.896771051e-01	-2.215165196e-04	2.497693291e-11
-1.580000000e-02	1.896771016e-01	-2.195881103e-04	1.647900052e-11
-1.590000000e-02	1.896770980e-01	-2.176597012e-04	9.471875421e-12
-1.600000000e-02	1.896770943e-01	-2.157312923e-04	1.311051038e-11
-1.610000000e-02	1.896770906e-01	-2.138028837e-04	1.069476526e-11
-1.620000000e-02	1.896770869e-01	-2.118744754e-04	9.470353983e-12
-1.630000000e-02	1.896770830e-01	-2.099460672e-04	9.836965939e-12
-1.640000000e-02	1.896770792e-01	-2.080176594e-04	6.246117853e-12
-1.650000000e-02	1.896770752e-01	-2.060892517e-04	2.275585528e-11
-1.660000000e-02	1.896770712e-01	-2.041608443e-04	1.708653588e-11
-1.670000000e-02	1.896770672e-01	-2.022324372e-04	2.269597486e-11
-1.680000000e-02	1.896770630e-01	-2.003040304e-04	1.038057742e-11
-1.690000000e-02	1.896770589e-01	-1.983756238e-04	1.578376024e-11
-1.700000000e-02	1.896770546e-01	-1.964472174e-04	9.713459717e-12
-1.710000000e-02	1.896770503e-01	-1.945188113e-04	1.519710939e-11
-1.720000000e-02	1.896770460e-01	-1.925904055e-04	2.596241202e-11
-1.730000000e-02	1.896770416e-01	-1.906620000e-04	7.573006543e-12
-1.740000000e-02	1.896770371e-01	-1.887335948e-04	1.747476598e-11
-1.750000000e-02	1.896770326e-01	-1.868051898e-04	7.855391067e-12
-1.760000000e-02	1.896770280e-01	-1.848767851e-04	1.334661886e-11
-1.770000000e-02	1.896770233e-01	-1.829483807e-04	6.563043630e-11
-1.780000000e-02	1.896770186e-01	-1.810199766e-04	1.008811644e-10
-1.790000000e-02	1.896770139e-01	-1.790915728e-04	6.480799870e-12
-1.800000000e-02	1.896770091e-01	-1.771631693e-04	1.715822959e-11
-1.810000000e-02	1.896770042e-01	-1.752347660e-04	1.251975521e-11
-1.820000000e-02	1.896769992e-01	-1.733063631e-04	3.129398353e-11
-1.830000000e-02	1.896769942e-01	-1.713779605e-04	1.878472805e-11
-1.840000000e-02	1.896769892e-01	-1.694495581e-04	4.908442752e-12
-1.850000000e-02	1.896769841e-01	-1.675211561e-04	1.770206403e-11
-1.860000000e-02	1.896769789e-01	-1.655927544e-04	1.720113773e-11
-1.870000000e-02	1.896769737e-01	-1.636643531e-04	9.222095676e-12
-1.880000000e-02	1.896769684e-01	-1.617359520e-04	1.287829273e-11
-1.890000000e-02	1.896769630e-01	-1.598075512e-04	6.513741786e-12
-1.900000000e-02	1.896769576e-01	-1.578791508e-04	1.003237155e-11
-1.910000000e-02	1.896769521e-01	-1.559507507e-04	1.717607455e-11
-1.920000000e-02	1.896769466e-01	-1.540223510e-04	2.870509833e-11
-1.930000000e-02	1.896769410e-01	-1.520939515e-04	8.974039409e-12
-1.940000000e-02	1.896769354e-01	-1.501655524e-04	2.298022922e-11
-1.950000000e-02	1.896769297e-01	-1.482371537e-04	1.417397309e-11
-1.960000000e-02	1.896769239e-01	-1.463087553e-04	1.572878381e-11
-1.970000000e-02	1.896769181e-01	-1.443803572e-04	1.209342217e-11
-1.980000000e-02	1.896769122e-01	-1.424519595e-04	9.777589915e-12
-1.990000000e-02	1.896769063e-01	-1.405235621e-04	6.252408150e-12
-2.000000000e-02	1.896769003e-01	-1.385951651e-04	1.868754739e-11
-2.010000000e-02	1.896768942e-01	-1.366667685e-04	1.184089234e-11
-2.020000000e-02	1.896768881e-01	-1.347383722e-04	8.600202650e-12
-2.030000000e-02	1.896768819e-01	-1.328099762e-04	7.931659306e-12
-2.040000000e-02	1.896768757e-01	-1.308815807e-04	1.373405715e-11
-2.050000000e-02	1.896768694e-01	-1.289531855e-04	1.825406187e-11
-2.060000000e-02	1.896768630e-01	-1.270247906e-04	1.835046807e-11
-2.070000000e-02	1.896768566e-01	-1.250963962e-04	1.950903138e-11
-2.080000000e-02	1.896768502e-01	-1.231680021e-04	7.162603037e-12
-2.090000000e-02	1.896768436e-01	-1.212396084e-04	5.754017587e-11
-2.100000000e-02	1.896768371e-01	-1.193112151e-04	1.896061782e-11
-2.110000000e-02	1.896768304e-01	-1.173828222e-04	7.811667562e-12
-2.120000000e-02	1.896768237e-01	-1.154544297e-04	9.718580353e-12
-2.130000000e-02	1.896768170e-01	-1.135260375e-04	2.242116449e-11
-2.140000000e-02	1.896768101e-01	-1.115976458e-04	1.170023070e-11
-2.150000000e-02	1.896768033e-01	-1.096692544e-04	2.082160981e-11
-2.160000000e-02	1.896767963e-01	-1.077408635e-04	1.110639892e-10
-2.170000000e-02	1.896767893e-01	-1.058124729e-04	1.116400364e-10
-2.180000000e-02	1.896767823e-01	-1.038840828e-04	1.252039644e-11
-2.190000000e-02	1.896767751e-01	-1.019556931e-04	1.192832850e-11
-2.200000000e-02	1.896767680e-01	-1.000273038e-04	3.461286093e-11
-2.210000000e-02	1.896767607e-01	-9.809891491e-05	1.562709614e-11
-2.220000000e-02	1.896767535e-01	-9.617052644e-05	1.672226719e-11
-2.230000000e-02	1.896767461e-01	-9.424213839e-05	3.222817957e-11
-2.240000000e-02	1.896767387e-01	-9.231375077e-05	1.262925398e-11
-2.250000000e-02	1.896767312e-01	-9.038536358e-05	1.214190737e-11
-2.260000000e-02	1.896767237e-01	-8.845697682e-05	1.147588468e-11
-2.270000000e-02	1.896767161e-01	-8.652859049e-05	7.882108880e-12
-2.280000000e-02	1.896767085e-01	-8.460020460e-05	3.167969404e-11
-2.290000000e-02	1.896767008e-01	-8.267181915e-05	2.836660184e-11
-2.300000000e-02	1.896766930e-01	-8.074343415e-05	3.256659734e-11
-2.310000000e-02	1.896766852e-01	-7.881504959e-05	2.213344776e-11
-2.320000000e-02	1.896766773e-01	-7.688666548e-05	1.514098056e-11
-2.330000000e-02	1.896766694e-01	-7.495828183e-05	1.132499748e-11
-2.340000000e-02	1.896766614e-01	-7.302989863e-05	1.948071370e-11
-2.350000000e-02	1.896766533e-01	-7.110151588e-05	1.963470908e-11
-2.360000000e-02	1.896766452e-01	-6.917313360e-05	9.581379129e-12
-2.370000000e-02	1.896766370e-01	-6.724475178e-05	8.529341530e-12
-2.380000000e-02	1.896766288e-01	-6.531637043e-05	1.375432502e-11
-2.390000000e-02	1.896766205e-01	-6.338798955e-05	3.853992843e-11
-2.400000000e-02	1.896766122e-01	-6.145960915e-05	8.645783030e-12
-2.410000000e-02	1.896766038e-01	-5.953122922e-05	5.414388366e-12
-2.420000000e-02	1.896765953e-01	-5.760284977e-05	7.357923907e-12
-2.430000000e-02	1.896765868e-01	-5.567447080e-05	8.608981269e-12
-2.440000000e-02	1.896765782e-01	-5.374609232e-05	1.717338820e-11
-2.450000000e-02	1.896765696e-01	-5.181771432e-05	2.467335309e-11
-2.460000000e-02	1.896765609e-01	-4.988933682e-05	1.639370451e-11
-2.470000000e-02	1.896765521e-01	-4.796095981e-05	7.917655455e-12
-2.480000000e-02	1.896765433e-01	-4.603258330e-05	7.126077654e-12
-2.490000000e-02	1.896765344e-01	-4.410420729e-05	1.038575106e-11
-2.500000000e-02	1.896765255e-01	-4.217583178e-05	1.268141891e-11
-2.510000000e-02	1.896765165e-01	-4.024745678e-05	1.974071959e-11
-2.520000000e-02	1.896765074e-01	-3.831908229e-05	1.074640346e-11
-2.530000000e-02	1.896764983e-01	-3.639070831e-05	9.817393912e-12
-2.540000000e-02	1.896764891e-01	-3.446233484e-05	2.964461139e-11
-2.550000000e-02	1.896764799e-01	-3.253396189e-05	1.000012878e-11
-2.560000000e-02	1.896764706e-01	-3.060558946e-05	6.785985608e-12
-2.570000000e-02	1.896764613e-01	-2.867721756e-05	1.265094102e-11
-2.580000000e-02	1.896764519e-01	-2.674884619e-05	4.692533862e-12
-2.590000000e-02	1.896764424e-01	-2.482047534e-05	1.108387013e-11
-2.600000000e-02	1.896764329e-01	-2.289210503e-05	1.239278443e-11
-2.610000000e-02	1.896764233e-01	-2.096373525e-05	2.005535950e-11
-2.620000000e-02	1.896764137e-01	-1.903536601e-05	6.245459646e-11
-2.630000000e-02	1.896764040e-01	-1.710699732e-05	6.832687746e-12
-2.640000000e-02	1.896763942e-01	-1.517862916e-05	1.929214581e-11
-2.650000000e-02	1.896763844e-01	-1.325026156e-05	1.865431799e-11
-2.660000000e-02	1.896763745e-01	-1.132189451e-05	8.644863840e-12
-2.670000000e-02	1.896763646e-01	-9.393528012e-06	9.974257136e-12
-2.680000000e-02	1.896763546e-01	-7.465162069e-06	1.353919814e-11
-2.690000000e-02	1.896763445e-01	-5.536796690e-06	3.295800045e-11
-2.700000000e-02	1.896763344e-01	-3.608431868e-06	1.429080045e-11
-2.710000000e-02	1.896763242e-01	-1.680067616e-06	1.780200989e-11
-2.720000000e-02	1.896763140e-01	2.482960693e-07	8.213072682e-12
-2.730000000e-02	1.896763037e-01	2.176659182e-06	5.441092842e-12
-2.740000000e-02	1.896762934e-01	4.105021721e-06	1.041888410e-11
-2.750000000e-02	1.896762830e-01	6.033383678e-06	7.906431940e-11
-2.760000000e-02	1.896762725e-01	7.961745059e-06	2.510412191e-11
-2.770000000e-02	1.896762620e-01	9.890105857e-06	7.354764494e-12
-2.780000000e-02	1.896762514e-01	1.181846607e-05	1.132255491e-11
-2.790000000e-02	1.896762408e-01	1.374682569e-05	7.927933435e-12
-2.800000000e-02	1.896762301e-01	1.567518471e-05	1.062862391e-11
-2.810000000e-02	1.896762193e-01	1.760354314e-05	1.771312015e-11
-2.820000000e-02	1.896762085e-01	1.953190098e-05	2.988266442e-11
-2.830000000e-02	1.896761976e-01	2.146025821e-05	1.030812709e-11
-2.840000000e-02	1.896761867e-01	2.338861484e-05	1.364971303e-11
-2.850000000e-02	1.896761757e-01	2.531697085e-05	1.100080454e-11
-2.860000000e-02	1.896761646e-01	2.724532626e-05	7.941963982e-12
-2.870000000e-02	1.896761535e-01	2.917368106e-05	9.249965925e-12
-2.880000000e-02	1.896761424e-01	3.110203524e-05	2.499285264e-11
-2.890000000e-02	1.896761311e-01	3.303038880e-05	1.840111223e-11
-2.900000000e-02	1.896761198e-01	3.495874174e-05	6.220800861e-12
-2.910000000e-02	1.896761085e-01	3.688709405e-05	1.510603692e-11
-2.920000000e-02	1.896760971e-01	3.881544573e-05	2.142821468e-11
-2.930000000e-02	1.896760856e-01	4.074379678e-05	1.158803005e-11
-2.940000000e-02	1.896760741e-01	4.267214720e-05	1.425099437e-11
-2.950000000e-02	1.896760625e-01	4.460049698e-05	1.254280610e-11
-2.960000000e-02	1.896760509e-01	4.652884612e-05	2.373323224e-11
-2.970000000e-02	1.896760392e-01	4.845719462e-05	1.447597151e-11
-2.980000000e-02	1.896760274e-01	5.038554247e-05	7.369146785e-12
-2.990000000e-02	1.896760156e-01	5.231388967e-05	1.088149016e-11
-3.000000000e-02	1.896760038e-01	5.424223622e-05	1.430450829e-11
