# Im(epsi1)     Re(omega/c)      Im(omega/c)      Eq(det).Opt det CON kz, R=0.5 \mum, mu_c=0.3, Re(epsi1)=3.90solve_det_conkz_vs_kz.py
0.000000000e+00	1.896737106e-01	-5.242732290e-04	2.380008955e-11
-1.000000000e-04	1.896737163e-01	-5.223448361e-04	7.398761790e-12
-2.000000000e-04	1.896737219e-01	-5.204164430e-04	1.888265016e-11
-3.000000000e-04	1.896737275e-01	-5.184880497e-04	1.401172816e-11
-4.000000000e-04	1.896737330e-01	-5.165596561e-04	6.695654621e-12
-5.000000000e-04	1.896737385e-01	-5.146312624e-04	3.517890380e-11
-6.000000000e-04	1.896737439e-01	-5.127028683e-04	6.261396246e-12
-7.000000000e-04	1.896737492e-01	-5.107744741e-04	1.966738027e-11
-8.000000000e-04	1.896737545e-01	-5.088460797e-04	1.077717648e-11
-9.000000000e-04	1.896737597e-01	-5.069176850e-04	1.595157412e-11
-1.000000000e-03	1.896737649e-01	-5.049892901e-04	1.229497435e-11
-1.100000000e-03	1.896737700e-01	-5.030608951e-04	7.148602451e-11
-1.200000000e-03	1.896737751e-01	-5.011324998e-04	1.303615493e-11
-1.300000000e-03	1.896737800e-01	-4.992041043e-04	1.156529797e-11
-1.400000000e-03	1.896737850e-01	-4.972757086e-04	2.364183081e-11
-1.500000000e-03	1.896737899e-01	-4.953473127e-04	1.553085273e-11
-1.600000000e-03	1.896737947e-01	-4.934189166e-04	4.882762724e-11
-1.700000000e-03	1.896737994e-01	-4.914905203e-04	1.213564650e-11
-1.800000000e-03	1.896738041e-01	-4.895621239e-04	1.035988180e-11
-1.900000000e-03	1.896738088e-01	-4.876337272e-04	9.001740598e-12
-2.000000000e-03	1.896738133e-01	-4.857053304e-04	1.052508980e-11
-2.100000000e-03	1.896738179e-01	-4.837769334e-04	6.479596540e-11
-2.200000000e-03	1.896738223e-01	-4.818485362e-04	1.617311388e-11
-2.300000000e-03	1.896738267e-01	-4.799201388e-04	1.033959785e-11
-2.400000000e-03	1.896738311e-01	-4.779917413e-04	1.022956918e-11
-2.500000000e-03	1.896738354e-01	-4.760633436e-04	1.016919019e-11
-2.600000000e-03	1.896738396e-01	-4.741349457e-04	1.533803470e-10
-2.700000000e-03	1.896738438e-01	-4.722065477e-04	4.481115187e-11
-2.800000000e-03	1.896738479e-01	-4.702781495e-04	1.197993025e-11
-2.900000000e-03	1.896738519e-01	-4.683497511e-04	1.809252123e-11
-3.000000000e-03	1.896738559e-01	-4.664213526e-04	1.527004736e-11
-3.100000000e-03	1.896738598e-01	-4.644929540e-04	3.379264463e-11
-3.200000000e-03	1.896738637e-01	-4.625645552e-04	8.362927173e-12
-3.300000000e-03	1.896738675e-01	-4.606361563e-04	9.395151772e-12
-3.400000000e-03	1.896738713e-01	-4.587077572e-04	3.547789227e-11
-3.500000000e-03	1.896738750e-01	-4.567793580e-04	3.865935820e-10
-3.600000000e-03	1.896738786e-01	-4.548509586e-04	1.051895538e-11
-3.700000000e-03	1.896738822e-01	-4.529225591e-04	2.227837300e-11
-3.800000000e-03	1.896738857e-01	-4.509941595e-04	9.473457434e-12
-3.900000000e-03	1.896738892e-01	-4.490657598e-04	1.060930055e-11
-4.000000000e-03	1.896738926e-01	-4.471373599e-04	1.057124004e-11
-4.100000000e-03	1.896738960e-01	-4.452089599e-04	9.729577131e-12
-4.200000000e-03	1.896738992e-01	-4.432805598e-04	1.543961315e-11
-4.300000000e-03	1.896739025e-01	-4.413521596e-04	1.176870928e-11
-4.400000000e-03	1.896739056e-01	-4.394237593e-04	1.857996476e-11
-4.500000000e-03	1.896739088e-01	-4.374953588e-04	1.790015837e-11
-4.600000000e-03	1.896739118e-01	-4.355669583e-04	1.872053023e-11
-4.700000000e-03	1.896739148e-01	-4.336385577e-04	1.443866573e-11
-4.800000000e-03	1.896739177e-01	-4.317101569e-04	9.988639643e-12
-4.900000000e-03	1.896739206e-01	-4.297817561e-04	1.092600960e-11
-5.000000000e-03	1.896739234e-01	-4.278533552e-04	7.962703239e-12
-5.100000000e-03	1.896739262e-01	-4.259249541e-04	8.865114527e-12
-5.200000000e-03	1.896739289e-01	-4.239965530e-04	9.763695723e-12
-5.300000000e-03	1.896739315e-01	-4.220681518e-04	1.517626553e-11
-5.400000000e-03	1.896739341e-01	-4.201397506e-04	1.915238265e-11
-5.500000000e-03	1.896739366e-01	-4.182113492e-04	2.278562392e-11
-5.600000000e-03	1.896739391e-01	-4.162829478e-04	1.293511370e-11
-5.700000000e-03	1.896739415e-01	-4.143545463e-04	1.306335546e-11
-5.800000000e-03	1.896739438e-01	-4.124261447e-04	1.121896050e-11
-5.900000000e-03	1.896739461e-01	-4.104977431e-04	1.364837329e-11
-6.000000000e-03	1.896739484e-01	-4.085693414e-04	5.435235784e-11
-6.100000000e-03	1.896739505e-01	-4.066409396e-04	1.614311824e-11
-6.200000000e-03	1.896739527e-01	-4.047125378e-04	5.656745927e-11
-6.300000000e-03	1.896739547e-01	-4.027841359e-04	1.499842370e-11
-6.400000000e-03	1.896739567e-01	-4.008557340e-04	2.310816287e-11
-6.500000000e-03	1.896739586e-01	-3.989273320e-04	8.002448248e-12
-6.600000000e-03	1.896739605e-01	-3.969989300e-04	9.151294000e-12
-6.700000000e-03	1.896739623e-01	-3.950705280e-04	1.347860933e-11
-6.800000000e-03	1.896739641e-01	-3.931421259e-04	4.765974826e-12
-6.900000000e-03	1.896739658e-01	-3.912137237e-04	1.492350580e-11
-7.000000000e-03	1.896739674e-01	-3.892853216e-04	1.172727729e-11
-7.100000000e-03	1.896739690e-01	-3.873569194e-04	1.075149142e-11
-7.200000000e-03	1.896739705e-01	-3.854285171e-04	1.138510162e-11
-7.300000000e-03	1.896739720e-01	-3.835001149e-04	1.918568217e-11
-7.400000000e-03	1.896739734e-01	-3.815717126e-04	1.473679196e-11
-7.500000000e-03	1.896739748e-01	-3.796433103e-04	2.262755301e-11
-7.600000000e-03	1.896739761e-01	-3.777149080e-04	1.184929088e-11
-7.700000000e-03	1.896739773e-01	-3.757865057e-04	3.396668904e-11
-7.800000000e-03	1.896739785e-01	-3.738581034e-04	1.170411945e-11
-7.900000000e-03	1.896739796e-01	-3.719297010e-04	2.938477032e-11
-8.000000000e-03	1.896739806e-01	-3.700012987e-04	1.477298512e-11
-8.100000000e-03	1.896739816e-01	-3.680728963e-04	5.906092233e-12
-8.200000000e-03	1.896739826e-01	-3.661444940e-04	1.713546901e-11
-8.300000000e-03	1.896739834e-01	-3.642160917e-04	1.907370287e-11
-8.400000000e-03	1.896739843e-01	-3.622876893e-04	1.190462085e-11
-8.500000000e-03	1.896739850e-01	-3.603592870e-04	1.108964418e-11
-8.600000000e-03	1.896739857e-01	-3.584308847e-04	1.031431615e-11
-8.700000000e-03	1.896739864e-01	-3.565024824e-04	1.368545875e-11
-8.800000000e-03	1.896739869e-01	-3.545740802e-04	1.023208274e-11
-8.900000000e-03	1.896739875e-01	-3.526456779e-04	9.019025562e-12
-9.000000000e-03	1.896739879e-01	-3.507172757e-04	2.243485685e-11
-9.100000000e-03	1.896739883e-01	-3.487888735e-04	3.733683349e-11
-9.200000000e-03	1.896739887e-01	-3.468604714e-04	1.527501080e-11
-9.300000000e-03	1.896739890e-01	-3.449320693e-04	8.686080978e-11
-9.400000000e-03	1.896739892e-01	-3.430036672e-04	1.740309498e-11
-9.500000000e-03	1.896739894e-01	-3.410752651e-04	1.474942595e-11
-9.600000000e-03	1.896739895e-01	-3.391468631e-04	2.839419851e-11
-9.700000000e-03	1.896739896e-01	-3.372184612e-04	1.363552240e-11
-9.800000000e-03	1.896739895e-01	-3.352900593e-04	1.044013304e-11
-9.900000000e-03	1.896739895e-01	-3.333616574e-04	8.010250198e-12
-1.000000000e-02	1.896739894e-01	-3.314332556e-04	8.274103114e-12
-1.010000000e-02	1.896739892e-01	-3.295048539e-04	1.746967895e-11
-1.020000000e-02	1.896739889e-01	-3.275764522e-04	1.092939111e-11
-1.030000000e-02	1.896739887e-01	-3.256480506e-04	3.515491341e-11
-1.040000000e-02	1.896739883e-01	-3.237196491e-04	1.004310675e-11
-1.050000000e-02	1.896739879e-01	-3.217912476e-04	2.490610305e-11
-1.060000000e-02	1.896739874e-01	-3.198628462e-04	8.810219867e-12
-1.070000000e-02	1.896739869e-01	-3.179344449e-04	6.569225939e-12
-1.080000000e-02	1.896739863e-01	-3.160060437e-04	8.904538619e-12
-1.090000000e-02	1.896739856e-01	-3.140776425e-04	2.251683588e-11
-1.100000000e-02	1.896739849e-01	-3.121492415e-04	9.140040736e-12
-1.110000000e-02	1.896739842e-01	-3.102208405e-04	1.194034908e-11
-1.120000000e-02	1.896739833e-01	-3.082924396e-04	8.648514155e-12
-1.130000000e-02	1.896739824e-01	-3.063640388e-04	1.579814530e-11
-1.140000000e-02	1.896739815e-01	-3.044356381e-04	2.568601795e-11
-1.150000000e-02	1.896739805e-01	-3.025072375e-04	6.618358031e-12
-1.160000000e-02	1.896739794e-01	-3.005788370e-04	6.259538963e-12
-1.170000000e-02	1.896739783e-01	-2.986504366e-04	1.664172438e-11
-1.180000000e-02	1.896739771e-01	-2.967220363e-04	1.471200715e-11
-1.190000000e-02	1.896739759e-01	-2.947936362e-04	8.626194366e-12
-1.200000000e-02	1.896739746e-01	-2.928652361e-04	1.442062499e-11
-1.210000000e-02	1.896739733e-01	-2.909368362e-04	7.598133746e-12
-1.220000000e-02	1.896739718e-01	-2.890084364e-04	4.509967799e-12
-1.230000000e-02	1.896739704e-01	-2.870800367e-04	8.175133937e-12
-1.240000000e-02	1.896739688e-01	-2.851516372e-04	2.596742681e-11
-1.250000000e-02	1.896739672e-01	-2.832232377e-04	1.330493463e-11
-1.260000000e-02	1.896739656e-01	-2.812948384e-04	1.446304019e-11
-1.270000000e-02	1.896739639e-01	-2.793664393e-04	1.144995087e-11
-1.280000000e-02	1.896739621e-01	-2.774380403e-04	1.129969034e-11
-1.290000000e-02	1.896739603e-01	-2.755096414e-04	6.905171618e-12
-1.300000000e-02	1.896739584e-01	-2.735812427e-04	1.794670576e-11
-1.310000000e-02	1.896739565e-01	-2.716528441e-04	1.472850785e-11
-1.320000000e-02	1.896739545e-01	-2.697244456e-04	2.665056325e-11
-1.330000000e-02	1.896739524e-01	-2.677960474e-04	1.254717088e-11
-1.340000000e-02	1.896739503e-01	-2.658676493e-04	9.358046816e-12
-1.350000000e-02	1.896739481e-01	-2.639392513e-04	1.458054500e-11
-1.360000000e-02	1.896739459e-01	-2.620108535e-04	2.315340168e-11
-1.370000000e-02	1.896739436e-01	-2.600824559e-04	5.667447320e-12
-1.380000000e-02	1.896739412e-01	-2.581540584e-04	7.445087588e-12
-1.390000000e-02	1.896739388e-01	-2.562256611e-04	7.495897268e-12
-1.400000000e-02	1.896739363e-01	-2.542972640e-04	1.446747517e-11
-1.410000000e-02	1.896739338e-01	-2.523688671e-04	6.809871784e-12
-1.420000000e-02	1.896739312e-01	-2.504404703e-04	2.395090091e-11
-1.430000000e-02	1.896739286e-01	-2.485120738e-04	1.355052897e-11
-1.440000000e-02	1.896739259e-01	-2.465836774e-04	9.920160603e-12
-1.450000000e-02	1.896739231e-01	-2.446552812e-04	3.210479171e-11
-1.460000000e-02	1.896739203e-01	-2.427268852e-04	7.485691357e-11
-1.470000000e-02	1.896739174e-01	-2.407984894e-04	1.172117677e-11
-1.480000000e-02	1.896739145e-01	-2.388700938e-04	6.649636801e-12
-1.490000000e-02	1.896739114e-01	-2.369416984e-04	1.868156408e-11
-1.500000000e-02	1.896739084e-01	-2.350133032e-04	1.489424671e-11
-1.510000000e-02	1.896739053e-01	-2.330849082e-04	7.829003452e-12
-1.520000000e-02	1.896739021e-01	-2.311565134e-04	1.489328861e-11
-1.530000000e-02	1.896738989e-01	-2.292281188e-04	1.822552325e-11
-1.540000000e-02	1.896738956e-01	-2.272997245e-04	6.228747669e-12
-1.550000000e-02	1.896738922e-01	-2.253713304e-04	1.164655117e-11
-1.560000000e-02	1.896738888e-01	-2.234429365e-04	1.635576941e-11
-1.570000000e-02	1.896738853e-01	-2.215145428e-04	2.128479618e-11
-1.580000000e-02	1.896738818e-01	-2.195861493e-04	4.200572161e-11
-1.590000000e-02	1.896738782e-01	-2.176577561e-04	1.079945867e-11
-1.600000000e-02	1.896738746e-01	-2.157293631e-04	1.540714285e-11
-1.610000000e-02	1.896738709e-01	-2.138009704e-04	1.389712019e-11
-1.620000000e-02	1.896738671e-01	-2.118725779e-04	1.472458162e-11
-1.630000000e-02	1.896738633e-01	-2.099441856e-04	1.018517218e-11
-1.640000000e-02	1.896738594e-01	-2.080157936e-04	1.582912812e-11
-1.650000000e-02	1.896738554e-01	-2.060874018e-04	3.380289144e-11
-1.660000000e-02	1.896738514e-01	-2.041590103e-04	1.065048016e-11
-1.670000000e-02	1.896738474e-01	-2.022306191e-04	1.055525451e-11
-1.680000000e-02	1.896738433e-01	-2.003022281e-04	9.432700624e-12
-1.690000000e-02	1.896738391e-01	-1.983738373e-04	1.430708522e-11
-1.700000000e-02	1.896738349e-01	-1.964454469e-04	7.961746190e-12
-1.710000000e-02	1.896738306e-01	-1.945170567e-04	6.218620606e-12
-1.720000000e-02	1.896738262e-01	-1.925886667e-04	6.841480152e-12
-1.730000000e-02	1.896738218e-01	-1.906602771e-04	1.226335134e-11
-1.740000000e-02	1.896738173e-01	-1.887318877e-04	4.325667202e-11
-1.750000000e-02	1.896738128e-01	-1.868034986e-04	1.624977870e-11
-1.760000000e-02	1.896738082e-01	-1.848751098e-04	9.962335135e-12
-1.770000000e-02	1.896738036e-01	-1.829467212e-04	2.029073199e-11
-1.780000000e-02	1.896737989e-01	-1.810183330e-04	1.434595635e-11
-1.790000000e-02	1.896737941e-01	-1.790899450e-04	1.095018958e-11
-1.800000000e-02	1.896737893e-01	-1.771615574e-04	7.640633523e-12
-1.810000000e-02	1.896737844e-01	-1.752331700e-04	1.770260795e-11
-1.820000000e-02	1.896737795e-01	-1.733047829e-04	7.996462843e-12
-1.830000000e-02	1.896737745e-01	-1.713763962e-04	9.313569962e-12
-1.840000000e-02	1.896737694e-01	-1.694480097e-04	1.438026553e-11
-1.850000000e-02	1.896737643e-01	-1.675196236e-04	9.715377096e-12
-1.860000000e-02	1.896737591e-01	-1.655912377e-04	4.035072125e-11
-1.870000000e-02	1.896737539e-01	-1.636628522e-04	1.520720082e-11
-1.880000000e-02	1.896737486e-01	-1.617344670e-04	1.445704643e-11
-1.890000000e-02	1.896737432e-01	-1.598060821e-04	2.665466487e-11
-1.900000000e-02	1.896737378e-01	-1.578776976e-04	6.049303220e-12
-1.910000000e-02	1.896737324e-01	-1.559493134e-04	1.198850838e-11
-1.920000000e-02	1.896737268e-01	-1.540209295e-04	5.969690842e-12
-1.930000000e-02	1.896737212e-01	-1.520925459e-04	7.911964541e-12
-1.940000000e-02	1.896737156e-01	-1.501641627e-04	1.410705536e-11
-1.950000000e-02	1.896737099e-01	-1.482357798e-04	1.652744156e-11
-1.960000000e-02	1.896737041e-01	-1.463073973e-04	9.550841219e-12
-1.970000000e-02	1.896736983e-01	-1.443790151e-04	1.040158865e-11
-1.980000000e-02	1.896736924e-01	-1.424506332e-04	1.260332396e-11
-1.990000000e-02	1.896736865e-01	-1.405222517e-04	6.256465929e-12
-2.000000000e-02	1.896736805e-01	-1.385938706e-04	5.418794175e-12
-2.010000000e-02	1.896736744e-01	-1.366654898e-04	3.884264451e-11
-2.020000000e-02	1.896736683e-01	-1.347371093e-04	2.313552267e-11
-2.030000000e-02	1.896736622e-01	-1.328087293e-04	9.680321735e-12
-2.040000000e-02	1.896736559e-01	-1.308803496e-04	1.109502615e-11
-2.050000000e-02	1.896736496e-01	-1.289519702e-04	1.471526247e-11
-2.060000000e-02	1.896736433e-01	-1.270235913e-04	1.120925657e-11
-2.070000000e-02	1.896736369e-01	-1.250952127e-04	9.938780714e-12
-2.080000000e-02	1.896736304e-01	-1.231668345e-04	9.379715181e-12
-2.090000000e-02	1.896736239e-01	-1.212384567e-04	1.363018901e-11
-2.100000000e-02	1.896736173e-01	-1.193100792e-04	1.755590788e-11
-2.110000000e-02	1.896736106e-01	-1.173817022e-04	1.052970009e-11
-2.120000000e-02	1.896736039e-01	-1.154533255e-04	1.698231100e-11
-2.130000000e-02	1.896735972e-01	-1.135249492e-04	1.501266112e-11
-2.140000000e-02	1.896735904e-01	-1.115965733e-04	8.672926601e-12
-2.150000000e-02	1.896735835e-01	-1.096681979e-04	1.106170638e-11
-2.160000000e-02	1.896735765e-01	-1.077398228e-04	5.849254746e-12
-2.170000000e-02	1.896735695e-01	-1.058114481e-04	1.106493836e-11
-2.180000000e-02	1.896735625e-01	-1.038830738e-04	7.698040606e-12
-2.190000000e-02	1.896735554e-01	-1.019547000e-04	3.606069227e-11
-2.200000000e-02	1.896735482e-01	-1.000263266e-04	8.172455338e-12
-2.210000000e-02	1.896735410e-01	-9.809795353e-05	1.465834492e-11
-2.220000000e-02	1.896735337e-01	-9.616958093e-05	8.341841748e-12
-2.230000000e-02	1.896735263e-01	-9.424120875e-05	1.024703655e-11
-2.240000000e-02	1.896735189e-01	-9.231283700e-05	3.678904073e-11
-2.250000000e-02	1.896735115e-01	-9.038446567e-05	1.576650766e-11
-2.260000000e-02	1.896735039e-01	-8.845609477e-05	2.875173377e-11
-2.270000000e-02	1.896734964e-01	-8.652772432e-05	4.106192125e-11
-2.280000000e-02	1.896734887e-01	-8.459935429e-05	1.708639307e-11
-2.290000000e-02	1.896734810e-01	-8.267098471e-05	7.191700920e-12
-2.300000000e-02	1.896734732e-01	-8.074261557e-05	5.378960436e-12
-2.310000000e-02	1.896734654e-01	-7.881424688e-05	1.689569448e-11
-2.320000000e-02	1.896734575e-01	-7.688587863e-05	1.098295291e-11
-2.330000000e-02	1.896734496e-01	-7.495751084e-05	2.263389093e-11
-2.340000000e-02	1.896734416e-01	-7.302914351e-05	1.032754877e-11
-2.350000000e-02	1.896734336e-01	-7.110077663e-05	1.065702791e-11
-2.360000000e-02	1.896734254e-01	-6.917241022e-05	5.079681834e-12
-2.370000000e-02	1.896734173e-01	-6.724404427e-05	1.521682588e-11
-2.380000000e-02	1.896734090e-01	-6.531567878e-05	1.404790965e-11
-2.390000000e-02	1.896734008e-01	-6.338731377e-05	7.669340309e-12
-2.400000000e-02	1.896733924e-01	-6.145894923e-05	3.162062678e-11
-2.410000000e-02	1.896733840e-01	-5.953058517e-05	1.469495663e-11
-2.420000000e-02	1.896733755e-01	-5.760222158e-05	9.040953247e-12
-2.430000000e-02	1.896733670e-01	-5.567385848e-05	2.342623932e-11
-2.440000000e-02	1.896733584e-01	-5.374549587e-05	9.603006099e-12
-2.450000000e-02	1.896733498e-01	-5.181713373e-05	6.363770575e-11
-2.460000000e-02	1.896733411e-01	-4.988877210e-05	9.197820915e-12
-2.470000000e-02	1.896733323e-01	-4.796041097e-05	1.809097369e-10
-2.480000000e-02	1.896733235e-01	-4.603205031e-05	1.392733496e-11
-2.490000000e-02	1.896733146e-01	-4.410369017e-05	1.920123140e-11
-2.500000000e-02	1.896733057e-01	-4.217533053e-05	8.368587216e-12
-2.510000000e-02	1.896732967e-01	-4.024697139e-05	1.493510308e-11
-2.520000000e-02	1.896732876e-01	-3.831861276e-05	1.253964914e-11
-2.530000000e-02	1.896732785e-01	-3.639025465e-05	2.588022334e-11
-2.540000000e-02	1.896732694e-01	-3.446189705e-05	1.461417574e-11
-2.550000000e-02	1.896732601e-01	-3.253353997e-05	1.672801728e-11
-2.560000000e-02	1.896732508e-01	-3.060518341e-05	1.078963810e-11
-2.570000000e-02	1.896732415e-01	-2.867682737e-05	1.043884326e-11
-2.580000000e-02	1.896732321e-01	-2.674847186e-05	1.049222653e-11
-2.590000000e-02	1.896732226e-01	-2.482011688e-05	1.872347362e-11
-2.600000000e-02	1.896732131e-01	-2.289176243e-05	5.890979884e-12
-2.610000000e-02	1.896732035e-01	-2.096340852e-05	2.860599226e-11
-2.620000000e-02	1.896731939e-01	-1.903505515e-05	3.000895313e-11
-2.630000000e-02	1.896731842e-01	-1.710670232e-05	3.756675009e-11
-2.640000000e-02	1.896731744e-01	-1.517835004e-05	1.480104128e-11
-2.650000000e-02	1.896731646e-01	-1.324999830e-05	4.677648589e-11
-2.660000000e-02	1.896731547e-01	-1.132164712e-05	6.983002236e-11
-2.670000000e-02	1.896731448e-01	-9.393296481e-06	6.851501667e-12
-2.680000000e-02	1.896731348e-01	-7.464946405e-06	1.313735407e-11
-2.690000000e-02	1.896731247e-01	-5.536596891e-06	1.079584156e-11
-2.700000000e-02	1.896731146e-01	-3.608247938e-06	8.007958913e-12
-2.710000000e-02	1.896731045e-01	-1.679899550e-06	6.334633501e-12
-2.720000000e-02	1.896730942e-01	2.484482685e-07	1.231678721e-11
-2.730000000e-02	1.896730840e-01	2.176795513e-06	1.338613524e-11
-2.740000000e-02	1.896730736e-01	4.105142184e-06	2.555079471e-11
-2.750000000e-02	1.896730632e-01	6.033488279e-06	1.973076759e-11
-2.760000000e-02	1.896730527e-01	7.961833794e-06	7.120782461e-12
-2.770000000e-02	1.896730422e-01	9.890178724e-06	1.242998477e-11
-2.780000000e-02	1.896730316e-01	1.181852307e-05	9.065352282e-12
-2.790000000e-02	1.896730210e-01	1.374686682e-05	1.386203047e-11
-2.800000000e-02	1.896730103e-01	1.567520999e-05	8.909103907e-11
-2.810000000e-02	1.896729995e-01	1.760355255e-05	1.189459148e-11
-2.820000000e-02	1.896729887e-01	1.953189451e-05	7.889245958e-12
-2.830000000e-02	1.896729778e-01	2.146023588e-05	1.250548157e-11
-2.840000000e-02	1.896729669e-01	2.338857664e-05	2.504904170e-11
-2.850000000e-02	1.896729559e-01	2.531691679e-05	1.387681235e-11
-2.860000000e-02	1.896729449e-01	2.724525633e-05	2.083375554e-11
-2.870000000e-02	1.896729338e-01	2.917359526e-05	4.359947411e-12
-2.880000000e-02	1.896729226e-01	3.110193358e-05	1.565766342e-11
-2.890000000e-02	1.896729114e-01	3.303027127e-05	1.081217262e-11
-2.900000000e-02	1.896729001e-01	3.495860834e-05	5.620068001e-12
-2.910000000e-02	1.896728887e-01	3.688694478e-05	4.540350228e-11
-2.920000000e-02	1.896728773e-01	3.881528060e-05	7.010682211e-12
-2.930000000e-02	1.896728659e-01	4.074361579e-05	2.324471648e-11
-2.940000000e-02	1.896728543e-01	4.267195034e-05	3.924802698e-12
-2.950000000e-02	1.896728428e-01	4.460028425e-05	1.738220642e-11
-2.960000000e-02	1.896728311e-01	4.652861753e-05	1.042019513e-11
-2.970000000e-02	1.896728194e-01	4.845695016e-05	2.016180495e-11
-2.980000000e-02	1.896728077e-01	5.038528214e-05	1.800830203e-11
-2.990000000e-02	1.896727959e-01	5.231361347e-05	2.352175063e-11
-3.000000000e-02	1.896727840e-01	5.424194416e-05	2.850263468e-11
