# Im(epsi1)     Re(omega/c)      Im(omega/c)      Eq(det).Opt det CON kz, R=0.5 \mum, mu_c=0.3, Re(epsi1)=3.90solve_det_conkz_vs_kz.py
0.000000000e+00	1.896937743e-01	-5.242930546e-04	1.274515408e-11
-1.000000000e-04	1.896937800e-01	-5.223645627e-04	1.150233118e-11
-2.000000000e-04	1.896937856e-01	-5.204360705e-04	1.594635471e-11
-3.000000000e-04	1.896937912e-01	-5.185075781e-04	1.221137633e-11
-4.000000000e-04	1.896937967e-01	-5.165790854e-04	1.406760142e-11
-5.000000000e-04	1.896938022e-01	-5.146505926e-04	8.041078488e-12
-6.000000000e-04	1.896938076e-01	-5.127220995e-04	3.469782827e-11
-7.000000000e-04	1.896938129e-01	-5.107936062e-04	1.092023013e-11
-8.000000000e-04	1.896938182e-01	-5.088651126e-04	1.563881107e-11
-9.000000000e-04	1.896938234e-01	-5.069366189e-04	1.392234678e-11
-1.000000000e-03	1.896938286e-01	-5.050081249e-04	9.738264547e-12
-1.100000000e-03	1.896938337e-01	-5.030796308e-04	7.611005977e-12
-1.200000000e-03	1.896938388e-01	-5.011511364e-04	1.185053367e-11
-1.300000000e-03	1.896938437e-01	-4.992226418e-04	1.168177839e-11
-1.400000000e-03	1.896938487e-01	-4.972941471e-04	6.643683360e-12
-1.500000000e-03	1.896938536e-01	-4.953656521e-04	8.377274257e-12
-1.600000000e-03	1.896938584e-01	-4.934371569e-04	1.119905329e-11
-1.700000000e-03	1.896938631e-01	-4.915086616e-04	5.383791172e-12
-1.800000000e-03	1.896938678e-01	-4.895801660e-04	5.741929131e-11
-1.900000000e-03	1.896938725e-01	-4.876516703e-04	8.708625477e-12
-2.000000000e-03	1.896938770e-01	-4.857231743e-04	9.556399446e-12
-2.100000000e-03	1.896938816e-01	-4.837946783e-04	9.707855438e-12
-2.200000000e-03	1.896938860e-01	-4.818661820e-04	1.111867774e-11
-2.300000000e-03	1.896938904e-01	-4.799376855e-04	7.919180256e-12
-2.400000000e-03	1.896938948e-01	-4.780091889e-04	1.467336266e-11
-2.500000000e-03	1.896938991e-01	-4.760806921e-04	3.351575979e-11
-2.600000000e-03	1.896939033e-01	-4.741521952e-04	2.150227039e-11
-2.700000000e-03	1.896939075e-01	-4.722236981e-04	1.376501942e-11
-2.800000000e-03	1.896939116e-01	-4.702952008e-04	1.389539900e-11
-2.900000000e-03	1.896939156e-01	-4.683667034e-04	9.985132371e-12
-3.000000000e-03	1.896939196e-01	-4.664382058e-04	1.352995880e-11
-3.100000000e-03	1.896939235e-01	-4.645097080e-04	1.226188571e-11
-3.200000000e-03	1.896939274e-01	-4.625812102e-04	1.603318899e-11
-3.300000000e-03	1.896939312e-01	-4.606527121e-04	4.508071698e-11
-3.400000000e-03	1.896939350e-01	-4.587242140e-04	2.364277857e-10
-3.500000000e-03	1.896939387e-01	-4.567957157e-04	1.853576302e-11
-3.600000000e-03	1.896939423e-01	-4.548672173e-04	1.265277247e-11
-3.700000000e-03	1.896939459e-01	-4.529387187e-04	7.760258616e-12
-3.800000000e-03	1.896939494e-01	-4.510102200e-04	1.213060630e-11
-3.900000000e-03	1.896939529e-01	-4.490817212e-04	1.365735725e-11
-4.000000000e-03	1.896939563e-01	-4.471532222e-04	2.319828872e-11
-4.100000000e-03	1.896939596e-01	-4.452247232e-04	1.366872871e-11
-4.200000000e-03	1.896939629e-01	-4.432962240e-04	2.337086448e-11
-4.300000000e-03	1.896939662e-01	-4.413677247e-04	8.788754043e-12
-4.400000000e-03	1.896939693e-01	-4.394392253e-04	1.264394428e-11
-4.500000000e-03	1.896939724e-01	-4.375107257e-04	1.507529113e-11
-4.600000000e-03	1.896939755e-01	-4.355822261e-04	1.073254947e-11
-4.700000000e-03	1.896939785e-01	-4.336537264e-04	1.120081929e-11
-4.800000000e-03	1.896939814e-01	-4.317252266e-04	5.353071407e-12
-4.900000000e-03	1.896939843e-01	-4.297967267e-04	1.070117798e-11
-5.000000000e-03	1.896939871e-01	-4.278682266e-04	2.134575473e-11
-5.100000000e-03	1.896939899e-01	-4.259397265e-04	1.984532535e-11
-5.200000000e-03	1.896939926e-01	-4.240112264e-04	5.273057333e-12
-5.300000000e-03	1.896939952e-01	-4.220827261e-04	3.345706683e-11
-5.400000000e-03	1.896939978e-01	-4.201542257e-04	3.533251712e-11
-5.500000000e-03	1.896940003e-01	-4.182257253e-04	7.136807968e-12
-5.600000000e-03	1.896940028e-01	-4.162972248e-04	5.345686437e-11
-5.700000000e-03	1.896940052e-01	-4.143687242e-04	1.526504382e-11
-5.800000000e-03	1.896940075e-01	-4.124402235e-04	1.718535659e-11
-5.900000000e-03	1.896940098e-01	-4.105117228e-04	5.550588878e-12
-6.000000000e-03	1.896940121e-01	-4.085832221e-04	2.329372967e-11
-6.100000000e-03	1.896940142e-01	-4.066547212e-04	2.323981082e-11
-6.200000000e-03	1.896940163e-01	-4.047262203e-04	1.951272891e-11
-6.300000000e-03	1.896940184e-01	-4.027977194e-04	1.596837775e-11
-6.400000000e-03	1.896940204e-01	-4.008692184e-04	2.298987137e-11
-6.500000000e-03	1.896940223e-01	-3.989407173e-04	3.273039358e-11
-6.600000000e-03	1.896940242e-01	-3.970122162e-04	7.111509951e-12
-6.700000000e-03	1.896940260e-01	-3.950837151e-04	1.074175279e-11
-6.800000000e-03	1.896940278e-01	-3.931552139e-04	1.243204052e-11
-6.900000000e-03	1.896940295e-01	-3.912267127e-04	5.916115028e-12
-7.000000000e-03	1.896940311e-01	-3.892982114e-04	1.240833892e-11
-7.100000000e-03	1.896940327e-01	-3.873697101e-04	7.699509556e-12
-7.200000000e-03	1.896940342e-01	-3.854412088e-04	8.952280010e-12
-7.300000000e-03	1.896940357e-01	-3.835127075e-04	2.086730557e-11
-7.400000000e-03	1.896940371e-01	-3.815842061e-04	1.374298739e-11
-7.500000000e-03	1.896940384e-01	-3.796557048e-04	6.551932630e-12
-7.600000000e-03	1.896940397e-01	-3.777272034e-04	1.083588064e-11
-7.700000000e-03	1.896940410e-01	-3.757987020e-04	9.839816266e-12
-7.800000000e-03	1.896940421e-01	-3.738702006e-04	2.430910409e-11
-7.900000000e-03	1.896940433e-01	-3.719416991e-04	9.502867021e-12
-8.000000000e-03	1.896940443e-01	-3.700131977e-04	7.390971802e-12
-8.100000000e-03	1.896940453e-01	-3.680846963e-04	9.314773386e-12
-8.200000000e-03	1.896940462e-01	-3.661561949e-04	8.472517738e-12
-8.300000000e-03	1.896940471e-01	-3.642276934e-04	2.964435175e-11
-8.400000000e-03	1.896940479e-01	-3.622991920e-04	1.630298139e-11
-8.500000000e-03	1.896940487e-01	-3.603706906e-04	2.097735886e-11
-8.600000000e-03	1.896940494e-01	-3.584421893e-04	1.485793440e-10
-8.700000000e-03	1.896940500e-01	-3.565136879e-04	1.011896375e-11
-8.800000000e-03	1.896940506e-01	-3.545851865e-04	1.433994675e-11
-8.900000000e-03	1.896940511e-01	-3.526566852e-04	1.547889352e-11
-9.000000000e-03	1.896940516e-01	-3.507281839e-04	1.021411806e-11
-9.100000000e-03	1.896940520e-01	-3.487996827e-04	6.370860000e-12
-9.200000000e-03	1.896940524e-01	-3.468711814e-04	1.148466596e-11
-9.300000000e-03	1.896940527e-01	-3.449426802e-04	1.880640259e-11
-9.400000000e-03	1.896940529e-01	-3.430141791e-04	2.172661699e-11
-9.500000000e-03	1.896940531e-01	-3.410856779e-04	1.639725684e-11
-9.600000000e-03	1.896940532e-01	-3.391571769e-04	1.263153196e-11
-9.700000000e-03	1.896940532e-01	-3.372286758e-04	4.536816110e-11
-9.800000000e-03	1.896940532e-01	-3.353001748e-04	1.543966868e-11
-9.900000000e-03	1.896940532e-01	-3.333716739e-04	8.367240421e-12
-1.000000000e-02	1.896940530e-01	-3.314431730e-04	6.758337692e-11
-1.010000000e-02	1.896940529e-01	-3.295146722e-04	1.273664542e-11
-1.020000000e-02	1.896940526e-01	-3.275861715e-04	1.195123322e-11
-1.030000000e-02	1.896940523e-01	-3.256576708e-04	1.661439809e-11
-1.040000000e-02	1.896940520e-01	-3.237291702e-04	2.065728201e-11
-1.050000000e-02	1.896940516e-01	-3.218006696e-04	2.741056438e-11
-1.060000000e-02	1.896940511e-01	-3.198721692e-04	2.163256147e-11
-1.070000000e-02	1.896940506e-01	-3.179436688e-04	1.523291773e-11
-1.080000000e-02	1.896940500e-01	-3.160151684e-04	1.408889798e-11
-1.090000000e-02	1.896940493e-01	-3.140866682e-04	1.231453397e-11
-1.100000000e-02	1.896940486e-01	-3.121581681e-04	1.923330776e-11
-1.110000000e-02	1.896940478e-01	-3.102296680e-04	2.058722719e-11
-1.120000000e-02	1.896940470e-01	-3.083011680e-04	1.259656997e-11
-1.130000000e-02	1.896940461e-01	-3.063726681e-04	1.004598273e-11
-1.140000000e-02	1.896940452e-01	-3.044441684e-04	2.368012098e-11
-1.150000000e-02	1.896940442e-01	-3.025156687e-04	6.619441379e-12
-1.160000000e-02	1.896940431e-01	-3.005871691e-04	3.255848121e-11
-1.170000000e-02	1.896940420e-01	-2.986586697e-04	2.716407680e-11
-1.180000000e-02	1.896940408e-01	-2.967301703e-04	1.171150086e-11
-1.190000000e-02	1.896940396e-01	-2.948016711e-04	9.822861756e-12
-1.200000000e-02	1.896940383e-01	-2.928731719e-04	2.064735343e-11
-1.210000000e-02	1.896940369e-01	-2.909446729e-04	1.256450643e-11
-1.220000000e-02	1.896940355e-01	-2.890161740e-04	2.013870728e-11
-1.230000000e-02	1.896940340e-01	-2.870876753e-04	1.116087954e-11
-1.240000000e-02	1.896940325e-01	-2.851591766e-04	2.322633611e-11
-1.250000000e-02	1.896940309e-01	-2.832306781e-04	3.295647783e-11
-1.260000000e-02	1.896940293e-01	-2.813021797e-04	1.189834742e-11
-1.270000000e-02	1.896940276e-01	-2.793736815e-04	9.179862655e-12
-1.280000000e-02	1.896940258e-01	-2.774451834e-04	1.315145726e-11
-1.290000000e-02	1.896940240e-01	-2.755166854e-04	1.394187816e-11
-1.300000000e-02	1.896940221e-01	-2.735881876e-04	9.145812644e-12
-1.310000000e-02	1.896940201e-01	-2.716596900e-04	1.459741798e-11
-1.320000000e-02	1.896940181e-01	-2.697311925e-04	1.032043546e-11
-1.330000000e-02	1.896940161e-01	-2.678026951e-04	9.842920439e-12
-1.340000000e-02	1.896940140e-01	-2.658741979e-04	2.506362442e-11
-1.350000000e-02	1.896940118e-01	-2.639457009e-04	6.385221341e-12
-1.360000000e-02	1.896940095e-01	-2.620172040e-04	9.774300482e-12
-1.370000000e-02	1.896940072e-01	-2.600887073e-04	9.534412291e-12
-1.380000000e-02	1.896940049e-01	-2.581602107e-04	8.341853967e-12
-1.390000000e-02	1.896940025e-01	-2.562317144e-04	1.811089337e-11
-1.400000000e-02	1.896940000e-01	-2.543032182e-04	7.453542927e-12
-1.410000000e-02	1.896939975e-01	-2.523747222e-04	2.120277790e-11
-1.420000000e-02	1.896939949e-01	-2.504462263e-04	2.485304698e-11
-1.430000000e-02	1.896939922e-01	-2.485177307e-04	1.974462465e-11
-1.440000000e-02	1.896939895e-01	-2.465892352e-04	2.247721754e-11
-1.450000000e-02	1.896939868e-01	-2.446607400e-04	7.976377721e-11
-1.460000000e-02	1.896939839e-01	-2.427322449e-04	1.565085856e-11
-1.470000000e-02	1.896939811e-01	-2.408037500e-04	2.841375096e-11
-1.480000000e-02	1.896939781e-01	-2.388752553e-04	1.019827955e-11
-1.490000000e-02	1.896939751e-01	-2.369467608e-04	1.306732785e-11
-1.500000000e-02	1.896939721e-01	-2.350182665e-04	2.213070092e-11
-1.510000000e-02	1.896939689e-01	-2.330897725e-04	5.082911940e-12
-1.520000000e-02	1.896939658e-01	-2.311612786e-04	9.556070054e-12
-1.530000000e-02	1.896939625e-01	-2.292327850e-04	6.986679380e-12
-1.540000000e-02	1.896939592e-01	-2.273042915e-04	1.775985098e-11
-1.550000000e-02	1.896939559e-01	-2.253757983e-04	1.963829464e-11
-1.560000000e-02	1.896939525e-01	-2.234473054e-04	1.510330138e-11
-1.570000000e-02	1.896939490e-01	-2.215188126e-04	7.610480194e-12
-1.580000000e-02	1.896939455e-01	-2.195903201e-04	1.392104315e-11
-1.590000000e-02	1.896939419e-01	-2.176618278e-04	1.867281548e-11
-1.600000000e-02	1.896939382e-01	-2.157333357e-04	1.249616154e-11
-1.610000000e-02	1.896939345e-01	-2.138048439e-04	4.662753529e-11
-1.620000000e-02	1.896939308e-01	-2.118763523e-04	1.025841450e-11
-1.630000000e-02	1.896939269e-01	-2.099478609e-04	1.177556235e-11
-1.640000000e-02	1.896939231e-01	-2.080193699e-04	1.041131393e-11
-1.650000000e-02	1.896939191e-01	-2.060908790e-04	2.228416445e-11
-1.660000000e-02	1.896939151e-01	-2.041623884e-04	2.138818456e-10
-1.670000000e-02	1.896939111e-01	-2.022338981e-04	7.246888003e-12
-1.680000000e-02	1.896939069e-01	-2.003054080e-04	6.438213507e-12
-1.690000000e-02	1.896939028e-01	-1.983769182e-04	1.121210320e-11
-1.700000000e-02	1.896938985e-01	-1.964484286e-04	2.021467362e-11
-1.710000000e-02	1.896938942e-01	-1.945199393e-04	1.054939580e-10
-1.720000000e-02	1.896938899e-01	-1.925914503e-04	2.482228387e-11
-1.730000000e-02	1.896938855e-01	-1.906629616e-04	2.441827787e-11
-1.740000000e-02	1.896938810e-01	-1.887344731e-04	6.882132800e-11
-1.750000000e-02	1.896938765e-01	-1.868059849e-04	9.030137988e-12
-1.760000000e-02	1.896938719e-01	-1.848774970e-04	9.049048278e-12
-1.770000000e-02	1.896938672e-01	-1.829490094e-04	1.496499718e-11
-1.780000000e-02	1.896938625e-01	-1.810205221e-04	7.699282632e-12
-1.790000000e-02	1.896938578e-01	-1.790920351e-04	9.708704039e-12
-1.800000000e-02	1.896938529e-01	-1.771635483e-04	1.449648852e-11
-1.810000000e-02	1.896938481e-01	-1.752350619e-04	1.930758106e-11
-1.820000000e-02	1.896938431e-01	-1.733065757e-04	1.585502577e-11
-1.830000000e-02	1.896938381e-01	-1.713780899e-04	1.694792034e-11
-1.840000000e-02	1.896938331e-01	-1.694496044e-04	8.639472359e-12
-1.850000000e-02	1.896938280e-01	-1.675211191e-04	7.162406616e-12
-1.860000000e-02	1.896938228e-01	-1.655926342e-04	1.291314412e-11
-1.870000000e-02	1.896938175e-01	-1.636641496e-04	2.834773664e-11
-1.880000000e-02	1.896938123e-01	-1.617356653e-04	9.637391862e-12
-1.890000000e-02	1.896938069e-01	-1.598071814e-04	1.110624530e-11
-1.900000000e-02	1.896938015e-01	-1.578786977e-04	5.200457669e-12
-1.910000000e-02	1.896937960e-01	-1.559502144e-04	1.303976132e-11
-1.920000000e-02	1.896937905e-01	-1.540217315e-04	1.002189197e-11
-1.930000000e-02	1.896937849e-01	-1.520932488e-04	3.072160779e-11
-1.940000000e-02	1.896937793e-01	-1.501647665e-04	2.158852790e-11
-1.950000000e-02	1.896937736e-01	-1.482362845e-04	1.096258656e-11
-1.960000000e-02	1.896937678e-01	-1.463078029e-04	6.030672494e-12
-1.970000000e-02	1.896937620e-01	-1.443793216e-04	2.458633284e-11
-1.980000000e-02	1.896937561e-01	-1.424508407e-04	1.993516466e-11
-1.990000000e-02	1.896937502e-01	-1.405223601e-04	1.967728906e-11
-2.000000000e-02	1.896937442e-01	-1.385938799e-04	1.309943362e-11
-2.010000000e-02	1.896937381e-01	-1.366654000e-04	7.648938739e-12
-2.020000000e-02	1.896937320e-01	-1.347369205e-04	1.118452620e-11
-2.030000000e-02	1.896937258e-01	-1.328084414e-04	7.734277831e-12
-2.040000000e-02	1.896937196e-01	-1.308799626e-04	2.257929418e-11
-2.050000000e-02	1.896937133e-01	-1.289514842e-04	9.117114893e-12
-2.060000000e-02	1.896937069e-01	-1.270230061e-04	2.007940637e-11
-2.070000000e-02	1.896937005e-01	-1.250945285e-04	1.309462119e-11
-2.080000000e-02	1.896936941e-01	-1.231660512e-04	2.712825657e-11
-2.090000000e-02	1.896936875e-01	-1.212375743e-04	1.573009064e-11
-2.100000000e-02	1.896936809e-01	-1.193090978e-04	1.317275129e-11
-2.110000000e-02	1.896936743e-01	-1.173806216e-04	1.001964909e-11
-2.120000000e-02	1.896936676e-01	-1.154521459e-04	7.204368174e-12
-2.130000000e-02	1.896936608e-01	-1.135236705e-04	2.403019764e-11
-2.140000000e-02	1.896936540e-01	-1.115951956e-04	1.902128933e-11
-2.150000000e-02	1.896936471e-01	-1.096667210e-04	2.531069741e-11
-2.160000000e-02	1.896936402e-01	-1.077382468e-04	3.368117180e-11
-2.170000000e-02	1.896936332e-01	-1.058097731e-04	1.150412079e-11
-2.180000000e-02	1.896936261e-01	-1.038812997e-04	1.401788849e-11
-2.190000000e-02	1.896936190e-01	-1.019528268e-04	4.667836673e-11
-2.200000000e-02	1.896936119e-01	-1.000243543e-04	1.046969649e-11
-2.210000000e-02	1.896936046e-01	-9.809588219e-05	1.555840410e-11
-2.220000000e-02	1.896935973e-01	-9.616741050e-05	8.345948674e-12
-2.230000000e-02	1.896935900e-01	-9.423893924e-05	1.446134639e-11
-2.240000000e-02	1.896935826e-01	-9.231046841e-05	1.148276073e-11
-2.250000000e-02	1.896935751e-01	-9.038199800e-05	5.576621424e-12
-2.260000000e-02	1.896935676e-01	-8.845352802e-05	8.455678164e-12
-2.270000000e-02	1.896935600e-01	-8.652505848e-05	7.308248108e-12
-2.280000000e-02	1.896935524e-01	-8.459658938e-05	5.692434591e-12
-2.290000000e-02	1.896935447e-01	-8.266812072e-05	2.362308143e-11
-2.300000000e-02	1.896935369e-01	-8.073965250e-05	1.409244126e-11
-2.310000000e-02	1.896935291e-01	-7.881118473e-05	7.830793054e-12
-2.320000000e-02	1.896935212e-01	-7.688271740e-05	1.159120691e-11
-2.330000000e-02	1.896935133e-01	-7.495425053e-05	1.417016695e-11
-2.340000000e-02	1.896935053e-01	-7.302578412e-05	2.781896327e-11
-2.350000000e-02	1.896934972e-01	-7.109731816e-05	9.849511840e-12
-2.360000000e-02	1.896934891e-01	-6.916885266e-05	7.136865591e-12
-2.370000000e-02	1.896934809e-01	-6.724038763e-05	1.895881061e-11
-2.380000000e-02	1.896934727e-01	-6.531192307e-05	9.714385462e-12
-2.390000000e-02	1.896934644e-01	-6.338345898e-05	2.378763705e-11
-2.400000000e-02	1.896934561e-01	-6.145499536e-05	2.450062812e-11
-2.410000000e-02	1.896934477e-01	-5.952653221e-05	1.130107838e-11
-2.420000000e-02	1.896934392e-01	-5.759806955e-05	2.847025137e-11
-2.430000000e-02	1.896934307e-01	-5.566960736e-05	1.210332533e-11
-2.440000000e-02	1.896934221e-01	-5.374114567e-05	1.252114876e-11
-2.450000000e-02	1.896934134e-01	-5.181268446e-05	1.156560980e-11
-2.460000000e-02	1.896934047e-01	-4.988422374e-05	1.443298534e-11
-2.470000000e-02	1.896933960e-01	-4.795576352e-05	7.266370459e-11
-2.480000000e-02	1.896933872e-01	-4.602730379e-05	7.348195911e-12
-2.490000000e-02	1.896933783e-01	-4.409884457e-05	1.430191681e-11
-2.500000000e-02	1.896933693e-01	-4.217038584e-05	3.604630378e-11
-2.510000000e-02	1.896933603e-01	-4.024192763e-05	2.452799273e-11
-2.520000000e-02	1.896933513e-01	-3.831346992e-05	1.393751633e-11
-2.530000000e-02	1.896933422e-01	-3.638501272e-05	1.989931043e-11
-2.540000000e-02	1.896933330e-01	-3.445655604e-05	2.813283810e-11
-2.550000000e-02	1.896933238e-01	-3.252809988e-05	5.741583756e-11
-2.560000000e-02	1.896933145e-01	-3.059964424e-05	1.750212015e-11
-2.570000000e-02	1.896933051e-01	-2.867118912e-05	8.979541626e-12
-2.580000000e-02	1.896932957e-01	-2.674273453e-05	6.475985991e-11
-2.590000000e-02	1.896932863e-01	-2.481428047e-05	1.115975698e-11
-2.600000000e-02	1.896932768e-01	-2.288582694e-05	7.772635125e-12
-2.610000000e-02	1.896932672e-01	-2.095737395e-05	2.096051873e-11
-2.620000000e-02	1.896932575e-01	-1.902892150e-05	1.210979775e-11
-2.630000000e-02	1.896932478e-01	-1.710046959e-05	9.416134192e-12
-2.640000000e-02	1.896932381e-01	-1.517201822e-05	9.836255476e-12
-2.650000000e-02	1.896932283e-01	-1.324356741e-05	1.017902643e-11
-2.660000000e-02	1.896932184e-01	-1.131511714e-05	5.889721450e-11
-2.670000000e-02	1.896932084e-01	-9.386667426e-06	1.573563505e-11
-2.680000000e-02	1.896931984e-01	-7.458218269e-06	6.413883304e-12
-2.690000000e-02	1.896931884e-01	-5.529769672e-06	2.694732792e-11
-2.700000000e-02	1.896931783e-01	-3.601321638e-06	1.834171299e-11
-2.710000000e-02	1.896931681e-01	-1.672874171e-06	1.051778817e-11
-2.720000000e-02	1.896931579e-01	2.555727289e-07	8.215420318e-12
-2.730000000e-02	1.896931476e-01	2.184019057e-06	8.780783791e-12
-2.740000000e-02	1.896931372e-01	4.112464810e-06	1.868891983e-11
-2.750000000e-02	1.896931268e-01	6.040909984e-06	2.810986037e-11
-2.760000000e-02	1.896931164e-01	7.969354579e-06	1.216085882e-11
-2.770000000e-02	1.896931059e-01	9.897798589e-06	8.909704519e-12
-2.780000000e-02	1.896930953e-01	1.182624201e-05	1.347860261e-11
-2.790000000e-02	1.896930846e-01	1.375468485e-05	2.376568600e-11
-2.800000000e-02	1.896930739e-01	1.568312709e-05	9.475835815e-12
-2.810000000e-02	1.896930632e-01	1.761156874e-05	4.553215742e-11
-2.820000000e-02	1.896930524e-01	1.954000978e-05	2.650297606e-11
-2.830000000e-02	1.896930415e-01	2.146845023e-05	1.066156795e-11
-2.840000000e-02	1.896930306e-01	2.339689007e-05	3.792501696e-11
-2.850000000e-02	1.896930196e-01	2.532532931e-05	2.184073373e-11
-2.860000000e-02	1.896930085e-01	2.725376793e-05	6.530227187e-12
-2.870000000e-02	1.896929974e-01	2.918220594e-05	7.971713699e-12
-2.880000000e-02	1.896929862e-01	3.111064333e-05	1.867231988e-11
-2.890000000e-02	1.896929750e-01	3.303908011e-05	2.048057317e-11
-2.900000000e-02	1.896929637e-01	3.496751626e-05	7.691382160e-12
-2.910000000e-02	1.896929524e-01	3.689595179e-05	6.287261252e-11
-2.920000000e-02	1.896929410e-01	3.882438669e-05	1.366249865e-11
-2.930000000e-02	1.896929295e-01	4.075282095e-05	1.024338713e-11
-2.940000000e-02	1.896929180e-01	4.268125459e-05	2.218820233e-11
-2.950000000e-02	1.896929064e-01	4.460968758e-05	1.729891924e-11
-2.960000000e-02	1.896928948e-01	4.653811994e-05	1.436426263e-11
-2.970000000e-02	1.896928831e-01	4.846655165e-05	1.745168276e-11
-2.980000000e-02	1.896928713e-01	5.039498271e-05	7.284115314e-12
-2.990000000e-02	1.896928595e-01	5.232341313e-05	1.655482935e-11
-3.000000000e-02	1.896928476e-01	5.425184289e-05	1.337472270e-11
