# Im(epsi1)     Re(omega/c)      Im(omega/c)      Eq(det).Opt det CON kz, R=0.5 \mum, mu_c=0.3, Re(epsi1)=3.90solve_det_conkz_vs_kz.py
0.000000000e+00	1.896649965e-01	-5.242586713e-04	2.236496951e-11
-1.000000000e-04	1.896650022e-01	-5.223303213e-04	1.313656609e-11
-2.000000000e-04	1.896650078e-01	-5.204019711e-04	6.321976090e-12
-3.000000000e-04	1.896650134e-01	-5.184736206e-04	1.150547190e-11
-4.000000000e-04	1.896650189e-01	-5.165452699e-04	9.611384254e-12
-5.000000000e-04	1.896650244e-01	-5.146169190e-04	1.793426976e-11
-6.000000000e-04	1.896650298e-01	-5.126885679e-04	8.439182206e-12
-7.000000000e-04	1.896650351e-01	-5.107602166e-04	8.456353169e-12
-8.000000000e-04	1.896650404e-01	-5.088318650e-04	1.885922358e-11
-9.000000000e-04	1.896650456e-01	-5.069035132e-04	1.777069628e-11
-1.000000000e-03	1.896650508e-01	-5.049751612e-04	1.220516580e-11
-1.100000000e-03	1.896650559e-01	-5.030468090e-04	5.455828021e-11
-1.200000000e-03	1.896650610e-01	-5.011184566e-04	2.162296072e-11
-1.300000000e-03	1.896650660e-01	-4.991901039e-04	1.223044490e-11
-1.400000000e-03	1.896650709e-01	-4.972617511e-04	6.895964160e-12
-1.500000000e-03	1.896650758e-01	-4.953333981e-04	1.846694017e-11
-1.600000000e-03	1.896650806e-01	-4.934050449e-04	1.267428167e-11
-1.700000000e-03	1.896650853e-01	-4.914766915e-04	1.922688466e-11
-1.800000000e-03	1.896650900e-01	-4.895483379e-04	9.879208706e-12
-1.900000000e-03	1.896650947e-01	-4.876199841e-04	3.723126115e-11
-2.000000000e-03	1.896650993e-01	-4.856916301e-04	9.100292066e-12
-2.100000000e-03	1.896651038e-01	-4.837632760e-04	1.383387887e-11
-2.200000000e-03	1.896651082e-01	-4.818349217e-04	1.615214788e-11
-2.300000000e-03	1.896651126e-01	-4.799065672e-04	1.620971282e-11
-2.400000000e-03	1.896651170e-01	-4.779782125e-04	1.374344687e-11
-2.500000000e-03	1.896651213e-01	-4.760498577e-04	5.345893397e-11
-2.600000000e-03	1.896651255e-01	-4.741215027e-04	7.256475089e-12
-2.700000000e-03	1.896651297e-01	-4.721931475e-04	8.543612985e-12
-2.800000000e-03	1.896651338e-01	-4.702647922e-04	9.312516821e-11
-2.900000000e-03	1.896651378e-01	-4.683364368e-04	1.427267797e-11
-3.000000000e-03	1.896651418e-01	-4.664080811e-04	5.959426322e-11
-3.100000000e-03	1.896651458e-01	-4.644797254e-04	6.632923179e-12
-3.200000000e-03	1.896651496e-01	-4.625513694e-04	1.227113861e-11
-3.300000000e-03	1.896651534e-01	-4.606230134e-04	3.213346115e-11
-3.400000000e-03	1.896651572e-01	-4.586946572e-04	1.156188212e-11
-3.500000000e-03	1.896651609e-01	-4.567663008e-04	8.554859590e-12
-3.600000000e-03	1.896651645e-01	-4.548379443e-04	1.676496221e-11
-3.700000000e-03	1.896651681e-01	-4.529095877e-04	3.455706435e-11
-3.800000000e-03	1.896651716e-01	-4.509812310e-04	8.978457670e-12
-3.900000000e-03	1.896651751e-01	-4.490528741e-04	1.084063079e-11
-4.000000000e-03	1.896651785e-01	-4.471245171e-04	1.232171603e-11
-4.100000000e-03	1.896651819e-01	-4.451961600e-04	1.204271747e-11
-4.200000000e-03	1.896651852e-01	-4.432678028e-04	5.069678493e-11
-4.300000000e-03	1.896651884e-01	-4.413394454e-04	1.823925354e-11
-4.400000000e-03	1.896651915e-01	-4.394110880e-04	1.301988888e-11
-4.500000000e-03	1.896651947e-01	-4.374827304e-04	1.654917235e-11
-4.600000000e-03	1.896651977e-01	-4.355543728e-04	1.682325382e-11
-4.700000000e-03	1.896652007e-01	-4.336260150e-04	5.064309504e-12
-4.800000000e-03	1.896652036e-01	-4.316976571e-04	9.719584675e-12
-4.900000000e-03	1.896652065e-01	-4.297692991e-04	8.141310162e-12
-5.000000000e-03	1.896652093e-01	-4.278409411e-04	2.483905219e-11
-5.100000000e-03	1.896652121e-01	-4.259125829e-04	1.000019691e-11
-5.200000000e-03	1.896652148e-01	-4.239842247e-04	2.390382432e-11
-5.300000000e-03	1.896652174e-01	-4.220558664e-04	1.992992559e-11
-5.400000000e-03	1.896652200e-01	-4.201275080e-04	1.452513409e-11
-5.500000000e-03	1.896652225e-01	-4.181991495e-04	1.298477101e-11
-5.600000000e-03	1.896652250e-01	-4.162707910e-04	9.807213296e-12
-5.700000000e-03	1.896652274e-01	-4.143424323e-04	1.289410142e-11
-5.800000000e-03	1.896652298e-01	-4.124140736e-04	2.735603955e-11
-5.900000000e-03	1.896652320e-01	-4.104857149e-04	1.166052550e-11
-6.000000000e-03	1.896652343e-01	-4.085573560e-04	9.573805355e-12
-6.100000000e-03	1.896652364e-01	-4.066289971e-04	1.555926356e-11
-6.200000000e-03	1.896652386e-01	-4.047006382e-04	1.246912252e-11
-6.300000000e-03	1.896652406e-01	-4.027722792e-04	4.417438304e-11
-6.400000000e-03	1.896652426e-01	-4.008439202e-04	1.430475146e-11
-6.500000000e-03	1.896652445e-01	-3.989155611e-04	8.123775299e-12
-6.600000000e-03	1.896652464e-01	-3.969872019e-04	1.358307975e-11
-6.700000000e-03	1.896652482e-01	-3.950588427e-04	2.395870960e-11
-6.800000000e-03	1.896652500e-01	-3.931304835e-04	1.697644744e-11
-6.900000000e-03	1.896652517e-01	-3.912021242e-04	9.105306549e-12
-7.000000000e-03	1.896652533e-01	-3.892737649e-04	8.252198128e-12
-7.100000000e-03	1.896652549e-01	-3.873454056e-04	9.398509144e-12
-7.200000000e-03	1.896652564e-01	-3.854170463e-04	1.079935750e-11
-7.300000000e-03	1.896652579e-01	-3.834886869e-04	1.368916585e-11
-7.400000000e-03	1.896652593e-01	-3.815603275e-04	6.686369013e-12
-7.500000000e-03	1.896652607e-01	-3.796319681e-04	2.853104953e-11
-7.600000000e-03	1.896652620e-01	-3.777036086e-04	5.461678405e-12
-7.700000000e-03	1.896652632e-01	-3.757752492e-04	2.225728956e-11
-7.800000000e-03	1.896652644e-01	-3.738468897e-04	1.545524576e-11
-7.900000000e-03	1.896652655e-01	-3.719185302e-04	1.427382738e-11
-8.000000000e-03	1.896652665e-01	-3.699901708e-04	7.246300577e-12
-8.100000000e-03	1.896652675e-01	-3.680618113e-04	3.134065805e-11
-8.200000000e-03	1.896652685e-01	-3.661334518e-04	1.206923762e-11
-8.300000000e-03	1.896652693e-01	-3.642050924e-04	1.177368943e-11
-8.400000000e-03	1.896652702e-01	-3.622767329e-04	7.300160912e-12
-8.500000000e-03	1.896652709e-01	-3.603483735e-04	2.192311009e-11
-8.600000000e-03	1.896652716e-01	-3.584200140e-04	3.782417376e-11
-8.700000000e-03	1.896652723e-01	-3.564916546e-04	1.118654049e-11
-8.800000000e-03	1.896652728e-01	-3.545632952e-04	1.499181217e-11
-8.900000000e-03	1.896652734e-01	-3.526349359e-04	1.185186543e-11
-9.000000000e-03	1.896652738e-01	-3.507065765e-04	1.051909498e-11
-9.100000000e-03	1.896652742e-01	-3.487782172e-04	6.816316516e-12
-9.200000000e-03	1.896652746e-01	-3.468498579e-04	8.285960801e-12
-9.300000000e-03	1.896652749e-01	-3.449214987e-04	1.076513065e-11
-9.400000000e-03	1.896652751e-01	-3.429931395e-04	9.396688315e-12
-9.500000000e-03	1.896652753e-01	-3.410647803e-04	8.275075939e-12
-9.600000000e-03	1.896652754e-01	-3.391364212e-04	1.779491460e-11
-9.700000000e-03	1.896652755e-01	-3.372080621e-04	8.777711181e-12
-9.800000000e-03	1.896652755e-01	-3.352797031e-04	1.345792667e-11
-9.900000000e-03	1.896652754e-01	-3.333513441e-04	1.846102924e-11
-1.000000000e-02	1.896652753e-01	-3.314229852e-04	9.219319495e-12
-1.010000000e-02	1.896652751e-01	-3.294946263e-04	1.054041501e-11
-1.020000000e-02	1.896652749e-01	-3.275662675e-04	1.296089288e-11
-1.030000000e-02	1.896652746e-01	-3.256379088e-04	8.856897185e-11
-1.040000000e-02	1.896652742e-01	-3.237095501e-04	1.251045597e-11
-1.050000000e-02	1.896652738e-01	-3.217811915e-04	9.802914848e-12
-1.060000000e-02	1.896652733e-01	-3.198528330e-04	2.916545358e-11
-1.070000000e-02	1.896652728e-01	-3.179244746e-04	1.116514153e-11
-1.080000000e-02	1.896652722e-01	-3.159961162e-04	8.894217217e-12
-1.090000000e-02	1.896652715e-01	-3.140677579e-04	1.605334561e-11
-1.100000000e-02	1.896652708e-01	-3.121393997e-04	7.634299820e-12
-1.110000000e-02	1.896652701e-01	-3.102110416e-04	1.527824446e-11
-1.120000000e-02	1.896652692e-01	-3.082826836e-04	8.126339520e-12
-1.130000000e-02	1.896652683e-01	-3.063543257e-04	1.897035260e-11
-1.140000000e-02	1.896652674e-01	-3.044259678e-04	8.674650930e-12
-1.150000000e-02	1.896652664e-01	-3.024976101e-04	6.282703866e-12
-1.160000000e-02	1.896652653e-01	-3.005692525e-04	9.546723841e-12
-1.170000000e-02	1.896652642e-01	-2.986408950e-04	1.761434246e-11
-1.180000000e-02	1.896652630e-01	-2.967125376e-04	2.396149657e-11
-1.190000000e-02	1.896652618e-01	-2.947841803e-04	1.147004585e-11
-1.200000000e-02	1.896652605e-01	-2.928558231e-04	1.469825422e-11
-1.210000000e-02	1.896652592e-01	-2.909274661e-04	4.896255603e-11
-1.220000000e-02	1.896652577e-01	-2.889991091e-04	5.608988260e-12
-1.230000000e-02	1.896652563e-01	-2.870707523e-04	7.430453529e-12
-1.240000000e-02	1.896652547e-01	-2.851423956e-04	5.441849803e-11
-1.250000000e-02	1.896652531e-01	-2.832140391e-04	8.389678483e-12
-1.260000000e-02	1.896652515e-01	-2.812856827e-04	3.500131417e-11
-1.270000000e-02	1.896652498e-01	-2.793573264e-04	1.457860078e-11
-1.280000000e-02	1.896652480e-01	-2.774289702e-04	1.294111228e-11
-1.290000000e-02	1.896652462e-01	-2.755006142e-04	1.894291041e-11
-1.300000000e-02	1.896652443e-01	-2.735722584e-04	8.039352980e-12
-1.310000000e-02	1.896652424e-01	-2.716439027e-04	1.495719341e-11
-1.320000000e-02	1.896652404e-01	-2.697155471e-04	9.061704102e-12
-1.330000000e-02	1.896652383e-01	-2.677871917e-04	8.826667898e-12
-1.340000000e-02	1.896652362e-01	-2.658588365e-04	9.821897040e-12
-1.350000000e-02	1.896652340e-01	-2.639304814e-04	1.219682044e-11
-1.360000000e-02	1.896652318e-01	-2.620021264e-04	1.252357960e-11
-1.370000000e-02	1.896652295e-01	-2.600737717e-04	1.720144278e-11
-1.380000000e-02	1.896652271e-01	-2.581454171e-04	1.594641131e-11
-1.390000000e-02	1.896652247e-01	-2.562170627e-04	1.300392235e-11
-1.400000000e-02	1.896652222e-01	-2.542887084e-04	9.189618710e-12
-1.410000000e-02	1.896652197e-01	-2.523603544e-04	1.674355499e-11
-1.420000000e-02	1.896652171e-01	-2.504320005e-04	1.698467790e-11
-1.430000000e-02	1.896652145e-01	-2.485036468e-04	1.172892227e-11
-1.440000000e-02	1.896652118e-01	-2.465752933e-04	1.864061572e-11
-1.450000000e-02	1.896652090e-01	-2.446469400e-04	2.228081507e-11
-1.460000000e-02	1.896652062e-01	-2.427185869e-04	1.397471522e-11
-1.470000000e-02	1.896652033e-01	-2.407902339e-04	1.412891161e-11
-1.480000000e-02	1.896652003e-01	-2.388618812e-04	1.499073130e-11
-1.490000000e-02	1.896651973e-01	-2.369335287e-04	7.194450358e-12
-1.500000000e-02	1.896651943e-01	-2.350051763e-04	9.363974625e-12
-1.510000000e-02	1.896651912e-01	-2.330768242e-04	8.071470539e-12
-1.520000000e-02	1.896651880e-01	-2.311484723e-04	9.506814724e-12
-1.530000000e-02	1.896651848e-01	-2.292201206e-04	1.385983348e-11
-1.540000000e-02	1.896651815e-01	-2.272917691e-04	1.018484829e-10
-1.550000000e-02	1.896651781e-01	-2.253634179e-04	1.055763793e-11
-1.560000000e-02	1.896651747e-01	-2.234350669e-04	1.079040226e-11
-1.570000000e-02	1.896651712e-01	-2.215067161e-04	2.136297624e-11
-1.580000000e-02	1.896651677e-01	-2.195783655e-04	2.223061237e-11
-1.590000000e-02	1.896651641e-01	-2.176500151e-04	9.895737281e-12
-1.600000000e-02	1.896651605e-01	-2.157216650e-04	2.824975342e-11
-1.610000000e-02	1.896651568e-01	-2.137933151e-04	5.481726197e-12
-1.620000000e-02	1.896651530e-01	-2.118649655e-04	6.992051723e-12
-1.630000000e-02	1.896651492e-01	-2.099366161e-04	4.938542007e-11
-1.640000000e-02	1.896651453e-01	-2.080082670e-04	2.276892485e-11
-1.650000000e-02	1.896651413e-01	-2.060799181e-04	2.813075131e-11
-1.660000000e-02	1.896651373e-01	-2.041515695e-04	1.109797096e-11
-1.670000000e-02	1.896651333e-01	-2.022232211e-04	1.759698859e-11
-1.680000000e-02	1.896651292e-01	-2.002948729e-04	1.223201781e-11
-1.690000000e-02	1.896651250e-01	-1.983665251e-04	9.101846748e-12
-1.700000000e-02	1.896651208e-01	-1.964381775e-04	2.242654232e-11
-1.710000000e-02	1.896651165e-01	-1.945098301e-04	7.233161984e-12
-1.720000000e-02	1.896651121e-01	-1.925814831e-04	5.979719703e-12
-1.730000000e-02	1.896651077e-01	-1.906531363e-04	1.644838546e-11
-1.740000000e-02	1.896651032e-01	-1.887247898e-04	1.751190735e-11
-1.750000000e-02	1.896650987e-01	-1.867964436e-04	7.971922325e-12
-1.760000000e-02	1.896650941e-01	-1.848680976e-04	1.176191350e-11
-1.770000000e-02	1.896650895e-01	-1.829397519e-04	1.414125742e-11
-1.780000000e-02	1.896650848e-01	-1.810114066e-04	3.035419327e-11
-1.790000000e-02	1.896650800e-01	-1.790830615e-04	1.787280653e-11
-1.800000000e-02	1.896650752e-01	-1.771547167e-04	9.258291688e-12
-1.810000000e-02	1.896650703e-01	-1.752263722e-04	1.618285035e-11
-1.820000000e-02	1.896650654e-01	-1.732980280e-04	1.256633945e-11
-1.830000000e-02	1.896650604e-01	-1.713696841e-04	1.088875691e-11
-1.840000000e-02	1.896650553e-01	-1.694413405e-04	8.310945611e-12
-1.850000000e-02	1.896650502e-01	-1.675129973e-04	2.103646984e-11
-1.860000000e-02	1.896650450e-01	-1.655846543e-04	7.811432507e-12
-1.870000000e-02	1.896650398e-01	-1.636563117e-04	1.388969865e-11
-1.880000000e-02	1.896650345e-01	-1.617279693e-04	8.046376020e-12
-1.890000000e-02	1.896650291e-01	-1.597996273e-04	1.690348810e-11
-1.900000000e-02	1.896650237e-01	-1.578712857e-04	9.790792240e-12
-1.910000000e-02	1.896650183e-01	-1.559429443e-04	1.041562958e-11
-1.920000000e-02	1.896650127e-01	-1.540146033e-04	1.289997263e-11
-1.930000000e-02	1.896650071e-01	-1.520862626e-04	1.359820297e-11
-1.940000000e-02	1.896650015e-01	-1.501579222e-04	9.308673029e-12
-1.950000000e-02	1.896649958e-01	-1.482295822e-04	7.042554952e-12
-1.960000000e-02	1.896649900e-01	-1.463012425e-04	7.639160828e-12
-1.970000000e-02	1.896649842e-01	-1.443729032e-04	1.100102919e-11
-1.980000000e-02	1.896649783e-01	-1.424445642e-04	7.052571199e-12
-1.990000000e-02	1.896649724e-01	-1.405162256e-04	8.926444167e-12
-2.000000000e-02	1.896649664e-01	-1.385878873e-04	1.967141531e-11
-2.010000000e-02	1.896649603e-01	-1.366595494e-04	9.859148737e-12
-2.020000000e-02	1.896649542e-01	-1.347312119e-04	1.356559208e-11
-2.030000000e-02	1.896649480e-01	-1.328028747e-04	1.739732072e-11
-2.040000000e-02	1.896649418e-01	-1.308745378e-04	1.572672123e-11
-2.050000000e-02	1.896649355e-01	-1.289462014e-04	6.388859393e-12
-2.060000000e-02	1.896649292e-01	-1.270178653e-04	1.368590809e-11
-2.070000000e-02	1.896649228e-01	-1.250895296e-04	1.610557941e-11
-2.080000000e-02	1.896649163e-01	-1.231611942e-04	7.558321544e-12
-2.090000000e-02	1.896649098e-01	-1.212328593e-04	2.739539001e-11
-2.100000000e-02	1.896649032e-01	-1.193045247e-04	2.461959501e-11
-2.110000000e-02	1.896648965e-01	-1.173761905e-04	2.692059806e-11
-2.120000000e-02	1.896648898e-01	-1.154478568e-04	9.327016140e-12
-2.130000000e-02	1.896648831e-01	-1.135195234e-04	1.770899689e-11
-2.140000000e-02	1.896648763e-01	-1.115911903e-04	2.397803953e-11
-2.150000000e-02	1.896648694e-01	-1.096628577e-04	1.562980595e-11
-2.160000000e-02	1.896648624e-01	-1.077345255e-04	1.047829579e-11
-2.170000000e-02	1.896648554e-01	-1.058061937e-04	1.237177333e-11
-2.180000000e-02	1.896648484e-01	-1.038778623e-04	4.982710550e-11
-2.190000000e-02	1.896648413e-01	-1.019495314e-04	1.962248870e-11
-2.200000000e-02	1.896648341e-01	-1.000212008e-04	8.792010050e-12
-2.210000000e-02	1.896648269e-01	-9.809287065e-05	1.088671332e-11
-2.220000000e-02	1.896648196e-01	-9.616454092e-05	1.365053620e-11
-2.230000000e-02	1.896648122e-01	-9.423621161e-05	4.332762682e-11
-2.240000000e-02	1.896648048e-01	-9.230788273e-05	6.004897290e-12
-2.250000000e-02	1.896647974e-01	-9.037955428e-05	1.787775177e-11
-2.260000000e-02	1.896647898e-01	-8.845122625e-05	8.590880322e-12
-2.270000000e-02	1.896647822e-01	-8.652289867e-05	1.182390955e-11
-2.280000000e-02	1.896647746e-01	-8.459457152e-05	1.199202590e-11
-2.290000000e-02	1.896647669e-01	-8.266624481e-05	2.143271784e-11
-2.300000000e-02	1.896647591e-01	-8.073791855e-05	1.004055113e-11
-2.310000000e-02	1.896647513e-01	-7.880959272e-05	9.541238406e-12
-2.320000000e-02	1.896647434e-01	-7.688126736e-05	1.700939980e-11
-2.330000000e-02	1.896647355e-01	-7.495294244e-05	2.638385535e-11
-2.340000000e-02	1.896647275e-01	-7.302461798e-05	1.223393675e-11
-2.350000000e-02	1.896647195e-01	-7.109629397e-05	1.028659646e-11
-2.360000000e-02	1.896647113e-01	-6.916797044e-05	3.594088753e-11
-2.370000000e-02	1.896647032e-01	-6.723964735e-05	2.768624708e-11
-2.380000000e-02	1.896646949e-01	-6.531132474e-05	3.696656310e-11
-2.390000000e-02	1.896646866e-01	-6.338300260e-05	3.757610534e-11
-2.400000000e-02	1.896646783e-01	-6.145468094e-05	1.782491644e-11
-2.410000000e-02	1.896646699e-01	-5.952635975e-05	3.715393253e-11
-2.420000000e-02	1.896646614e-01	-5.759803904e-05	8.492363284e-12
-2.430000000e-02	1.896646529e-01	-5.566971881e-05	1.132333670e-11
-2.440000000e-02	1.896646443e-01	-5.374139907e-05	3.313681796e-11
-2.450000000e-02	1.896646357e-01	-5.181307981e-05	1.895065176e-11
-2.460000000e-02	1.896646270e-01	-4.988476105e-05	8.491234928e-12
-2.470000000e-02	1.896646182e-01	-4.795644278e-05	1.657254092e-11
-2.480000000e-02	1.896646094e-01	-4.602812501e-05	1.069039671e-11
-2.490000000e-02	1.896646005e-01	-4.409980773e-05	8.896654699e-12
-2.500000000e-02	1.896645916e-01	-4.217149097e-05	9.979216849e-12
-2.510000000e-02	1.896645826e-01	-4.024317470e-05	8.307354331e-12
-2.520000000e-02	1.896645735e-01	-3.831485895e-05	7.808187776e-12
-2.530000000e-02	1.896645644e-01	-3.638654371e-05	1.795016278e-11
-2.540000000e-02	1.896645553e-01	-3.445822898e-05	1.050664624e-11
-2.550000000e-02	1.896645460e-01	-3.252991477e-05	7.136966055e-12
-2.560000000e-02	1.896645367e-01	-3.060160109e-05	1.040475097e-11
-2.570000000e-02	1.896645274e-01	-2.867328792e-05	1.037258622e-11
-2.580000000e-02	1.896645180e-01	-2.674497529e-05	4.789420926e-11
-2.590000000e-02	1.896645085e-01	-2.481666318e-05	1.108836995e-11
-2.600000000e-02	1.896644990e-01	-2.288835161e-05	7.613893265e-12
-2.610000000e-02	1.896644894e-01	-2.096004057e-05	9.196885375e-12
-2.620000000e-02	1.896644798e-01	-1.903173007e-05	1.095376394e-11
-2.630000000e-02	1.896644701e-01	-1.710342011e-05	8.120585343e-11
-2.640000000e-02	1.896644603e-01	-1.517511071e-05	3.380597717e-11
-2.650000000e-02	1.896644505e-01	-1.324680184e-05	1.335317022e-11
-2.660000000e-02	1.896644406e-01	-1.131849353e-05	1.707300208e-11
-2.670000000e-02	1.896644307e-01	-9.390185771e-06	1.689688715e-11
-2.680000000e-02	1.896644207e-01	-7.461878568e-06	4.180736700e-11
-2.690000000e-02	1.896644106e-01	-5.533571928e-06	7.888011890e-12
-2.700000000e-02	1.896644005e-01	-3.605265847e-06	1.612107089e-11
-2.710000000e-02	1.896643904e-01	-1.676960337e-06	1.818441464e-11
-2.720000000e-02	1.896643801e-01	2.513446074e-07	1.536979826e-11
-2.730000000e-02	1.896643698e-01	2.179648981e-06	7.868436218e-12
-2.740000000e-02	1.896643595e-01	4.107952779e-06	4.592582357e-12
-2.750000000e-02	1.896643491e-01	6.036256001e-06	1.017119987e-11
-2.760000000e-02	1.896643386e-01	7.964558639e-06	1.239203603e-11
-2.770000000e-02	1.896643281e-01	9.892860695e-06	1.180263612e-11
-2.780000000e-02	1.896643175e-01	1.182116216e-05	1.873185613e-11
-2.790000000e-02	1.896643069e-01	1.374946305e-05	1.338101472e-11
-2.800000000e-02	1.896642962e-01	1.567776333e-05	1.122756621e-11
-2.810000000e-02	1.896642854e-01	1.760606302e-05	8.979798043e-12
-2.820000000e-02	1.896642746e-01	1.953436211e-05	1.876543097e-11
-2.830000000e-02	1.896642637e-01	2.146266061e-05	1.980098500e-11
-2.840000000e-02	1.896642528e-01	2.339095849e-05	8.955965186e-12
-2.850000000e-02	1.896642418e-01	2.531925577e-05	1.391669177e-11
-2.860000000e-02	1.896642308e-01	2.724755244e-05	7.061942000e-12
-2.870000000e-02	1.896642196e-01	2.917584850e-05	2.248219095e-11
-2.880000000e-02	1.896642085e-01	3.110414393e-05	7.534300005e-11
-2.890000000e-02	1.896641972e-01	3.303243875e-05	2.294322076e-11
-2.900000000e-02	1.896641860e-01	3.496073295e-05	6.287546749e-12
-2.910000000e-02	1.896641746e-01	3.688902652e-05	1.345297623e-11
-2.920000000e-02	1.896641632e-01	3.881731947e-05	7.337044108e-12
-2.930000000e-02	1.896641518e-01	4.074561178e-05	1.010621290e-11
-2.940000000e-02	1.896641402e-01	4.267390345e-05	1.000970792e-11
-2.950000000e-02	1.896641286e-01	4.460219449e-05	1.407322957e-11
-2.960000000e-02	1.896641170e-01	4.653048490e-05	1.504363112e-11
-2.970000000e-02	1.896641053e-01	4.845877465e-05	6.236695086e-12
-2.980000000e-02	1.896640936e-01	5.038706376e-05	3.019682985e-11
-2.990000000e-02	1.896640817e-01	5.231535222e-05	7.258175367e-11
-3.000000000e-02	1.896640699e-01	5.424364003e-05	1.505564623e-11
