# Im(epsi1)     Re(omega/c)      Im(omega/c)      Eq(det).Opt det CON kz, R=0.5 \mum, mu_c=0.3, Re(epsi1)=3.90solve_det_conkz_vs_kz.py
0.000000000e+00	1.896810022e-01	-5.242826428e-04	1.367994702e-11
-1.000000000e-04	1.896810079e-01	-5.223542140e-04	1.048084851e-11
-2.000000000e-04	1.896810136e-01	-5.204257850e-04	8.775288954e-12
-3.000000000e-04	1.896810191e-01	-5.184973557e-04	8.629420614e-12
-4.000000000e-04	1.896810247e-01	-5.165689262e-04	1.320116191e-11
-5.000000000e-04	1.896810301e-01	-5.146404965e-04	1.178941411e-11
-6.000000000e-04	1.896810355e-01	-5.127120665e-04	2.521750832e-11
-7.000000000e-04	1.896810409e-01	-5.107836363e-04	2.228375290e-11
-8.000000000e-04	1.896810462e-01	-5.088552060e-04	1.573847641e-11
-9.000000000e-04	1.896810514e-01	-5.069267753e-04	1.353296215e-11
-1.000000000e-03	1.896810566e-01	-5.049983445e-04	1.217298420e-11
-1.100000000e-03	1.896810617e-01	-5.030699135e-04	1.489422110e-11
-1.200000000e-03	1.896810667e-01	-5.011414822e-04	2.993534713e-11
-1.300000000e-03	1.896810717e-01	-4.992130508e-04	9.829075975e-12
-1.400000000e-03	1.896810766e-01	-4.972846192e-04	1.560129143e-11
-1.500000000e-03	1.896810815e-01	-4.953561873e-04	1.386875971e-11
-1.600000000e-03	1.896810863e-01	-4.934277553e-04	1.939455075e-11
-1.700000000e-03	1.896810911e-01	-4.914993230e-04	1.895920121e-11
-1.800000000e-03	1.896810958e-01	-4.895708906e-04	2.063644192e-11
-1.900000000e-03	1.896811004e-01	-4.876424580e-04	2.108916839e-11
-2.000000000e-03	1.896811050e-01	-4.857140252e-04	1.377207480e-11
-2.100000000e-03	1.896811095e-01	-4.837855923e-04	8.620286525e-12
-2.200000000e-03	1.896811140e-01	-4.818571591e-04	1.259572902e-11
-2.300000000e-03	1.896811184e-01	-4.799287258e-04	3.254200782e-11
-2.400000000e-03	1.896811227e-01	-4.780002923e-04	8.555278666e-12
-2.500000000e-03	1.896811270e-01	-4.760718587e-04	9.192780386e-12
-2.600000000e-03	1.896811313e-01	-4.741434249e-04	2.867436232e-11
-2.700000000e-03	1.896811354e-01	-4.722149909e-04	1.388031848e-11
-2.800000000e-03	1.896811395e-01	-4.702865567e-04	3.039075417e-11
-2.900000000e-03	1.896811436e-01	-4.683581224e-04	1.175867671e-11
-3.000000000e-03	1.896811476e-01	-4.664296880e-04	3.182444704e-11
-3.100000000e-03	1.896811515e-01	-4.645012534e-04	1.641460926e-11
-3.200000000e-03	1.896811554e-01	-4.625728187e-04	6.723261663e-11
-3.300000000e-03	1.896811592e-01	-4.606443838e-04	6.539461690e-11
-3.400000000e-03	1.896811630e-01	-4.587159487e-04	9.971440508e-12
-3.500000000e-03	1.896811667e-01	-4.567875136e-04	1.120475446e-11
-3.600000000e-03	1.896811703e-01	-4.548590783e-04	8.377956517e-12
-3.700000000e-03	1.896811739e-01	-4.529306428e-04	8.223441423e-12
-3.800000000e-03	1.896811774e-01	-4.510022073e-04	1.363628201e-11
-3.900000000e-03	1.896811809e-01	-4.490737716e-04	2.153470603e-11
-4.000000000e-03	1.896811843e-01	-4.471453358e-04	7.920065067e-12
-4.100000000e-03	1.896811876e-01	-4.452168998e-04	1.331266047e-11
-4.200000000e-03	1.896811909e-01	-4.432884638e-04	1.482891508e-11
-4.300000000e-03	1.896811941e-01	-4.413600276e-04	7.443420598e-12
-4.400000000e-03	1.896811973e-01	-4.394315913e-04	8.507514815e-11
-4.500000000e-03	1.896812004e-01	-4.375031549e-04	2.002671570e-11
-4.600000000e-03	1.896812035e-01	-4.355747185e-04	1.579285362e-11
-4.700000000e-03	1.896812065e-01	-4.336462819e-04	2.684599363e-11
-4.800000000e-03	1.896812094e-01	-4.317178452e-04	1.146062603e-11
-4.900000000e-03	1.896812123e-01	-4.297894084e-04	7.208102970e-12
-5.000000000e-03	1.896812151e-01	-4.278609715e-04	2.395671571e-11
-5.100000000e-03	1.896812178e-01	-4.259325345e-04	9.399415716e-12
-5.200000000e-03	1.896812205e-01	-4.240040975e-04	1.096591583e-11
-5.300000000e-03	1.896812232e-01	-4.220756603e-04	2.254497984e-11
-5.400000000e-03	1.896812258e-01	-4.201472231e-04	1.805426899e-11
-5.500000000e-03	1.896812283e-01	-4.182187858e-04	4.228216957e-11
-5.600000000e-03	1.896812308e-01	-4.162903484e-04	2.170033684e-11
-5.700000000e-03	1.896812332e-01	-4.143619110e-04	9.792606687e-12
-5.800000000e-03	1.896812355e-01	-4.124334735e-04	9.826970409e-12
-5.900000000e-03	1.896812378e-01	-4.105050359e-04	1.168153094e-11
-6.000000000e-03	1.896812400e-01	-4.085765982e-04	1.021296746e-11
-6.100000000e-03	1.896812422e-01	-4.066481605e-04	1.497483697e-11
-6.200000000e-03	1.896812443e-01	-4.047197228e-04	8.662365457e-12
-6.300000000e-03	1.896812464e-01	-4.027912849e-04	1.409109607e-11
-6.400000000e-03	1.896812484e-01	-4.008628471e-04	1.254831822e-11
-6.500000000e-03	1.896812503e-01	-3.989344091e-04	1.267021042e-11
-6.600000000e-03	1.896812522e-01	-3.970059712e-04	3.061300592e-11
-6.700000000e-03	1.896812540e-01	-3.950775332e-04	1.377359795e-11
-6.800000000e-03	1.896812558e-01	-3.931490951e-04	8.986469469e-12
-6.900000000e-03	1.896812575e-01	-3.912206570e-04	2.854422972e-11
-7.000000000e-03	1.896812591e-01	-3.892922189e-04	9.632189825e-12
-7.100000000e-03	1.896812607e-01	-3.873637808e-04	1.121987751e-11
-7.200000000e-03	1.896812622e-01	-3.854353426e-04	1.177808513e-11
-7.300000000e-03	1.896812637e-01	-3.835069044e-04	1.153013158e-11
-7.400000000e-03	1.896812651e-01	-3.815784661e-04	1.708372202e-11
-7.500000000e-03	1.896812664e-01	-3.796500279e-04	7.540697567e-12
-7.600000000e-03	1.896812677e-01	-3.777215896e-04	1.417327715e-11
-7.700000000e-03	1.896812689e-01	-3.757931514e-04	1.671531247e-11
-7.800000000e-03	1.896812701e-01	-3.738647131e-04	1.837206156e-11
-7.900000000e-03	1.896812712e-01	-3.719362748e-04	1.817313487e-11
-8.000000000e-03	1.896812723e-01	-3.700078365e-04	1.889743370e-11
-8.100000000e-03	1.896812733e-01	-3.680793982e-04	1.792574404e-11
-8.200000000e-03	1.896812742e-01	-3.661509599e-04	1.715112302e-11
-8.300000000e-03	1.896812751e-01	-3.642225216e-04	1.443189841e-11
-8.400000000e-03	1.896812759e-01	-3.622940834e-04	8.624115105e-11
-8.500000000e-03	1.896812767e-01	-3.603656451e-04	1.398661302e-11
-8.600000000e-03	1.896812774e-01	-3.584372068e-04	6.098280028e-12
-8.700000000e-03	1.896812780e-01	-3.565087686e-04	8.901716626e-12
-8.800000000e-03	1.896812786e-01	-3.545803304e-04	2.847902163e-12
-8.900000000e-03	1.896812791e-01	-3.526518922e-04	6.369758563e-12
-9.000000000e-03	1.896812796e-01	-3.507234540e-04	9.267510581e-12
-9.100000000e-03	1.896812800e-01	-3.487950159e-04	2.975327075e-11
-9.200000000e-03	1.896812804e-01	-3.468665778e-04	7.534495032e-11
-9.300000000e-03	1.896812806e-01	-3.449381397e-04	6.916215035e-12
-9.400000000e-03	1.896812809e-01	-3.430097017e-04	2.032309084e-11
-9.500000000e-03	1.896812810e-01	-3.410812637e-04	2.660812199e-11
-9.600000000e-03	1.896812812e-01	-3.391528258e-04	2.270305376e-11
-9.700000000e-03	1.896812812e-01	-3.372243879e-04	1.549243259e-11
-9.800000000e-03	1.896812812e-01	-3.352959500e-04	7.200693410e-12
-9.900000000e-03	1.896812812e-01	-3.333675122e-04	9.341471496e-12
-1.000000000e-02	1.896812810e-01	-3.314390745e-04	2.482467800e-11
-1.010000000e-02	1.896812808e-01	-3.295106368e-04	1.316314256e-11
-1.020000000e-02	1.896812806e-01	-3.275821992e-04	3.478247138e-11
-1.030000000e-02	1.896812803e-01	-3.256537616e-04	8.334077457e-12
-1.040000000e-02	1.896812800e-01	-3.237253241e-04	4.507843977e-11
-1.050000000e-02	1.896812795e-01	-3.217968867e-04	8.005955261e-12
-1.060000000e-02	1.896812791e-01	-3.198684494e-04	8.964549327e-12
-1.070000000e-02	1.896812785e-01	-3.179400121e-04	8.122493884e-12
-1.080000000e-02	1.896812779e-01	-3.160115749e-04	1.518204916e-11
-1.090000000e-02	1.896812773e-01	-3.140831378e-04	1.132772576e-11
-1.100000000e-02	1.896812766e-01	-3.121547008e-04	1.893380910e-11
-1.110000000e-02	1.896812758e-01	-3.102262639e-04	1.777504164e-11
-1.120000000e-02	1.896812750e-01	-3.082978270e-04	6.071551474e-12
-1.130000000e-02	1.896812741e-01	-3.063693903e-04	1.205493615e-11
-1.140000000e-02	1.896812732e-01	-3.044409536e-04	1.889067668e-11
-1.150000000e-02	1.896812722e-01	-3.025125171e-04	1.095566692e-11
-1.160000000e-02	1.896812711e-01	-3.005840806e-04	8.557794309e-12
-1.170000000e-02	1.896812700e-01	-2.986556443e-04	2.196203965e-11
-1.180000000e-02	1.896812688e-01	-2.967272081e-04	1.342113255e-11
-1.190000000e-02	1.896812676e-01	-2.947987720e-04	4.992480503e-12
-1.200000000e-02	1.896812663e-01	-2.928703360e-04	1.129564156e-11
-1.210000000e-02	1.896812649e-01	-2.909419001e-04	9.633447880e-12
-1.220000000e-02	1.896812635e-01	-2.890134643e-04	1.487068289e-11
-1.230000000e-02	1.896812620e-01	-2.870850287e-04	3.269441771e-11
-1.240000000e-02	1.896812605e-01	-2.851565932e-04	9.801067273e-12
-1.250000000e-02	1.896812589e-01	-2.832281578e-04	1.485757240e-11
-1.260000000e-02	1.896812573e-01	-2.812997226e-04	1.749116149e-11
-1.270000000e-02	1.896812555e-01	-2.793712875e-04	9.731573785e-12
-1.280000000e-02	1.896812538e-01	-2.774428525e-04	8.597059046e-12
-1.290000000e-02	1.896812520e-01	-2.755144177e-04	1.959517686e-11
-1.300000000e-02	1.896812501e-01	-2.735859830e-04	1.052454128e-11
-1.310000000e-02	1.896812481e-01	-2.716575485e-04	1.372612950e-11
-1.320000000e-02	1.896812461e-01	-2.697291141e-04	2.346439982e-11
-1.330000000e-02	1.896812441e-01	-2.678006799e-04	1.803308328e-11
-1.340000000e-02	1.896812419e-01	-2.658722458e-04	8.660150488e-12
-1.350000000e-02	1.896812398e-01	-2.639438119e-04	1.264516150e-11
-1.360000000e-02	1.896812375e-01	-2.620153781e-04	4.166614587e-11
-1.370000000e-02	1.896812352e-01	-2.600869446e-04	1.273601004e-11
-1.380000000e-02	1.896812329e-01	-2.581585111e-04	1.120536602e-11
-1.390000000e-02	1.896812305e-01	-2.562300779e-04	7.494602353e-12
-1.400000000e-02	1.896812280e-01	-2.543016448e-04	2.255043842e-11
-1.410000000e-02	1.896812255e-01	-2.523732120e-04	2.262944092e-11
-1.420000000e-02	1.896812229e-01	-2.504447793e-04	1.465423536e-11
-1.430000000e-02	1.896812202e-01	-2.485163467e-04	3.182260389e-11
-1.440000000e-02	1.896812175e-01	-2.465879144e-04	1.338776275e-11
-1.450000000e-02	1.896812148e-01	-2.446594823e-04	1.336409564e-10
-1.460000000e-02	1.896812119e-01	-2.427310503e-04	1.302353945e-11
-1.470000000e-02	1.896812091e-01	-2.408026186e-04	8.712918915e-12
-1.480000000e-02	1.896812061e-01	-2.388741870e-04	2.360721735e-11
-1.490000000e-02	1.896812031e-01	-2.369457557e-04	2.890264243e-11
-1.500000000e-02	1.896812001e-01	-2.350173245e-04	3.221009552e-11
-1.510000000e-02	1.896811969e-01	-2.330888936e-04	1.421110605e-11
-1.520000000e-02	1.896811938e-01	-2.311604628e-04	1.068446876e-11
-1.530000000e-02	1.896811905e-01	-2.292320323e-04	2.146259394e-11
-1.540000000e-02	1.896811872e-01	-2.273036020e-04	6.068873207e-12
-1.550000000e-02	1.896811839e-01	-2.253751720e-04	1.366272974e-11
-1.560000000e-02	1.896811805e-01	-2.234467421e-04	9.782122056e-12
-1.570000000e-02	1.896811770e-01	-2.215183125e-04	2.197361373e-11
-1.580000000e-02	1.896811735e-01	-2.195898831e-04	1.629030913e-11
-1.590000000e-02	1.896811699e-01	-2.176614539e-04	1.828378168e-11
-1.600000000e-02	1.896811662e-01	-2.157330250e-04	2.220016737e-11
-1.610000000e-02	1.896811625e-01	-2.138045963e-04	1.475330922e-11
-1.620000000e-02	1.896811588e-01	-2.118761678e-04	1.052485727e-11
-1.630000000e-02	1.896811549e-01	-2.099477396e-04	9.778420607e-12
-1.640000000e-02	1.896811511e-01	-2.080193116e-04	1.500449925e-11
-1.650000000e-02	1.896811471e-01	-2.060908839e-04	2.036150228e-11
-1.660000000e-02	1.896811431e-01	-2.041624565e-04	6.572319009e-12
-1.670000000e-02	1.896811391e-01	-2.022340293e-04	1.492473623e-11
-1.680000000e-02	1.896811349e-01	-2.003056023e-04	1.412075015e-11
-1.690000000e-02	1.896811308e-01	-1.983771756e-04	1.070894606e-11
-1.700000000e-02	1.896811265e-01	-1.964487492e-04	1.014896807e-11
-1.710000000e-02	1.896811222e-01	-1.945203230e-04	1.468589036e-11
-1.720000000e-02	1.896811179e-01	-1.925918972e-04	9.177072115e-12
-1.730000000e-02	1.896811135e-01	-1.906634715e-04	1.115276785e-11
-1.740000000e-02	1.896811090e-01	-1.887350462e-04	1.570251450e-11
-1.750000000e-02	1.896811045e-01	-1.868066212e-04	2.238810063e-11
-1.760000000e-02	1.896810999e-01	-1.848781964e-04	1.067599056e-11
-1.770000000e-02	1.896810952e-01	-1.829497719e-04	7.354918685e-12
-1.780000000e-02	1.896810905e-01	-1.810213477e-04	6.470741660e-12
-1.790000000e-02	1.896810858e-01	-1.790929238e-04	2.573976692e-11
-1.800000000e-02	1.896810809e-01	-1.771645002e-04	1.855941198e-11
-1.810000000e-02	1.896810761e-01	-1.752360769e-04	7.369923991e-12
-1.820000000e-02	1.896810711e-01	-1.733076539e-04	7.486929140e-12
-1.830000000e-02	1.896810661e-01	-1.713792311e-04	1.760415293e-11
-1.840000000e-02	1.896810611e-01	-1.694508087e-04	2.789322634e-11
-1.850000000e-02	1.896810560e-01	-1.675223867e-04	1.356402801e-11
-1.860000000e-02	1.896810508e-01	-1.655939649e-04	1.064352032e-11
-1.870000000e-02	1.896810455e-01	-1.636655434e-04	1.314794708e-11
-1.880000000e-02	1.896810403e-01	-1.617371223e-04	8.993515497e-12
-1.890000000e-02	1.896810349e-01	-1.598087014e-04	3.554878058e-11
-1.900000000e-02	1.896810295e-01	-1.578802809e-04	1.310157689e-11
-1.910000000e-02	1.896810240e-01	-1.559518607e-04	9.625133697e-12
-1.920000000e-02	1.896810185e-01	-1.540234409e-04	8.006640800e-12
-1.930000000e-02	1.896810129e-01	-1.520950214e-04	2.625474739e-11
-1.940000000e-02	1.896810073e-01	-1.501666022e-04	5.743942351e-12
-1.950000000e-02	1.896810016e-01	-1.482381834e-04	3.665903307e-11
-1.960000000e-02	1.896809958e-01	-1.463097649e-04	1.515664858e-11
-1.970000000e-02	1.896809900e-01	-1.443813467e-04	1.357291154e-11
-1.980000000e-02	1.896809841e-01	-1.424529289e-04	1.372100778e-11
-1.990000000e-02	1.896809782e-01	-1.405245115e-04	1.160224662e-11
-2.000000000e-02	1.896809722e-01	-1.385960944e-04	1.715460783e-11
-2.010000000e-02	1.896809661e-01	-1.366676776e-04	1.449040937e-11
-2.020000000e-02	1.896809600e-01	-1.347392613e-04	1.497833574e-11
-2.030000000e-02	1.896809538e-01	-1.328108452e-04	8.167521738e-11
-2.040000000e-02	1.896809476e-01	-1.308824296e-04	9.056034974e-12
-2.050000000e-02	1.896809413e-01	-1.289540143e-04	1.116775371e-11
-2.060000000e-02	1.896809349e-01	-1.270255994e-04	1.693668647e-11
-2.070000000e-02	1.896809285e-01	-1.250971849e-04	6.726186897e-11
-2.080000000e-02	1.896809221e-01	-1.231687707e-04	9.641758702e-12
-2.090000000e-02	1.896809155e-01	-1.212403569e-04	6.780650412e-11
-2.100000000e-02	1.896809090e-01	-1.193119435e-04	1.017576617e-11
-2.110000000e-02	1.896809023e-01	-1.173835305e-04	3.013006547e-11
-2.120000000e-02	1.896808956e-01	-1.154551179e-04	1.283205448e-11
-2.130000000e-02	1.896808888e-01	-1.135267057e-04	1.023629452e-11
-2.140000000e-02	1.896808820e-01	-1.115982939e-04	5.992332705e-12
-2.150000000e-02	1.896808751e-01	-1.096698824e-04	5.998360090e-12
-2.160000000e-02	1.896808682e-01	-1.077414714e-04	2.452365270e-11
-2.170000000e-02	1.896808612e-01	-1.058130608e-04	1.730973825e-11
-2.180000000e-02	1.896808542e-01	-1.038846506e-04	2.960320815e-11
-2.190000000e-02	1.896808470e-01	-1.019562408e-04	1.475847738e-11
-2.200000000e-02	1.896808399e-01	-1.000278314e-04	8.154902486e-12
-2.210000000e-02	1.896808326e-01	-9.809942240e-05	2.000055140e-11
-2.220000000e-02	1.896808253e-01	-9.617101384e-05	9.074121815e-12
-2.230000000e-02	1.896808180e-01	-9.424260571e-05	7.152272019e-12
-2.240000000e-02	1.896808106e-01	-9.231419801e-05	1.732967971e-11
-2.250000000e-02	1.896808031e-01	-9.038579073e-05	7.182819789e-12
-2.260000000e-02	1.896807956e-01	-8.845738388e-05	7.979301346e-12
-2.270000000e-02	1.896807880e-01	-8.652897747e-05	7.893960728e-12
-2.280000000e-02	1.896807804e-01	-8.460057150e-05	1.108372421e-11
-2.290000000e-02	1.896807727e-01	-8.267216597e-05	3.512644005e-11
-2.300000000e-02	1.896807649e-01	-8.074376088e-05	1.638445513e-10
-2.310000000e-02	1.896807571e-01	-7.881535623e-05	7.496338570e-12
-2.320000000e-02	1.896807492e-01	-7.688695204e-05	7.694719343e-12
-2.330000000e-02	1.896807413e-01	-7.495854830e-05	8.969376590e-12
-2.340000000e-02	1.896807333e-01	-7.303014501e-05	3.348335581e-11
-2.350000000e-02	1.896807252e-01	-7.110174219e-05	1.133062143e-11
-2.360000000e-02	1.896807171e-01	-6.917333982e-05	2.039390613e-11
-2.370000000e-02	1.896807089e-01	-6.724493792e-05	1.121591504e-11
-2.380000000e-02	1.896807007e-01	-6.531653649e-05	1.422101937e-11
-2.390000000e-02	1.896806924e-01	-6.338813553e-05	1.331210904e-11
-2.400000000e-02	1.896806841e-01	-6.145973503e-05	2.101971083e-11
-2.410000000e-02	1.896806757e-01	-5.953133502e-05	1.942451847e-11
-2.420000000e-02	1.896806672e-01	-5.760293549e-05	7.292954441e-12
-2.430000000e-02	1.896806587e-01	-5.567453643e-05	9.286788373e-12
-2.440000000e-02	1.896806501e-01	-5.374613787e-05	9.429135554e-12
-2.450000000e-02	1.896806414e-01	-5.181773979e-05	1.106143971e-11
-2.460000000e-02	1.896806327e-01	-4.988934220e-05	1.285754300e-11
-2.470000000e-02	1.896806240e-01	-4.796094511e-05	2.092175257e-11
-2.480000000e-02	1.896806152e-01	-4.603254851e-05	4.234741086e-11
-2.490000000e-02	1.896806063e-01	-4.410415242e-05	4.146709459e-11
-2.500000000e-02	1.896805974e-01	-4.217575682e-05	1.524211449e-11
-2.510000000e-02	1.896805884e-01	-4.024736174e-05	2.983812796e-11
-2.520000000e-02	1.896805793e-01	-3.831896716e-05	1.657428590e-11
-2.530000000e-02	1.896805702e-01	-3.639057309e-05	1.007865292e-11
-2.540000000e-02	1.896805610e-01	-3.446217954e-05	1.001661811e-11
-2.550000000e-02	1.896805518e-01	-3.253378651e-05	2.021488271e-10
-2.560000000e-02	1.896805425e-01	-3.060539400e-05	6.200256813e-12
-2.570000000e-02	1.896805332e-01	-2.867700201e-05	1.412567948e-11
-2.580000000e-02	1.896805238e-01	-2.674861055e-05	1.495208375e-11
-2.590000000e-02	1.896805143e-01	-2.482021962e-05	1.536432094e-11
-2.600000000e-02	1.896805048e-01	-2.289182923e-05	1.299485973e-11
-2.610000000e-02	1.896804952e-01	-2.096343937e-05	2.095616424e-11
-2.620000000e-02	1.896804855e-01	-1.903505004e-05	1.544128350e-11
-2.630000000e-02	1.896804758e-01	-1.710666126e-05	1.201319564e-11
-2.640000000e-02	1.896804661e-01	-1.517827303e-05	1.179674056e-11
-2.650000000e-02	1.896804563e-01	-1.324988534e-05	1.829630131e-11
-2.660000000e-02	1.896804464e-01	-1.132149820e-05	4.691884487e-12
-2.670000000e-02	1.896804365e-01	-9.393111608e-06	3.288055913e-10
-2.680000000e-02	1.896804265e-01	-7.464725594e-06	1.261021746e-11
-2.690000000e-02	1.896804164e-01	-5.536340128e-06	4.368229811e-11
-2.700000000e-02	1.896804063e-01	-3.607955226e-06	5.777832055e-11
-2.710000000e-02	1.896803961e-01	-1.679570887e-06	1.368057293e-11
-2.720000000e-02	1.896803859e-01	2.488128824e-07	1.337490980e-11
-2.730000000e-02	1.896803756e-01	2.177196080e-06	9.165421778e-12
-2.740000000e-02	1.896803653e-01	4.105578705e-06	3.142927925e-11
-2.750000000e-02	1.896803549e-01	6.033960748e-06	2.885241278e-11
-2.760000000e-02	1.896803444e-01	7.962342211e-06	1.507995736e-11
-2.770000000e-02	1.896803339e-01	9.890723093e-06	2.364114947e-11
-2.780000000e-02	1.896803233e-01	1.181910339e-05	2.540272803e-11
-2.790000000e-02	1.896803127e-01	1.374748309e-05	1.390926426e-11
-2.800000000e-02	1.896803020e-01	1.567586220e-05	7.043861891e-12
-2.810000000e-02	1.896802912e-01	1.760424072e-05	3.070128321e-11
-2.820000000e-02	1.896802804e-01	1.953261864e-05	1.578572362e-11
-2.830000000e-02	1.896802695e-01	2.146099595e-05	4.790061106e-11
-2.840000000e-02	1.896802586e-01	2.338937266e-05	6.976231927e-12
-2.850000000e-02	1.896802476e-01	2.531774877e-05	1.870645259e-11
-2.860000000e-02	1.896802365e-01	2.724612426e-05	2.024640417e-11
-2.870000000e-02	1.896802254e-01	2.917449914e-05	1.961576003e-11
-2.880000000e-02	1.896802143e-01	3.110287340e-05	3.040756991e-11
-2.890000000e-02	1.896802030e-01	3.303124705e-05	8.990269610e-12
-2.900000000e-02	1.896801917e-01	3.495962007e-05	1.187479863e-11
-2.910000000e-02	1.896801804e-01	3.688799246e-05	1.684120984e-11
-2.920000000e-02	1.896801690e-01	3.881636423e-05	5.777016129e-12
-2.930000000e-02	1.896801575e-01	4.074473537e-05	1.730455538e-11
-2.940000000e-02	1.896801460e-01	4.267310587e-05	1.636531823e-11
-2.950000000e-02	1.896801344e-01	4.460147574e-05	9.709342802e-12
-2.960000000e-02	1.896801228e-01	4.652984496e-05	2.175954737e-11
-2.970000000e-02	1.896801111e-01	4.845821354e-05	8.276574912e-12
-2.980000000e-02	1.896800993e-01	5.038658148e-05	2.528251846e-11
-2.990000000e-02	1.896800875e-01	5.231494876e-05	7.714056157e-12
-3.000000000e-02	1.896800756e-01	5.424331540e-05	1.310754943e-11
