# Im(epsi1)     Re(omega/c)      Im(omega/c)      Eq(det).Opt det CON kz, R=0.5 \mum, mu_c=0.3, Re(epsi1)=3.90solve_det_conkz_vs_kz.py
0.000000000e+00	1.896427780e-01	-5.242052571e-04	3.346167641e-11
-1.000000000e-04	1.896427837e-01	-5.222770159e-04	1.839911151e-11
-2.000000000e-04	1.896427893e-01	-5.203487746e-04	1.511080935e-11
-3.000000000e-04	1.896427949e-01	-5.184205330e-04	1.323880295e-11
-4.000000000e-04	1.896428004e-01	-5.164922911e-04	1.129079048e-11
-5.000000000e-04	1.896428059e-01	-5.145640491e-04	2.048762633e-11
-6.000000000e-04	1.896428113e-01	-5.126358068e-04	4.209446295e-12
-7.000000000e-04	1.896428166e-01	-5.107075643e-04	1.270462896e-11
-8.000000000e-04	1.896428219e-01	-5.087793216e-04	1.776820325e-11
-9.000000000e-04	1.896428271e-01	-5.068510787e-04	9.620167905e-12
-1.000000000e-03	1.896428323e-01	-5.049228355e-04	1.231722174e-11
-1.100000000e-03	1.896428374e-01	-5.029945922e-04	1.123580847e-11
-1.200000000e-03	1.896428425e-01	-5.010663486e-04	1.227211682e-11
-1.300000000e-03	1.896428474e-01	-4.991381048e-04	1.690115455e-11
-1.400000000e-03	1.896428524e-01	-4.972098609e-04	1.765815322e-11
-1.500000000e-03	1.896428573e-01	-4.952816167e-04	4.137069480e-12
-1.600000000e-03	1.896428621e-01	-4.933533724e-04	9.748415368e-12
-1.700000000e-03	1.896428668e-01	-4.914251278e-04	8.469697961e-12
-1.800000000e-03	1.896428715e-01	-4.894968831e-04	1.522202300e-11
-1.900000000e-03	1.896428762e-01	-4.875686381e-04	1.782709298e-11
-2.000000000e-03	1.896428807e-01	-4.856403930e-04	1.034484788e-11
-2.100000000e-03	1.896428853e-01	-4.837121478e-04	1.310649666e-11
-2.200000000e-03	1.896428897e-01	-4.817839023e-04	1.210684495e-11
-2.300000000e-03	1.896428941e-01	-4.798556566e-04	3.695568409e-11
-2.400000000e-03	1.896428985e-01	-4.779274108e-04	2.608072567e-11
-2.500000000e-03	1.896429028e-01	-4.759991649e-04	1.135409455e-11
-2.600000000e-03	1.896429070e-01	-4.740709187e-04	1.682162662e-11
-2.700000000e-03	1.896429111e-01	-4.721426724e-04	1.278081504e-11
-2.800000000e-03	1.896429153e-01	-4.702144260e-04	1.018183807e-11
-2.900000000e-03	1.896429193e-01	-4.682861794e-04	4.208362175e-11
-3.000000000e-03	1.896429233e-01	-4.663579326e-04	8.583044433e-11
-3.100000000e-03	1.896429272e-01	-4.644296857e-04	1.385527649e-11
-3.200000000e-03	1.896429311e-01	-4.625014386e-04	3.796194841e-11
-3.300000000e-03	1.896429349e-01	-4.605731914e-04	5.377531164e-11
-3.400000000e-03	1.896429387e-01	-4.586449440e-04	1.259478629e-11
-3.500000000e-03	1.896429424e-01	-4.567166965e-04	2.678646299e-11
-3.600000000e-03	1.896429460e-01	-4.547884489e-04	3.995134807e-11
-3.700000000e-03	1.896429496e-01	-4.528602012e-04	7.947580481e-12
-3.800000000e-03	1.896429531e-01	-4.509319533e-04	2.416409379e-11
-3.900000000e-03	1.896429566e-01	-4.490037053e-04	9.255003993e-11
-4.000000000e-03	1.896429600e-01	-4.470754571e-04	1.319000345e-11
-4.100000000e-03	1.896429633e-01	-4.451472089e-04	2.326932434e-11
-4.200000000e-03	1.896429666e-01	-4.432189605e-04	1.183583507e-11
-4.300000000e-03	1.896429698e-01	-4.412907120e-04	1.541609927e-11
-4.400000000e-03	1.896429730e-01	-4.393624634e-04	1.172143260e-11
-4.500000000e-03	1.896429761e-01	-4.374342147e-04	1.079853182e-11
-4.600000000e-03	1.896429792e-01	-4.355059659e-04	8.029556281e-12
-4.700000000e-03	1.896429822e-01	-4.335777170e-04	5.669869427e-12
-4.800000000e-03	1.896429851e-01	-4.316494680e-04	1.646660465e-11
-4.900000000e-03	1.896429880e-01	-4.297212189e-04	1.380531540e-11
-5.000000000e-03	1.896429908e-01	-4.277929697e-04	1.910037947e-11
-5.100000000e-03	1.896429936e-01	-4.258647204e-04	1.570829037e-11
-5.200000000e-03	1.896429963e-01	-4.239364710e-04	1.477844750e-11
-5.300000000e-03	1.896429989e-01	-4.220082215e-04	8.716953622e-12
-5.400000000e-03	1.896430015e-01	-4.200799720e-04	1.938357362e-11
-5.500000000e-03	1.896430040e-01	-4.181517224e-04	9.491348270e-12
-5.600000000e-03	1.896430065e-01	-4.162234727e-04	1.383759627e-11
-5.700000000e-03	1.896430089e-01	-4.142952229e-04	3.679620985e-11
-5.800000000e-03	1.896430112e-01	-4.123669731e-04	4.850964396e-11
-5.900000000e-03	1.896430135e-01	-4.104387231e-04	1.278367341e-11
-6.000000000e-03	1.896430157e-01	-4.085104732e-04	5.954658402e-12
-6.100000000e-03	1.896430179e-01	-4.065822231e-04	1.611368747e-11
-6.200000000e-03	1.896430200e-01	-4.046539731e-04	9.303055454e-12
-6.300000000e-03	1.896430221e-01	-4.027257229e-04	1.228927882e-11
-6.400000000e-03	1.896430241e-01	-4.007974727e-04	3.151905957e-11
-6.500000000e-03	1.896430260e-01	-3.988692225e-04	8.309814510e-12
-6.600000000e-03	1.896430279e-01	-3.969409722e-04	5.887331151e-12
-6.700000000e-03	1.896430297e-01	-3.950127219e-04	1.568303524e-11
-6.800000000e-03	1.896430314e-01	-3.930844715e-04	1.196606865e-11
-6.900000000e-03	1.896430331e-01	-3.911562211e-04	1.678946439e-11
-7.000000000e-03	1.896430348e-01	-3.892279706e-04	1.142560914e-11
-7.100000000e-03	1.896430364e-01	-3.872997202e-04	5.198960481e-11
-7.200000000e-03	1.896430379e-01	-3.853714697e-04	3.463579692e-11
-7.300000000e-03	1.896430394e-01	-3.834432191e-04	1.251651262e-11
-7.400000000e-03	1.896430408e-01	-3.815149686e-04	7.461193294e-11
-7.500000000e-03	1.896430421e-01	-3.795867180e-04	2.418454195e-11
-7.600000000e-03	1.896430434e-01	-3.776584675e-04	1.140122742e-11
-7.700000000e-03	1.896430446e-01	-3.757302169e-04	1.518463635e-11
-7.800000000e-03	1.896430458e-01	-3.738019663e-04	8.417205164e-12
-7.900000000e-03	1.896430469e-01	-3.718737157e-04	1.199361077e-11
-8.000000000e-03	1.896430480e-01	-3.699454650e-04	1.174103897e-11
-8.100000000e-03	1.896430490e-01	-3.680172144e-04	1.002903579e-11
-8.200000000e-03	1.896430499e-01	-3.660889638e-04	3.475480333e-11
-8.300000000e-03	1.896430508e-01	-3.641607132e-04	7.481353978e-12
-8.400000000e-03	1.896430516e-01	-3.622324626e-04	1.121666902e-11
-8.500000000e-03	1.896430524e-01	-3.603042120e-04	1.268228428e-11
-8.600000000e-03	1.896430531e-01	-3.583759615e-04	1.033116746e-11
-8.700000000e-03	1.896430537e-01	-3.564477109e-04	1.014211294e-10
-8.800000000e-03	1.896430543e-01	-3.545194604e-04	1.171192377e-11
-8.900000000e-03	1.896430548e-01	-3.525912099e-04	1.223179677e-11
-9.000000000e-03	1.896430553e-01	-3.506629594e-04	1.081953586e-11
-9.100000000e-03	1.896430557e-01	-3.487347089e-04	1.742772277e-11
-9.200000000e-03	1.896430560e-01	-3.468064585e-04	3.568525501e-11
-9.300000000e-03	1.896430563e-01	-3.448782081e-04	1.452054077e-11
-9.400000000e-03	1.896430566e-01	-3.429499577e-04	4.485251520e-11
-9.500000000e-03	1.896430567e-01	-3.410217074e-04	2.277867094e-11
-9.600000000e-03	1.896430568e-01	-3.390934572e-04	8.328771689e-12
-9.700000000e-03	1.896430569e-01	-3.371652069e-04	8.285338315e-12
-9.800000000e-03	1.896430569e-01	-3.352369568e-04	7.061095877e-11
-9.900000000e-03	1.896430568e-01	-3.333087067e-04	3.383761268e-11
-1.000000000e-02	1.896430567e-01	-3.313804566e-04	2.039495108e-11
-1.010000000e-02	1.896430565e-01	-3.294522066e-04	1.666824166e-11
-1.020000000e-02	1.896430563e-01	-3.275239567e-04	1.224464347e-11
-1.030000000e-02	1.896430560e-01	-3.255957068e-04	6.608900146e-12
-1.040000000e-02	1.896430556e-01	-3.236674570e-04	9.366852917e-12
-1.050000000e-02	1.896430552e-01	-3.217392072e-04	1.154949267e-11
-1.060000000e-02	1.896430547e-01	-3.198109576e-04	8.626265217e-12
-1.070000000e-02	1.896430542e-01	-3.178827080e-04	1.390344492e-11
-1.080000000e-02	1.896430536e-01	-3.159544585e-04	2.530045791e-11
-1.090000000e-02	1.896430530e-01	-3.140262091e-04	7.900920004e-12
-1.100000000e-02	1.896430523e-01	-3.120979597e-04	1.716366108e-11
-1.110000000e-02	1.896430515e-01	-3.101697105e-04	1.259255697e-11
-1.120000000e-02	1.896430507e-01	-3.082414613e-04	8.827788319e-12
-1.130000000e-02	1.896430498e-01	-3.063132122e-04	1.700778212e-11
-1.140000000e-02	1.896430488e-01	-3.043849633e-04	2.040683112e-11
-1.150000000e-02	1.896430478e-01	-3.024567144e-04	1.548099385e-11
-1.160000000e-02	1.896430468e-01	-3.005284657e-04	1.545093377e-11
-1.170000000e-02	1.896430456e-01	-2.986002170e-04	1.558909416e-11
-1.180000000e-02	1.896430445e-01	-2.966719684e-04	4.998673302e-12
-1.190000000e-02	1.896430432e-01	-2.947437200e-04	2.709293558e-11
-1.200000000e-02	1.896430419e-01	-2.928154717e-04	1.026999246e-11
-1.210000000e-02	1.896430406e-01	-2.908872235e-04	1.260258751e-11
-1.220000000e-02	1.896430392e-01	-2.889589754e-04	1.090181586e-11
-1.230000000e-02	1.896430377e-01	-2.870307275e-04	1.535415592e-11
-1.240000000e-02	1.896430361e-01	-2.851024796e-04	6.723382193e-12
-1.250000000e-02	1.896430346e-01	-2.831742320e-04	3.025849764e-11
-1.260000000e-02	1.896430329e-01	-2.812459844e-04	8.863431294e-12
-1.270000000e-02	1.896430312e-01	-2.793177370e-04	1.423883565e-11
-1.280000000e-02	1.896430294e-01	-2.773894897e-04	7.538436554e-12
-1.290000000e-02	1.896430276e-01	-2.754612425e-04	1.912289188e-11
-1.300000000e-02	1.896430257e-01	-2.735329955e-04	2.981381391e-11
-1.310000000e-02	1.896430238e-01	-2.716047487e-04	7.910398064e-12
-1.320000000e-02	1.896430218e-01	-2.696765020e-04	2.235383866e-11
-1.330000000e-02	1.896430197e-01	-2.677482554e-04	9.369697038e-12
-1.340000000e-02	1.896430176e-01	-2.658200091e-04	1.098721656e-11
-1.350000000e-02	1.896430154e-01	-2.638917628e-04	1.395844164e-11
-1.360000000e-02	1.896430132e-01	-2.619635168e-04	8.196197850e-12
-1.370000000e-02	1.896430109e-01	-2.600352709e-04	1.020492602e-11
-1.380000000e-02	1.896430085e-01	-2.581070251e-04	1.070480523e-11
-1.390000000e-02	1.896430061e-01	-2.561787796e-04	3.847622734e-11
-1.400000000e-02	1.896430036e-01	-2.542505342e-04	1.414388896e-11
-1.410000000e-02	1.896430011e-01	-2.523222890e-04	1.215717629e-11
-1.420000000e-02	1.896429985e-01	-2.503940440e-04	2.886610456e-11
-1.430000000e-02	1.896429959e-01	-2.484657991e-04	1.508608218e-11
-1.440000000e-02	1.896429932e-01	-2.465375545e-04	5.546737568e-12
-1.450000000e-02	1.896429904e-01	-2.446093100e-04	1.366559592e-11
-1.460000000e-02	1.896429876e-01	-2.426810658e-04	6.419663492e-12
-1.470000000e-02	1.896429847e-01	-2.407528217e-04	2.143977316e-11
-1.480000000e-02	1.896429817e-01	-2.388245778e-04	6.060488420e-12
-1.490000000e-02	1.896429787e-01	-2.368963341e-04	2.106284299e-11
-1.500000000e-02	1.896429757e-01	-2.349680907e-04	1.452579668e-11
-1.510000000e-02	1.896429726e-01	-2.330398474e-04	1.725990851e-11
-1.520000000e-02	1.896429694e-01	-2.311116044e-04	1.407383706e-11
-1.530000000e-02	1.896429662e-01	-2.291833615e-04	1.451728082e-11
-1.540000000e-02	1.896429629e-01	-2.272551189e-04	1.110480287e-11
-1.550000000e-02	1.896429595e-01	-2.253268765e-04	1.054177019e-11
-1.560000000e-02	1.896429561e-01	-2.233986344e-04	1.178896762e-11
-1.570000000e-02	1.896429526e-01	-2.214703924e-04	5.317021683e-11
-1.580000000e-02	1.896429491e-01	-2.195421507e-04	4.311424803e-11
-1.590000000e-02	1.896429455e-01	-2.176139092e-04	1.912017496e-11
-1.600000000e-02	1.896429419e-01	-2.156856679e-04	5.314832111e-11
-1.610000000e-02	1.896429381e-01	-2.137574269e-04	1.195109412e-11
-1.620000000e-02	1.896429344e-01	-2.118291862e-04	1.138610781e-11
-1.630000000e-02	1.896429306e-01	-2.099009456e-04	6.890038789e-12
-1.640000000e-02	1.896429267e-01	-2.079727054e-04	1.441335898e-11
-1.650000000e-02	1.896429227e-01	-2.060444653e-04	4.431596023e-11
-1.660000000e-02	1.896429187e-01	-2.041162256e-04	2.394393614e-11
-1.670000000e-02	1.896429147e-01	-2.021879860e-04	1.458161594e-11
-1.680000000e-02	1.896429106e-01	-2.002597468e-04	1.265719539e-11
-1.690000000e-02	1.896429064e-01	-1.983315078e-04	1.941370560e-11
-1.700000000e-02	1.896429021e-01	-1.964032690e-04	9.342561447e-12
-1.710000000e-02	1.896428978e-01	-1.944750305e-04	7.534390789e-12
-1.720000000e-02	1.896428935e-01	-1.925467923e-04	1.208031048e-11
-1.730000000e-02	1.896428891e-01	-1.906185544e-04	1.584897779e-11
-1.740000000e-02	1.896428846e-01	-1.886903168e-04	6.200789575e-12
-1.750000000e-02	1.896428801e-01	-1.867620794e-04	1.170210073e-11
-1.760000000e-02	1.896428755e-01	-1.848338423e-04	1.351184126e-11
-1.770000000e-02	1.896428708e-01	-1.829056055e-04	1.583622992e-11
-1.780000000e-02	1.896428661e-01	-1.809773690e-04	1.061961973e-11
-1.790000000e-02	1.896428614e-01	-1.790491328e-04	1.039856446e-11
-1.800000000e-02	1.896428566e-01	-1.771208968e-04	2.343939942e-11
-1.810000000e-02	1.896428517e-01	-1.751926612e-04	8.950908554e-12
-1.820000000e-02	1.896428467e-01	-1.732644259e-04	5.800135284e-12
-1.830000000e-02	1.896428417e-01	-1.713361909e-04	9.290164234e-12
-1.840000000e-02	1.896428367e-01	-1.694079561e-04	1.260320564e-11
-1.850000000e-02	1.896428316e-01	-1.674797217e-04	7.571984440e-12
-1.860000000e-02	1.896428264e-01	-1.655514876e-04	1.014742173e-11
-1.870000000e-02	1.896428211e-01	-1.636232538e-04	2.292933356e-11
-1.880000000e-02	1.896428159e-01	-1.616950204e-04	1.135043723e-11
-1.890000000e-02	1.896428105e-01	-1.597667872e-04	1.793788205e-11
-1.900000000e-02	1.896428051e-01	-1.578385544e-04	3.220211512e-11
-1.910000000e-02	1.896427996e-01	-1.559103219e-04	8.396087041e-12
-1.920000000e-02	1.896427941e-01	-1.539820898e-04	2.445858050e-11
-1.930000000e-02	1.896427885e-01	-1.520538579e-04	1.399924720e-11
-1.940000000e-02	1.896427829e-01	-1.501256264e-04	4.454562032e-11
-1.950000000e-02	1.896427772e-01	-1.481973953e-04	2.205012044e-11
-1.960000000e-02	1.896427714e-01	-1.462691645e-04	2.225170265e-11
-1.970000000e-02	1.896427656e-01	-1.443409340e-04	1.029199849e-11
-1.980000000e-02	1.896427597e-01	-1.424127039e-04	1.034284424e-11
-1.990000000e-02	1.896427538e-01	-1.404844741e-04	2.609989055e-11
-2.000000000e-02	1.896427478e-01	-1.385562447e-04	6.407326339e-12
-2.010000000e-02	1.896427417e-01	-1.366280157e-04	9.555423901e-12
-2.020000000e-02	1.896427356e-01	-1.346997870e-04	4.170833521e-11
-2.030000000e-02	1.896427294e-01	-1.327715586e-04	5.970428721e-11
-2.040000000e-02	1.896427232e-01	-1.308433307e-04	2.668720840e-11
-2.050000000e-02	1.896427169e-01	-1.289151031e-04	9.922599587e-12
-2.060000000e-02	1.896427105e-01	-1.269868758e-04	2.015956986e-11
-2.070000000e-02	1.896427041e-01	-1.250586490e-04	6.107620959e-11
-2.080000000e-02	1.896426976e-01	-1.231304225e-04	1.078422078e-11
-2.090000000e-02	1.896426911e-01	-1.212021964e-04	9.411919549e-12
-2.100000000e-02	1.896426845e-01	-1.192739707e-04	8.462092314e-12
-2.110000000e-02	1.896426779e-01	-1.173457454e-04	8.492660837e-12
-2.120000000e-02	1.896426712e-01	-1.154175205e-04	1.198597408e-11
-2.130000000e-02	1.896426644e-01	-1.134892959e-04	1.014735129e-11
-2.140000000e-02	1.896426576e-01	-1.115610718e-04	2.196789881e-11
-2.150000000e-02	1.896426507e-01	-1.096328480e-04	6.975370912e-12
-2.160000000e-02	1.896426438e-01	-1.077046247e-04	1.666122590e-11
-2.170000000e-02	1.896426368e-01	-1.057764018e-04	9.502488843e-12
-2.180000000e-02	1.896426297e-01	-1.038481792e-04	1.507622574e-11
-2.190000000e-02	1.896426226e-01	-1.019199571e-04	1.315209138e-11
-2.200000000e-02	1.896426154e-01	-9.999173541e-05	1.179902213e-11
-2.210000000e-02	1.896426082e-01	-9.806351413e-05	3.496462961e-11
-2.220000000e-02	1.896426009e-01	-9.613529326e-05	1.767725436e-11
-2.230000000e-02	1.896425936e-01	-9.420707281e-05	1.131713771e-11
-2.240000000e-02	1.896425862e-01	-9.227885279e-05	2.687932043e-12
-2.250000000e-02	1.896425787e-01	-9.035063321e-05	2.809384616e-11
-2.260000000e-02	1.896425712e-01	-8.842241405e-05	2.333625077e-11
-2.270000000e-02	1.896425636e-01	-8.649419532e-05	2.454941130e-11
-2.280000000e-02	1.896425559e-01	-8.456597703e-05	1.820586385e-11
-2.290000000e-02	1.896425482e-01	-8.263775918e-05	1.088318614e-11
-2.300000000e-02	1.896425405e-01	-8.070954178e-05	2.419076111e-11
-2.310000000e-02	1.896425327e-01	-7.878132483e-05	2.370928705e-11
-2.320000000e-02	1.896425248e-01	-7.685310832e-05	1.257449464e-11
-2.330000000e-02	1.896425168e-01	-7.492489227e-05	2.349533910e-11
-2.340000000e-02	1.896425088e-01	-7.299667667e-05	1.405855583e-11
-2.350000000e-02	1.896425008e-01	-7.106846153e-05	6.757166030e-12
-2.360000000e-02	1.896424927e-01	-6.914024686e-05	1.561507719e-11
-2.370000000e-02	1.896424845e-01	-6.721203264e-05	1.400754702e-11
-2.380000000e-02	1.896424763e-01	-6.528381889e-05	1.927074644e-11
-2.390000000e-02	1.896424680e-01	-6.335560562e-05	1.244536150e-11
-2.400000000e-02	1.896424596e-01	-6.142739282e-05	1.165045880e-11
-2.410000000e-02	1.896424512e-01	-5.949918049e-05	7.290672413e-12
-2.420000000e-02	1.896424428e-01	-5.757096864e-05	2.261388827e-11
-2.430000000e-02	1.896424342e-01	-5.564275728e-05	1.239264483e-11
-2.440000000e-02	1.896424256e-01	-5.371454639e-05	5.224955254e-11
-2.450000000e-02	1.896424170e-01	-5.178633600e-05	1.410399236e-11
-2.460000000e-02	1.896424083e-01	-4.985812611e-05	3.822051081e-11
-2.470000000e-02	1.896423995e-01	-4.792991671e-05	4.701967691e-11
-2.480000000e-02	1.896423907e-01	-4.600170779e-05	1.717418418e-11
-2.490000000e-02	1.896423818e-01	-4.407349939e-05	2.620838631e-11
-2.500000000e-02	1.896423729e-01	-4.214529148e-05	1.037765198e-11
-2.510000000e-02	1.896423639e-01	-4.021708409e-05	2.118646311e-11
-2.520000000e-02	1.896423549e-01	-3.828887720e-05	1.190997770e-11
-2.530000000e-02	1.896423457e-01	-3.636067082e-05	2.188960675e-11
-2.540000000e-02	1.896423366e-01	-3.443246494e-05	6.365863141e-11
-2.550000000e-02	1.896423273e-01	-3.250425961e-05	3.573854608e-11
-2.560000000e-02	1.896423181e-01	-3.057605479e-05	9.487430158e-12
-2.570000000e-02	1.896423087e-01	-2.864785049e-05	5.535949137e-12
-2.580000000e-02	1.896422993e-01	-2.671964672e-05	9.147261598e-12
-2.590000000e-02	1.896422898e-01	-2.479144348e-05	3.773435824e-11
-2.600000000e-02	1.896422803e-01	-2.286324077e-05	2.003044789e-11
-2.610000000e-02	1.896422707e-01	-2.093503860e-05	9.526023378e-12
-2.620000000e-02	1.896422611e-01	-1.900683697e-05	1.837701382e-11
-2.630000000e-02	1.896422514e-01	-1.707863588e-05	1.120868532e-11
-2.640000000e-02	1.896422416e-01	-1.515043533e-05	1.076193284e-11
-2.650000000e-02	1.896422318e-01	-1.322223534e-05	6.183975844e-12
-2.660000000e-02	1.896422219e-01	-1.129403589e-05	1.376342418e-11
-2.670000000e-02	1.896422120e-01	-9.365836996e-06	1.033513495e-11
-2.680000000e-02	1.896422020e-01	-7.437638656e-06	7.146910470e-12
-2.690000000e-02	1.896421919e-01	-5.509440881e-06	4.302271021e-11
-2.700000000e-02	1.896421818e-01	-3.581243665e-06	1.641967230e-11
-2.710000000e-02	1.896421717e-01	-1.653047022e-06	2.472753590e-11
-2.720000000e-02	1.896421614e-01	2.751490558e-07	1.475746571e-11
-2.730000000e-02	1.896421511e-01	2.203344565e-06	7.119300575e-12
-2.740000000e-02	1.896421408e-01	4.131539498e-06	5.425448657e-12
-2.750000000e-02	1.896421304e-01	6.059733852e-06	9.861152401e-12
-2.760000000e-02	1.896421199e-01	7.987927624e-06	1.249429359e-11
-2.770000000e-02	1.896421094e-01	9.916120818e-06	1.565429633e-11
-2.780000000e-02	1.896420988e-01	1.184431342e-05	1.413078424e-11
-2.790000000e-02	1.896420882e-01	1.377250543e-05	9.559923915e-12
-2.800000000e-02	1.896420775e-01	1.570069685e-05	1.181504418e-11
-2.810000000e-02	1.896420667e-01	1.762888767e-05	2.872419027e-11
-2.820000000e-02	1.896420559e-01	1.955707791e-05	4.631504278e-12
-2.830000000e-02	1.896420450e-01	2.148526753e-05	3.038567121e-11
-2.840000000e-02	1.896420341e-01	2.341345655e-05	7.476302423e-12
-2.850000000e-02	1.896420231e-01	2.534164497e-05	3.878802816e-11
-2.860000000e-02	1.896420120e-01	2.726983277e-05	2.284314157e-11
-2.870000000e-02	1.896420009e-01	2.919801995e-05	1.169136682e-11
-2.880000000e-02	1.896419898e-01	3.112620653e-05	3.996700787e-11
-2.890000000e-02	1.896419785e-01	3.305439248e-05	1.722459796e-11
-2.900000000e-02	1.896419673e-01	3.498257780e-05	1.281100532e-11
-2.910000000e-02	1.896419559e-01	3.691076251e-05	1.889666819e-11
-2.920000000e-02	1.896419445e-01	3.883894658e-05	9.194414192e-12
-2.930000000e-02	1.896419330e-01	4.076713003e-05	2.994532582e-11
-2.940000000e-02	1.896419215e-01	4.269531284e-05	7.371672664e-12
-2.950000000e-02	1.896419099e-01	4.462349501e-05	4.411801923e-12
-2.960000000e-02	1.896418983e-01	4.655167655e-05	5.746642373e-12
-2.970000000e-02	1.896418866e-01	4.847985743e-05	8.850504347e-12
-2.980000000e-02	1.896418748e-01	5.040803768e-05	1.263160659e-11
-2.990000000e-02	1.896418630e-01	5.233621727e-05	5.029988298e-11
-3.000000000e-02	1.896418511e-01	5.426439621e-05	9.060621175e-12
