# Im(epsi1)     Re(omega/c)      Im(omega/c)      Eq(det).Opt det CON kz, R=0.5 \mum, mu_c=0.3, Re(epsi1)=3.90solve_det_conkz_vs_kz.py
0.000000000e+00	1.896466201e-01	-5.242161676e-04	2.515340861e-11
-1.000000000e-04	1.896466258e-01	-5.222879078e-04	3.235777850e-11
-2.000000000e-04	1.896466314e-01	-5.203596476e-04	1.501061557e-11
-3.000000000e-04	1.896466370e-01	-5.184313872e-04	2.579333615e-11
-4.000000000e-04	1.896466425e-01	-5.165031266e-04	8.272390443e-12
-5.000000000e-04	1.896466480e-01	-5.145748658e-04	1.548527973e-11
-6.000000000e-04	1.896466534e-01	-5.126466048e-04	5.309917042e-12
-7.000000000e-04	1.896466587e-01	-5.107183435e-04	3.856684091e-11
-8.000000000e-04	1.896466640e-01	-5.087900820e-04	1.010394339e-11
-9.000000000e-04	1.896466692e-01	-5.068618203e-04	1.221090380e-11
-1.000000000e-03	1.896466744e-01	-5.049335584e-04	1.974839359e-11
-1.100000000e-03	1.896466795e-01	-5.030052962e-04	1.035369661e-11
-1.200000000e-03	1.896466845e-01	-5.010770339e-04	1.115365997e-11
-1.300000000e-03	1.896466895e-01	-4.991487713e-04	4.907617568e-12
-1.400000000e-03	1.896466945e-01	-4.972205086e-04	6.235076252e-12
-1.500000000e-03	1.896466993e-01	-4.952922457e-04	1.424196039e-11
-1.600000000e-03	1.896467042e-01	-4.933639825e-04	1.888136642e-11
-1.700000000e-03	1.896467089e-01	-4.914357192e-04	1.826531215e-11
-1.800000000e-03	1.896467136e-01	-4.895074558e-04	5.910184112e-10
-1.900000000e-03	1.896467182e-01	-4.875791920e-04	5.361889675e-12
-2.000000000e-03	1.896467228e-01	-4.856509281e-04	1.195034558e-11
-2.100000000e-03	1.896467273e-01	-4.837226640e-04	5.597464048e-12
-2.200000000e-03	1.896467318e-01	-4.817943998e-04	2.202175489e-11
-2.300000000e-03	1.896467362e-01	-4.798661354e-04	1.526983775e-11
-2.400000000e-03	1.896467406e-01	-4.779378708e-04	4.427729644e-12
-2.500000000e-03	1.896467448e-01	-4.760096060e-04	1.413208735e-11
-2.600000000e-03	1.896467491e-01	-4.740813411e-04	7.010923531e-12
-2.700000000e-03	1.896467532e-01	-4.721530761e-04	1.801014699e-10
-2.800000000e-03	1.896467574e-01	-4.702248108e-04	1.145586832e-11
-2.900000000e-03	1.896467614e-01	-4.682965454e-04	3.078010778e-11
-3.000000000e-03	1.896467654e-01	-4.663682799e-04	1.295572640e-11
-3.100000000e-03	1.896467693e-01	-4.644400142e-04	2.783652112e-11
-3.200000000e-03	1.896467732e-01	-4.625117483e-04	7.007503857e-12
-3.300000000e-03	1.896467770e-01	-4.605834823e-04	1.218714639e-11
-3.400000000e-03	1.896467808e-01	-4.586552162e-04	1.602401300e-11
-3.500000000e-03	1.896467845e-01	-4.567269499e-04	1.663718183e-11
-3.600000000e-03	1.896467881e-01	-4.547986835e-04	1.029258901e-11
-3.700000000e-03	1.896467917e-01	-4.528704170e-04	1.381510608e-11
-3.800000000e-03	1.896467952e-01	-4.509421503e-04	1.521440714e-11
-3.900000000e-03	1.896467987e-01	-4.490138836e-04	2.121084972e-11
-4.000000000e-03	1.896468021e-01	-4.470856166e-04	1.939073477e-11
-4.100000000e-03	1.896468054e-01	-4.451573496e-04	6.812636719e-12
-4.200000000e-03	1.896468087e-01	-4.432290825e-04	1.549836360e-11
-4.300000000e-03	1.896468119e-01	-4.413008152e-04	3.441488225e-11
-4.400000000e-03	1.896468151e-01	-4.393725478e-04	1.603247626e-11
-4.500000000e-03	1.896468182e-01	-4.374442803e-04	1.315794338e-11
-4.600000000e-03	1.896468213e-01	-4.355160128e-04	8.877314952e-12
-4.700000000e-03	1.896468243e-01	-4.335877451e-04	1.215060795e-11
-4.800000000e-03	1.896468272e-01	-4.316594773e-04	1.379383511e-11
-4.900000000e-03	1.896468301e-01	-4.297312094e-04	3.146369699e-11
-5.000000000e-03	1.896468329e-01	-4.278029414e-04	1.201471146e-11
-5.100000000e-03	1.896468357e-01	-4.258746733e-04	1.841895431e-11
-5.200000000e-03	1.896468384e-01	-4.239464052e-04	1.979136830e-11
-5.300000000e-03	1.896468410e-01	-4.220181369e-04	1.155621836e-11
-5.400000000e-03	1.896468436e-01	-4.200898686e-04	5.436987703e-12
-5.500000000e-03	1.896468461e-01	-4.181616002e-04	1.109998640e-11
-5.600000000e-03	1.896468486e-01	-4.162333318e-04	9.168611019e-12
-5.700000000e-03	1.896468510e-01	-4.143050632e-04	2.753723277e-11
-5.800000000e-03	1.896468533e-01	-4.123767946e-04	8.715371256e-12
-5.900000000e-03	1.896468556e-01	-4.104485259e-04	2.525007937e-11
-6.000000000e-03	1.896468578e-01	-4.085202572e-04	7.700971560e-12
-6.100000000e-03	1.896468600e-01	-4.065919883e-04	7.330643068e-12
-6.200000000e-03	1.896468621e-01	-4.046637195e-04	9.709163308e-12
-6.300000000e-03	1.896468642e-01	-4.027354506e-04	1.123686634e-11
-6.400000000e-03	1.896468662e-01	-4.008071816e-04	9.861536628e-12
-6.500000000e-03	1.896468681e-01	-3.988789126e-04	5.494180760e-11
-6.600000000e-03	1.896468700e-01	-3.969506435e-04	1.184556257e-11
-6.700000000e-03	1.896468718e-01	-3.950223744e-04	1.934442258e-11
-6.800000000e-03	1.896468735e-01	-3.930941053e-04	1.439891953e-11
-6.900000000e-03	1.896468752e-01	-3.911658361e-04	7.731436047e-12
-7.000000000e-03	1.896468769e-01	-3.892375669e-04	1.380329341e-11
-7.100000000e-03	1.896468785e-01	-3.873092976e-04	1.384343344e-11
-7.200000000e-03	1.896468800e-01	-3.853810283e-04	1.476460462e-11
-7.300000000e-03	1.896468815e-01	-3.834527590e-04	1.147504266e-11
-7.400000000e-03	1.896468829e-01	-3.815244897e-04	4.311773207e-11
-7.500000000e-03	1.896468842e-01	-3.795962204e-04	1.860297132e-11
-7.600000000e-03	1.896468855e-01	-3.776679510e-04	3.258877976e-11
-7.700000000e-03	1.896468867e-01	-3.757396816e-04	1.782853229e-11
-7.800000000e-03	1.896468879e-01	-3.738114123e-04	6.028277756e-12
-7.900000000e-03	1.896468890e-01	-3.718831429e-04	2.331096785e-11
-8.000000000e-03	1.896468901e-01	-3.699548735e-04	6.603754627e-12
-8.100000000e-03	1.896468911e-01	-3.680266041e-04	5.473236819e-11
-8.200000000e-03	1.896468920e-01	-3.660983347e-04	1.583276520e-11
-8.300000000e-03	1.896468929e-01	-3.641700653e-04	3.685177949e-11
-8.400000000e-03	1.896468937e-01	-3.622417960e-04	1.279413467e-11
-8.500000000e-03	1.896468945e-01	-3.603135266e-04	8.461754864e-12
-8.600000000e-03	1.896468952e-01	-3.583852572e-04	1.764232133e-11
-8.700000000e-03	1.896468958e-01	-3.564569879e-04	7.169474561e-12
-8.800000000e-03	1.896468964e-01	-3.545287186e-04	9.210182180e-12
-8.900000000e-03	1.896468969e-01	-3.526004493e-04	1.120505710e-11
-9.000000000e-03	1.896468974e-01	-3.506721800e-04	1.235984007e-11
-9.100000000e-03	1.896468978e-01	-3.487439108e-04	3.380432819e-11
-9.200000000e-03	1.896468981e-01	-3.468156416e-04	6.573236117e-12
-9.300000000e-03	1.896468984e-01	-3.448873724e-04	3.466284586e-11
-9.400000000e-03	1.896468987e-01	-3.429591033e-04	8.872523491e-12
-9.500000000e-03	1.896468988e-01	-3.410308342e-04	1.291328679e-11
-9.600000000e-03	1.896468989e-01	-3.391025652e-04	7.065220329e-12
-9.700000000e-03	1.896468990e-01	-3.371742962e-04	1.569980805e-11
-9.800000000e-03	1.896468990e-01	-3.352460272e-04	6.223299704e-11
-9.900000000e-03	1.896468989e-01	-3.333177583e-04	3.407628985e-11
-1.000000000e-02	1.896468988e-01	-3.313894895e-04	6.777923124e-12
-1.010000000e-02	1.896468986e-01	-3.294612207e-04	2.071911702e-11
-1.020000000e-02	1.896468984e-01	-3.275329520e-04	6.431325849e-12
-1.030000000e-02	1.896468981e-01	-3.256046833e-04	8.030461735e-12
-1.040000000e-02	1.896468977e-01	-3.236764148e-04	2.433737885e-11
-1.050000000e-02	1.896468973e-01	-3.217481462e-04	1.298969371e-11
-1.060000000e-02	1.896468968e-01	-3.198198778e-04	2.520353840e-11
-1.070000000e-02	1.896468963e-01	-3.178916094e-04	9.483080189e-12
-1.080000000e-02	1.896468957e-01	-3.159633412e-04	1.098853955e-11
-1.090000000e-02	1.896468951e-01	-3.140350730e-04	8.378437795e-12
-1.100000000e-02	1.896468944e-01	-3.121068048e-04	9.330651210e-12
-1.110000000e-02	1.896468936e-01	-3.101785368e-04	4.305282458e-11
-1.120000000e-02	1.896468928e-01	-3.082502689e-04	1.730558247e-11
-1.130000000e-02	1.896468919e-01	-3.063220010e-04	1.118050752e-10
-1.140000000e-02	1.896468909e-01	-3.043937333e-04	1.198961108e-11
-1.150000000e-02	1.896468899e-01	-3.024654656e-04	8.781852839e-12
-1.160000000e-02	1.896468889e-01	-3.005371981e-04	1.094369388e-11
-1.170000000e-02	1.896468877e-01	-2.986089307e-04	1.008266903e-11
-1.180000000e-02	1.896468866e-01	-2.966806634e-04	7.851028624e-12
-1.190000000e-02	1.896468853e-01	-2.947523961e-04	1.179235182e-11
-1.200000000e-02	1.896468840e-01	-2.928241290e-04	5.393307576e-12
-1.210000000e-02	1.896468827e-01	-2.908958621e-04	6.434711415e-12
-1.220000000e-02	1.896468813e-01	-2.889675952e-04	2.000127468e-11
-1.230000000e-02	1.896468798e-01	-2.870393285e-04	7.477686813e-11
-1.240000000e-02	1.896468783e-01	-2.851110619e-04	1.454966922e-11
-1.250000000e-02	1.896468767e-01	-2.831827954e-04	1.204877744e-11
-1.260000000e-02	1.896468750e-01	-2.812545291e-04	1.478550132e-11
-1.270000000e-02	1.896468733e-01	-2.793262629e-04	5.595600305e-12
-1.280000000e-02	1.896468715e-01	-2.773979968e-04	2.116041550e-11
-1.290000000e-02	1.896468697e-01	-2.754697309e-04	3.917632134e-12
-1.300000000e-02	1.896468678e-01	-2.735414651e-04	2.452036752e-11
-1.310000000e-02	1.896468659e-01	-2.716131995e-04	7.066481343e-12
-1.320000000e-02	1.896468639e-01	-2.696849340e-04	1.129814495e-11
-1.330000000e-02	1.896468618e-01	-2.677566687e-04	7.305708450e-12
-1.340000000e-02	1.896468597e-01	-2.658284035e-04	5.792485462e-12
-1.350000000e-02	1.896468575e-01	-2.639001385e-04	7.135995829e-12
-1.360000000e-02	1.896468553e-01	-2.619718737e-04	1.272211065e-11
-1.370000000e-02	1.896468530e-01	-2.600436090e-04	1.531712938e-11
-1.380000000e-02	1.896468506e-01	-2.581153445e-04	7.869764946e-12
-1.390000000e-02	1.896468482e-01	-2.561870802e-04	2.427506778e-11
-1.400000000e-02	1.896468458e-01	-2.542588160e-04	2.128152576e-11
-1.410000000e-02	1.896468432e-01	-2.523305520e-04	1.517876011e-11
-1.420000000e-02	1.896468406e-01	-2.504022882e-04	3.984348156e-11
-1.430000000e-02	1.896468380e-01	-2.484740246e-04	8.660420747e-12
-1.440000000e-02	1.896468353e-01	-2.465457612e-04	3.086008845e-11
-1.450000000e-02	1.896468325e-01	-2.446174979e-04	9.095809008e-12
-1.460000000e-02	1.896468297e-01	-2.426892349e-04	1.270408291e-11
-1.470000000e-02	1.896468268e-01	-2.407609720e-04	1.051784796e-11
-1.480000000e-02	1.896468239e-01	-2.388327094e-04	1.168851710e-11
-1.490000000e-02	1.896468209e-01	-2.369044469e-04	1.382830729e-11
-1.500000000e-02	1.896468178e-01	-2.349761847e-04	2.522481136e-11
-1.510000000e-02	1.896468147e-01	-2.330479227e-04	1.465009755e-11
-1.520000000e-02	1.896468115e-01	-2.311196609e-04	7.370640394e-11
-1.530000000e-02	1.896468083e-01	-2.291913992e-04	1.045155219e-11
-1.540000000e-02	1.896468050e-01	-2.272631378e-04	6.458376563e-12
-1.550000000e-02	1.896468016e-01	-2.253348767e-04	4.098615423e-11
-1.560000000e-02	1.896467982e-01	-2.234066157e-04	4.574633840e-11
-1.570000000e-02	1.896467947e-01	-2.214783550e-04	6.269301353e-12
-1.580000000e-02	1.896467912e-01	-2.195500945e-04	8.785866455e-12
-1.590000000e-02	1.896467876e-01	-2.176218342e-04	1.583898337e-11
-1.600000000e-02	1.896467840e-01	-2.156935742e-04	8.958346203e-12
-1.610000000e-02	1.896467803e-01	-2.137653144e-04	8.392403088e-12
-1.620000000e-02	1.896467765e-01	-2.118370549e-04	9.945858581e-12
-1.630000000e-02	1.896467727e-01	-2.099087956e-04	1.311282062e-11
-1.640000000e-02	1.896467688e-01	-2.079805365e-04	2.770473983e-11
-1.650000000e-02	1.896467648e-01	-2.060522777e-04	7.832817286e-12
-1.660000000e-02	1.896467608e-01	-2.041240191e-04	2.896314831e-11
-1.670000000e-02	1.896467568e-01	-2.021957608e-04	1.201576881e-11
-1.680000000e-02	1.896467527e-01	-2.002675028e-04	9.951306423e-12
-1.690000000e-02	1.896467485e-01	-1.983392450e-04	5.273253391e-12
-1.700000000e-02	1.896467443e-01	-1.964109875e-04	1.002094749e-11
-1.710000000e-02	1.896467400e-01	-1.944827302e-04	9.229051035e-12
-1.720000000e-02	1.896467356e-01	-1.925544733e-04	2.497339264e-11
-1.730000000e-02	1.896467312e-01	-1.906262166e-04	2.326560552e-11
-1.740000000e-02	1.896467267e-01	-1.886979601e-04	8.941200802e-12
-1.750000000e-02	1.896467222e-01	-1.867697040e-04	1.637787362e-11
-1.760000000e-02	1.896467176e-01	-1.848414481e-04	7.813312880e-11
-1.770000000e-02	1.896467130e-01	-1.829131925e-04	2.561707675e-11
-1.780000000e-02	1.896467083e-01	-1.809849372e-04	7.596118356e-12
-1.790000000e-02	1.896467035e-01	-1.790566822e-04	5.181056970e-11
-1.800000000e-02	1.896466987e-01	-1.771284275e-04	1.149242344e-11
-1.810000000e-02	1.896466938e-01	-1.752001731e-04	1.330233443e-11
-1.820000000e-02	1.896466889e-01	-1.732719190e-04	2.210814926e-11
-1.830000000e-02	1.896466839e-01	-1.713436652e-04	1.347160689e-11
-1.840000000e-02	1.896466788e-01	-1.694154117e-04	1.112585001e-11
-1.850000000e-02	1.896466737e-01	-1.674871585e-04	1.572164791e-11
-1.860000000e-02	1.896466685e-01	-1.655589056e-04	9.631211340e-12
-1.870000000e-02	1.896466633e-01	-1.636306531e-04	2.145695201e-11
-1.880000000e-02	1.896466580e-01	-1.617024008e-04	5.971357810e-12
-1.890000000e-02	1.896466526e-01	-1.597741489e-04	1.183621853e-11
-1.900000000e-02	1.896466472e-01	-1.578458973e-04	2.822785138e-11
-1.910000000e-02	1.896466417e-01	-1.559176460e-04	1.815631685e-11
-1.920000000e-02	1.896466362e-01	-1.539893951e-04	3.425651772e-11
-1.930000000e-02	1.896466306e-01	-1.520611445e-04	9.347734872e-12
-1.940000000e-02	1.896466250e-01	-1.501328942e-04	7.975829144e-12
-1.950000000e-02	1.896466193e-01	-1.482046443e-04	7.236311168e-12
-1.960000000e-02	1.896466135e-01	-1.462763947e-04	1.237888934e-11
-1.970000000e-02	1.896466077e-01	-1.443481455e-04	1.707224813e-11
-1.980000000e-02	1.896466018e-01	-1.424198966e-04	1.621733498e-11
-1.990000000e-02	1.896465959e-01	-1.404916480e-04	3.641137544e-11
-2.000000000e-02	1.896465899e-01	-1.385633998e-04	6.329736174e-12
-2.010000000e-02	1.896465838e-01	-1.366351520e-04	2.687125144e-11
-2.020000000e-02	1.896465777e-01	-1.347069045e-04	3.025589977e-11
-2.030000000e-02	1.896465715e-01	-1.327786574e-04	9.933868925e-12
-2.040000000e-02	1.896465653e-01	-1.308504107e-04	2.350865114e-11
-2.050000000e-02	1.896465590e-01	-1.289221643e-04	9.674216866e-12
-2.060000000e-02	1.896465526e-01	-1.269939183e-04	1.133007666e-11
-2.070000000e-02	1.896465462e-01	-1.250656727e-04	1.155970591e-11
-2.080000000e-02	1.896465398e-01	-1.231374274e-04	1.623252837e-11
-2.090000000e-02	1.896465332e-01	-1.212091825e-04	1.485039681e-11
-2.100000000e-02	1.896465267e-01	-1.192809381e-04	9.494212739e-12
-2.110000000e-02	1.896465200e-01	-1.173526940e-04	1.511856909e-11
-2.120000000e-02	1.896465133e-01	-1.154244502e-04	2.399277166e-11
-2.130000000e-02	1.896465065e-01	-1.134962069e-04	7.482319276e-12
-2.140000000e-02	1.896464997e-01	-1.115679640e-04	2.019670545e-11
-2.150000000e-02	1.896464928e-01	-1.096397215e-04	9.070726783e-12
-2.160000000e-02	1.896464859e-01	-1.077114794e-04	1.035100500e-11
-2.170000000e-02	1.896464789e-01	-1.057832377e-04	6.843264486e-12
-2.180000000e-02	1.896464719e-01	-1.038549963e-04	2.639654143e-11
-2.190000000e-02	1.896464647e-01	-1.019267554e-04	1.557933514e-11
-2.200000000e-02	1.896464576e-01	-9.999851496e-05	1.258908986e-11
-2.210000000e-02	1.896464503e-01	-9.807027490e-05	5.944626297e-12
-2.220000000e-02	1.896464430e-01	-9.614203526e-05	1.801728856e-11
-2.230000000e-02	1.896464357e-01	-9.421379603e-05	1.086523345e-11
-2.240000000e-02	1.896464283e-01	-9.228555723e-05	8.351538132e-12
-2.250000000e-02	1.896464208e-01	-9.035731886e-05	2.539199343e-11
-2.260000000e-02	1.896464133e-01	-8.842908092e-05	4.539753352e-11
-2.270000000e-02	1.896464057e-01	-8.650084342e-05	4.182717795e-11
-2.280000000e-02	1.896463981e-01	-8.457260636e-05	9.665068509e-12
-2.290000000e-02	1.896463904e-01	-8.264436973e-05	7.437077281e-12
-2.300000000e-02	1.896463826e-01	-8.071613355e-05	6.902386454e-12
-2.310000000e-02	1.896463748e-01	-7.878789782e-05	1.634395693e-11
-2.320000000e-02	1.896463669e-01	-7.685966253e-05	1.100416150e-11
-2.330000000e-02	1.896463590e-01	-7.493142770e-05	2.368499789e-11
-2.340000000e-02	1.896463510e-01	-7.300319332e-05	2.173011194e-11
-2.350000000e-02	1.896463429e-01	-7.107495941e-05	1.095916711e-11
-2.360000000e-02	1.896463348e-01	-6.914672595e-05	3.522937973e-11
-2.370000000e-02	1.896463266e-01	-6.721849295e-05	4.649052157e-11
-2.380000000e-02	1.896463184e-01	-6.529026043e-05	2.257890945e-11
-2.390000000e-02	1.896463101e-01	-6.336202837e-05	3.457913281e-11
-2.400000000e-02	1.896463018e-01	-6.143379680e-05	3.387715686e-11
-2.410000000e-02	1.896462933e-01	-5.950556569e-05	8.338108263e-12
-2.420000000e-02	1.896462849e-01	-5.757733507e-05	6.185689019e-12
-2.430000000e-02	1.896462764e-01	-5.564910492e-05	6.686887431e-12
-2.440000000e-02	1.896462678e-01	-5.372087527e-05	1.556869354e-11
-2.450000000e-02	1.896462591e-01	-5.179264610e-05	1.498309753e-11
-2.460000000e-02	1.896462504e-01	-4.986441742e-05	2.049496778e-11
-2.470000000e-02	1.896462417e-01	-4.793618923e-05	1.985712360e-11
-2.480000000e-02	1.896462328e-01	-4.600796155e-05	7.663409279e-12
-2.490000000e-02	1.896462240e-01	-4.407973436e-05	1.002164104e-11
-2.500000000e-02	1.896462150e-01	-4.215150765e-05	1.531097127e-10
-2.510000000e-02	1.896462060e-01	-4.022328150e-05	2.189314473e-11
-2.520000000e-02	1.896461970e-01	-3.829505583e-05	9.725918426e-12
-2.530000000e-02	1.896461879e-01	-3.636683068e-05	1.350452501e-11
-2.540000000e-02	1.896461787e-01	-3.443860603e-05	5.154962725e-11
-2.550000000e-02	1.896461695e-01	-3.251038191e-05	8.318205321e-12
-2.560000000e-02	1.896461602e-01	-3.058215831e-05	1.304923299e-11
-2.570000000e-02	1.896461508e-01	-2.865393524e-05	1.372623583e-11
-2.580000000e-02	1.896461414e-01	-2.672571268e-05	4.119945431e-11
-2.590000000e-02	1.896461320e-01	-2.479749067e-05	6.651079588e-12
-2.600000000e-02	1.896461224e-01	-2.286926918e-05	7.963662475e-12
-2.610000000e-02	1.896461129e-01	-2.094104823e-05	6.396853416e-12
-2.620000000e-02	1.896461032e-01	-1.901282782e-05	1.173654747e-11
-2.630000000e-02	1.896460935e-01	-1.708460795e-05	1.800667801e-11
-2.640000000e-02	1.896460838e-01	-1.515638862e-05	2.460337330e-11
-2.650000000e-02	1.896460739e-01	-1.322816984e-05	1.602847803e-11
-2.660000000e-02	1.896460641e-01	-1.129995162e-05	2.451048198e-11
-2.670000000e-02	1.896460541e-01	-9.371733945e-06	9.614898134e-12
-2.680000000e-02	1.896460441e-01	-7.443516830e-06	8.079465120e-12
-2.690000000e-02	1.896460341e-01	-5.515300273e-06	1.910323493e-11
-2.700000000e-02	1.896460240e-01	-3.587084280e-06	1.181754371e-11
-2.710000000e-02	1.896460138e-01	-1.658868853e-06	2.926740637e-11
-2.720000000e-02	1.896460036e-01	2.693460016e-07	1.145378891e-11
-2.730000000e-02	1.896459933e-01	2.197560292e-06	1.735480276e-11
-2.740000000e-02	1.896459829e-01	4.125773999e-06	1.534644717e-11
-2.750000000e-02	1.896459725e-01	6.053987135e-06	1.194158400e-11
-2.760000000e-02	1.896459621e-01	7.982199689e-06	1.321053064e-11
-2.770000000e-02	1.896459515e-01	9.910411651e-06	4.861887409e-11
-2.780000000e-02	1.896459410e-01	1.183862303e-05	3.241507564e-11
-2.790000000e-02	1.896459303e-01	1.376683383e-05	1.256886194e-11
-2.800000000e-02	1.896459196e-01	1.569504403e-05	2.231969927e-11
-2.810000000e-02	1.896459089e-01	1.762325363e-05	1.246390877e-11
-2.820000000e-02	1.896458980e-01	1.955146264e-05	1.028752530e-10
-2.830000000e-02	1.896458872e-01	2.147967104e-05	1.857492882e-11
-2.840000000e-02	1.896458762e-01	2.340787884e-05	1.293401629e-11
-2.850000000e-02	1.896458652e-01	2.533608604e-05	1.525890529e-11
-2.860000000e-02	1.896458542e-01	2.726429261e-05	1.298384884e-11
-2.870000000e-02	1.896458431e-01	2.919249859e-05	2.550902683e-11
-2.880000000e-02	1.896458319e-01	3.112070393e-05	1.528947044e-11
-2.890000000e-02	1.896458207e-01	3.304890867e-05	5.835329504e-12
-2.900000000e-02	1.896458094e-01	3.497711278e-05	8.630330855e-12
-2.910000000e-02	1.896457980e-01	3.690531626e-05	1.063187538e-11
-2.920000000e-02	1.896457866e-01	3.883351912e-05	6.108351078e-12
-2.930000000e-02	1.896457752e-01	4.076172134e-05	1.888600540e-11
-2.940000000e-02	1.896457637e-01	4.268992293e-05	8.865018083e-12
-2.950000000e-02	1.896457521e-01	4.461812389e-05	2.746493035e-11
-2.960000000e-02	1.896457404e-01	4.654632420e-05	2.662021944e-11
-2.970000000e-02	1.896457287e-01	4.847452386e-05	1.165815999e-11
-2.980000000e-02	1.896457170e-01	5.040272288e-05	8.702353538e-12
-2.990000000e-02	1.896457052e-01	5.233092126e-05	8.489942453e-12
-3.000000000e-02	1.896456933e-01	5.425911898e-05	1.680731210e-11
