# Im(epsi1)     Re(omega/c)      Im(omega/c)      Eq(det).Opt det CON kz, R=0.5 \mum, mu_c=0.3, Re(epsi1)=3.90solve_det_conkz_vs_kz.py
0.000000000e+00	1.896431292e-01	-5.242062836e-04	2.155375451e-11
-1.000000000e-04	1.896431349e-01	-5.222780408e-04	1.446778923e-11
-2.000000000e-04	1.896431406e-01	-5.203497977e-04	4.189211275e-11
-3.000000000e-04	1.896431461e-01	-5.184215544e-04	6.236327321e-12
-4.000000000e-04	1.896431517e-01	-5.164933108e-04	8.423535727e-12
-5.000000000e-04	1.896431571e-01	-5.145650670e-04	2.246855126e-11
-6.000000000e-04	1.896431625e-01	-5.126368231e-04	4.192915545e-11
-7.000000000e-04	1.896431679e-01	-5.107085788e-04	1.284672038e-11
-8.000000000e-04	1.896431732e-01	-5.087803344e-04	1.433457051e-11
-9.000000000e-04	1.896431784e-01	-5.068520898e-04	9.769948533e-12
-1.000000000e-03	1.896431835e-01	-5.049238449e-04	1.305237615e-11
-1.100000000e-03	1.896431887e-01	-5.029955998e-04	9.271958970e-12
-1.200000000e-03	1.896431937e-01	-5.010673546e-04	1.305631170e-11
-1.300000000e-03	1.896431987e-01	-4.991391091e-04	8.638374071e-12
-1.400000000e-03	1.896432036e-01	-4.972108634e-04	1.461478907e-11
-1.500000000e-03	1.896432085e-01	-4.952826175e-04	8.117129294e-12
-1.600000000e-03	1.896432133e-01	-4.933543714e-04	7.987700433e-12
-1.700000000e-03	1.896432181e-01	-4.914261252e-04	1.316364707e-11
-1.800000000e-03	1.896432228e-01	-4.894978787e-04	1.012243654e-11
-1.900000000e-03	1.896432274e-01	-4.875696321e-04	1.673161264e-11
-2.000000000e-03	1.896432320e-01	-4.856413853e-04	1.088520254e-11
-2.100000000e-03	1.896432365e-01	-4.837131383e-04	9.143722750e-12
-2.200000000e-03	1.896432410e-01	-4.817848911e-04	1.173219018e-11
-2.300000000e-03	1.896432454e-01	-4.798566437e-04	1.071003497e-11
-2.400000000e-03	1.896432497e-01	-4.779283962e-04	9.688668181e-12
-2.500000000e-03	1.896432540e-01	-4.760001485e-04	1.286874641e-11
-2.600000000e-03	1.896432582e-01	-4.740719006e-04	1.092784959e-11
-2.700000000e-03	1.896432624e-01	-4.721436526e-04	1.215137642e-11
-2.800000000e-03	1.896432665e-01	-4.702154045e-04	1.350709803e-11
-2.900000000e-03	1.896432706e-01	-4.682871561e-04	9.889219085e-12
-3.000000000e-03	1.896432746e-01	-4.663589076e-04	4.409590861e-11
-3.100000000e-03	1.896432785e-01	-4.644306590e-04	1.414218680e-11
-3.200000000e-03	1.896432824e-01	-4.625024102e-04	5.672953380e-11
-3.300000000e-03	1.896432862e-01	-4.605741613e-04	1.142618291e-11
-3.400000000e-03	1.896432899e-01	-4.586459122e-04	1.452499572e-11
-3.500000000e-03	1.896432936e-01	-4.567176630e-04	3.648342988e-11
-3.600000000e-03	1.896432973e-01	-4.547894137e-04	1.355265331e-11
-3.700000000e-03	1.896433008e-01	-4.528611642e-04	1.804204416e-11
-3.800000000e-03	1.896433044e-01	-4.509329146e-04	1.467709411e-11
-3.900000000e-03	1.896433078e-01	-4.490046649e-04	1.516370862e-11
-4.000000000e-03	1.896433112e-01	-4.470764150e-04	3.732751048e-11
-4.100000000e-03	1.896433146e-01	-4.451481651e-04	2.050349234e-11
-4.200000000e-03	1.896433179e-01	-4.432199150e-04	1.002784279e-11
-4.300000000e-03	1.896433211e-01	-4.412916648e-04	1.541675289e-11
-4.400000000e-03	1.896433243e-01	-4.393634145e-04	1.511555408e-11
-4.500000000e-03	1.896433274e-01	-4.374351640e-04	1.862465957e-11
-4.600000000e-03	1.896433304e-01	-4.355069135e-04	1.440640192e-11
-4.700000000e-03	1.896433334e-01	-4.335786629e-04	1.177157944e-11
-4.800000000e-03	1.896433364e-01	-4.316504121e-04	7.910858191e-12
-4.900000000e-03	1.896433392e-01	-4.297221613e-04	2.798094254e-11
-5.000000000e-03	1.896433420e-01	-4.277939104e-04	1.392382306e-11
-5.100000000e-03	1.896433448e-01	-4.258656594e-04	1.192807055e-11
-5.200000000e-03	1.896433475e-01	-4.239374083e-04	1.233583814e-11
-5.300000000e-03	1.896433501e-01	-4.220091571e-04	1.153810874e-11
-5.400000000e-03	1.896433527e-01	-4.200809059e-04	1.028728697e-11
-5.500000000e-03	1.896433553e-01	-4.181526545e-04	5.304244343e-11
-5.600000000e-03	1.896433577e-01	-4.162244031e-04	1.164158889e-11
-5.700000000e-03	1.896433601e-01	-4.142961516e-04	3.899573099e-11
-5.800000000e-03	1.896433625e-01	-4.123679001e-04	1.854548847e-11
-5.900000000e-03	1.896433648e-01	-4.104396485e-04	3.520354031e-11
-6.000000000e-03	1.896433670e-01	-4.085113968e-04	1.097653873e-11
-6.100000000e-03	1.896433692e-01	-4.065831450e-04	2.151224002e-10
-6.200000000e-03	1.896433713e-01	-4.046548932e-04	3.534710710e-11
-6.300000000e-03	1.896433733e-01	-4.027266414e-04	4.932922372e-11
-6.400000000e-03	1.896433753e-01	-4.007983895e-04	4.946528417e-11
-6.500000000e-03	1.896433772e-01	-3.988701375e-04	3.284086455e-11
-6.600000000e-03	1.896433791e-01	-3.969418855e-04	1.275074654e-11
-6.700000000e-03	1.896433809e-01	-3.950136334e-04	9.321474770e-12
-6.800000000e-03	1.896433827e-01	-3.930853813e-04	1.642767315e-11
-6.900000000e-03	1.896433844e-01	-3.911571292e-04	2.430565781e-11
-7.000000000e-03	1.896433860e-01	-3.892288771e-04	2.284396053e-11
-7.100000000e-03	1.896433876e-01	-3.873006249e-04	1.542419408e-11
-7.200000000e-03	1.896433891e-01	-3.853723727e-04	2.533086362e-11
-7.300000000e-03	1.896433906e-01	-3.834441204e-04	7.218029851e-12
-7.400000000e-03	1.896433920e-01	-3.815158682e-04	1.171306664e-11
-7.500000000e-03	1.896433934e-01	-3.795876159e-04	5.829900279e-12
-7.600000000e-03	1.896433947e-01	-3.776593636e-04	1.381173014e-11
-7.700000000e-03	1.896433959e-01	-3.757311113e-04	2.145838149e-11
-7.800000000e-03	1.896433971e-01	-3.738028590e-04	2.659382325e-11
-7.900000000e-03	1.896433982e-01	-3.718746066e-04	1.628946230e-11
-8.000000000e-03	1.896433992e-01	-3.699463543e-04	6.475374493e-12
-8.100000000e-03	1.896434002e-01	-3.680181020e-04	7.597316893e-12
-8.200000000e-03	1.896434012e-01	-3.660898497e-04	7.481798993e-12
-8.300000000e-03	1.896434020e-01	-3.641615973e-04	6.011238689e-12
-8.400000000e-03	1.896434028e-01	-3.622333450e-04	1.544602838e-11
-8.500000000e-03	1.896434036e-01	-3.603050927e-04	2.172272445e-11
-8.600000000e-03	1.896434043e-01	-3.583768404e-04	1.673218275e-11
-8.700000000e-03	1.896434050e-01	-3.564485882e-04	4.857155635e-12
-8.800000000e-03	1.896434055e-01	-3.545203359e-04	2.398290566e-11
-8.900000000e-03	1.896434061e-01	-3.525920837e-04	1.341455460e-11
-9.000000000e-03	1.896434065e-01	-3.506638315e-04	6.592356560e-12
-9.100000000e-03	1.896434069e-01	-3.487355793e-04	1.790013197e-11
-9.200000000e-03	1.896434073e-01	-3.468073272e-04	2.139487614e-11
-9.300000000e-03	1.896434076e-01	-3.448790751e-04	8.965855288e-12
-9.400000000e-03	1.896434078e-01	-3.429508230e-04	5.286059552e-12
-9.500000000e-03	1.896434080e-01	-3.410225710e-04	8.229895529e-12
-9.600000000e-03	1.896434081e-01	-3.390943190e-04	2.343913102e-11
-9.700000000e-03	1.896434081e-01	-3.371660670e-04	1.267925763e-11
-9.800000000e-03	1.896434081e-01	-3.352378152e-04	1.783918216e-11
-9.900000000e-03	1.896434081e-01	-3.333095633e-04	8.227941479e-12
-1.000000000e-02	1.896434080e-01	-3.313813116e-04	1.409187972e-11
-1.010000000e-02	1.896434078e-01	-3.294530598e-04	1.069602133e-11
-1.020000000e-02	1.896434075e-01	-3.275248082e-04	1.230162443e-11
-1.030000000e-02	1.896434072e-01	-3.255965566e-04	8.839339082e-12
-1.040000000e-02	1.896434069e-01	-3.236683051e-04	1.070096624e-11
-1.050000000e-02	1.896434065e-01	-3.217400536e-04	7.354057103e-12
-1.060000000e-02	1.896434060e-01	-3.198118022e-04	1.087403441e-11
-1.070000000e-02	1.896434055e-01	-3.178835509e-04	5.584105418e-12
-1.080000000e-02	1.896434049e-01	-3.159552997e-04	3.434781693e-11
-1.090000000e-02	1.896434042e-01	-3.140270485e-04	6.370578651e-11
-1.100000000e-02	1.896434035e-01	-3.120987975e-04	1.255666375e-11
-1.110000000e-02	1.896434027e-01	-3.101705465e-04	4.336281397e-12
-1.120000000e-02	1.896434019e-01	-3.082422957e-04	7.050607446e-12
-1.130000000e-02	1.896434010e-01	-3.063140449e-04	1.227214610e-11
-1.140000000e-02	1.896434001e-01	-3.043857942e-04	1.123607089e-11
-1.150000000e-02	1.896433991e-01	-3.024575436e-04	1.041057521e-11
-1.160000000e-02	1.896433980e-01	-3.005292931e-04	4.954307515e-12
-1.170000000e-02	1.896433969e-01	-2.986010428e-04	1.157265504e-11
-1.180000000e-02	1.896433957e-01	-2.966727925e-04	9.555970478e-12
-1.190000000e-02	1.896433945e-01	-2.947445424e-04	6.976213886e-11
-1.200000000e-02	1.896433932e-01	-2.928162923e-04	1.232272552e-11
-1.210000000e-02	1.896433918e-01	-2.908880424e-04	1.720709421e-11
-1.220000000e-02	1.896433904e-01	-2.889597926e-04	1.182758291e-11
-1.230000000e-02	1.896433889e-01	-2.870315430e-04	1.661957628e-11
-1.240000000e-02	1.896433874e-01	-2.851032934e-04	1.033463929e-11
-1.250000000e-02	1.896433858e-01	-2.831750440e-04	1.179602141e-11
-1.260000000e-02	1.896433842e-01	-2.812467947e-04	1.447095212e-11
-1.270000000e-02	1.896433825e-01	-2.793185456e-04	1.479109528e-11
-1.280000000e-02	1.896433807e-01	-2.773902966e-04	2.131269187e-11
-1.290000000e-02	1.896433789e-01	-2.754620477e-04	3.200838121e-11
-1.300000000e-02	1.896433770e-01	-2.735337990e-04	1.325002868e-11
-1.310000000e-02	1.896433750e-01	-2.716055504e-04	1.071265826e-11
-1.320000000e-02	1.896433730e-01	-2.696773020e-04	2.192422207e-11
-1.330000000e-02	1.896433710e-01	-2.677490538e-04	8.670647223e-12
-1.340000000e-02	1.896433688e-01	-2.658208057e-04	5.757859830e-12
-1.350000000e-02	1.896433667e-01	-2.638925577e-04	9.316325847e-12
-1.360000000e-02	1.896433644e-01	-2.619643099e-04	1.309174022e-11
-1.370000000e-02	1.896433621e-01	-2.600360623e-04	1.422509832e-11
-1.380000000e-02	1.896433598e-01	-2.581078149e-04	6.414661792e-12
-1.390000000e-02	1.896433574e-01	-2.561795676e-04	2.688402420e-11
-1.400000000e-02	1.896433549e-01	-2.542513205e-04	8.781877061e-12
-1.410000000e-02	1.896433524e-01	-2.523230736e-04	9.769197354e-12
-1.420000000e-02	1.896433498e-01	-2.503948268e-04	1.472723445e-10
-1.430000000e-02	1.896433471e-01	-2.484665803e-04	2.088407514e-11
-1.440000000e-02	1.896433444e-01	-2.465383339e-04	1.706393092e-11
-1.450000000e-02	1.896433416e-01	-2.446100878e-04	7.047105525e-12
-1.460000000e-02	1.896433388e-01	-2.426818418e-04	1.228969946e-11
-1.470000000e-02	1.896433359e-01	-2.407535960e-04	6.055024215e-12
-1.480000000e-02	1.896433330e-01	-2.388253504e-04	7.803120927e-11
-1.490000000e-02	1.896433300e-01	-2.368971050e-04	2.122424571e-11
-1.500000000e-02	1.896433269e-01	-2.349688598e-04	1.349563710e-11
-1.510000000e-02	1.896433238e-01	-2.330406149e-04	1.289219744e-11
-1.520000000e-02	1.896433206e-01	-2.311123701e-04	1.210088039e-11
-1.530000000e-02	1.896433174e-01	-2.291841256e-04	1.229521109e-11
-1.540000000e-02	1.896433141e-01	-2.272558812e-04	1.076709666e-11
-1.550000000e-02	1.896433108e-01	-2.253276371e-04	1.023509145e-11
-1.560000000e-02	1.896433073e-01	-2.233993932e-04	1.356852254e-11
-1.570000000e-02	1.896433039e-01	-2.214711496e-04	9.898816884e-12
-1.580000000e-02	1.896433003e-01	-2.195429061e-04	1.072694015e-11
-1.590000000e-02	1.896432968e-01	-2.176146629e-04	1.102687801e-11
-1.600000000e-02	1.896432931e-01	-2.156864200e-04	1.506748322e-11
-1.610000000e-02	1.896432894e-01	-2.137581772e-04	1.572528267e-11
-1.620000000e-02	1.896432856e-01	-2.118299347e-04	1.606722483e-10
-1.630000000e-02	1.896432818e-01	-2.099016925e-04	4.127424555e-11
-1.640000000e-02	1.896432779e-01	-2.079734505e-04	1.208656485e-11
-1.650000000e-02	1.896432740e-01	-2.060452088e-04	1.179311154e-11
-1.660000000e-02	1.896432700e-01	-2.041169673e-04	1.473058604e-11
-1.670000000e-02	1.896432659e-01	-2.021887260e-04	1.051898740e-11
-1.680000000e-02	1.896432618e-01	-2.002604850e-04	9.257294786e-12
-1.690000000e-02	1.896432576e-01	-1.983322443e-04	1.299766797e-11
-1.700000000e-02	1.896432534e-01	-1.964040039e-04	1.150885512e-11
-1.710000000e-02	1.896432491e-01	-1.944757637e-04	1.977473055e-11
-1.720000000e-02	1.896432447e-01	-1.925475238e-04	3.403827537e-11
-1.730000000e-02	1.896432403e-01	-1.906192841e-04	3.509317183e-11
-1.740000000e-02	1.896432359e-01	-1.886910447e-04	1.125983749e-11
-1.750000000e-02	1.896432313e-01	-1.867628057e-04	1.553925553e-11
-1.760000000e-02	1.896432267e-01	-1.848345669e-04	9.884124712e-12
-1.770000000e-02	1.896432221e-01	-1.829063283e-04	3.646498543e-11
-1.780000000e-02	1.896432174e-01	-1.809780901e-04	1.598322359e-11
-1.790000000e-02	1.896432126e-01	-1.790498522e-04	9.600677705e-12
-1.800000000e-02	1.896432078e-01	-1.771216145e-04	1.056894709e-11
-1.810000000e-02	1.896432029e-01	-1.751933772e-04	1.084912024e-11
-1.820000000e-02	1.896431980e-01	-1.732651401e-04	1.910559244e-11
-1.830000000e-02	1.896431930e-01	-1.713369034e-04	1.130432417e-11
-1.840000000e-02	1.896431879e-01	-1.694086670e-04	2.051741417e-11
-1.850000000e-02	1.896431828e-01	-1.674804308e-04	2.629997753e-11
-1.860000000e-02	1.896431776e-01	-1.655521950e-04	1.501656164e-11
-1.870000000e-02	1.896431724e-01	-1.636239595e-04	1.564849543e-11
-1.880000000e-02	1.896431671e-01	-1.616957243e-04	1.104581824e-11
-1.890000000e-02	1.896431618e-01	-1.597674895e-04	1.073246234e-11
-1.900000000e-02	1.896431563e-01	-1.578392549e-04	1.590152475e-11
-1.910000000e-02	1.896431509e-01	-1.559110207e-04	1.327015643e-11
-1.920000000e-02	1.896431453e-01	-1.539827868e-04	1.227834455e-11
-1.930000000e-02	1.896431398e-01	-1.520545533e-04	8.062569866e-12
-1.940000000e-02	1.896431341e-01	-1.501263201e-04	1.078863138e-11
-1.950000000e-02	1.896431284e-01	-1.481980872e-04	9.930302955e-12
-1.960000000e-02	1.896431226e-01	-1.462698547e-04	4.236296491e-11
-1.970000000e-02	1.896431168e-01	-1.443416225e-04	7.540090793e-12
-1.980000000e-02	1.896431109e-01	-1.424133907e-04	1.068939246e-11
-1.990000000e-02	1.896431050e-01	-1.404851592e-04	2.243989904e-11
-2.000000000e-02	1.896430990e-01	-1.385569281e-04	1.911775642e-11
-2.010000000e-02	1.896430929e-01	-1.366286973e-04	1.859870133e-11
-2.020000000e-02	1.896430868e-01	-1.347004669e-04	7.388974108e-12
-2.030000000e-02	1.896430807e-01	-1.327722368e-04	3.033087560e-11
-2.040000000e-02	1.896430744e-01	-1.308440071e-04	4.646770738e-11
-2.050000000e-02	1.896430681e-01	-1.289157778e-04	8.243751030e-12
-2.060000000e-02	1.896430618e-01	-1.269875489e-04	2.012343067e-11
-2.070000000e-02	1.896430554e-01	-1.250593203e-04	8.901620379e-12
-2.080000000e-02	1.896430489e-01	-1.231310921e-04	5.747738939e-12
-2.090000000e-02	1.896430424e-01	-1.212028643e-04	2.881153927e-11
-2.100000000e-02	1.896430358e-01	-1.192746369e-04	1.227859310e-11
-2.110000000e-02	1.896430291e-01	-1.173464099e-04	7.940788134e-12
-2.120000000e-02	1.896430224e-01	-1.154181832e-04	2.734741635e-11
-2.130000000e-02	1.896430157e-01	-1.134899570e-04	9.796441487e-12
-2.140000000e-02	1.896430089e-01	-1.115617311e-04	6.522935271e-12
-2.150000000e-02	1.896430020e-01	-1.096335057e-04	9.629341043e-12
-2.160000000e-02	1.896429950e-01	-1.077052806e-04	1.092452318e-11
-2.170000000e-02	1.896429880e-01	-1.057770560e-04	1.262853475e-11
-2.180000000e-02	1.896429810e-01	-1.038488317e-04	1.155754436e-11
-2.190000000e-02	1.896429739e-01	-1.019206079e-04	1.016664219e-11
-2.200000000e-02	1.896429667e-01	-9.999238445e-05	1.932762333e-11
-2.210000000e-02	1.896429595e-01	-9.806416145e-05	7.379948102e-12
-2.220000000e-02	1.896429522e-01	-9.613593887e-05	1.348396556e-11
-2.230000000e-02	1.896429448e-01	-9.420771671e-05	7.802301894e-12
-2.240000000e-02	1.896429374e-01	-9.227949498e-05	2.340505558e-11
-2.250000000e-02	1.896429299e-01	-9.035127367e-05	1.837626204e-11
-2.260000000e-02	1.896429224e-01	-8.842305280e-05	7.804996922e-12
-2.270000000e-02	1.896429148e-01	-8.649483235e-05	1.236848534e-11
-2.280000000e-02	1.896429072e-01	-8.456661235e-05	5.351633597e-12
-2.290000000e-02	1.896428995e-01	-8.263839278e-05	1.101903000e-10
-2.300000000e-02	1.896428917e-01	-8.071017367e-05	1.503601939e-11
-2.310000000e-02	1.896428839e-01	-7.878195501e-05	7.032213114e-11
-2.320000000e-02	1.896428760e-01	-7.685373677e-05	1.009332033e-11
-2.330000000e-02	1.896428681e-01	-7.492551901e-05	1.805651420e-11
-2.340000000e-02	1.896428601e-01	-7.299730169e-05	2.339739196e-11
-2.350000000e-02	1.896428520e-01	-7.106908484e-05	1.075880738e-11
-2.360000000e-02	1.896428439e-01	-6.914086844e-05	1.097735094e-11
-2.370000000e-02	1.896428358e-01	-6.721265252e-05	2.082381440e-11
-2.380000000e-02	1.896428275e-01	-6.528443705e-05	1.293233189e-11
-2.390000000e-02	1.896428192e-01	-6.335622206e-05	1.743415536e-11
-2.400000000e-02	1.896428109e-01	-6.142800754e-05	6.983829240e-12
-2.410000000e-02	1.896428025e-01	-5.949979350e-05	1.387959305e-11
-2.420000000e-02	1.896427940e-01	-5.757157994e-05	8.938525385e-12
-2.430000000e-02	1.896427855e-01	-5.564336685e-05	2.841968664e-11
-2.440000000e-02	1.896427769e-01	-5.371515426e-05	8.600702914e-12
-2.450000000e-02	1.896427683e-01	-5.178694216e-05	1.340143417e-11
-2.460000000e-02	1.896427596e-01	-4.985873052e-05	8.893481337e-11
-2.470000000e-02	1.896427508e-01	-4.793051941e-05	1.568088985e-11
-2.480000000e-02	1.896427420e-01	-4.600230880e-05	9.876819540e-12
-2.490000000e-02	1.896427331e-01	-4.407409867e-05	1.562986858e-11
-2.500000000e-02	1.896427242e-01	-4.214588906e-05	4.092019659e-11
-2.510000000e-02	1.896427152e-01	-4.021767993e-05	9.065453173e-11
-2.520000000e-02	1.896427061e-01	-3.828947132e-05	3.710946447e-11
-2.530000000e-02	1.896426970e-01	-3.636126324e-05	8.341738471e-12
-2.540000000e-02	1.896426878e-01	-3.443305566e-05	9.057701003e-12
-2.550000000e-02	1.896426786e-01	-3.250484860e-05	1.262238172e-11
-2.560000000e-02	1.896426693e-01	-3.057664206e-05	8.575047458e-12
-2.570000000e-02	1.896426600e-01	-2.864843605e-05	6.155589123e-12
-2.580000000e-02	1.896426505e-01	-2.672023056e-05	4.369526800e-11
-2.590000000e-02	1.896426411e-01	-2.479202560e-05	1.144369246e-11
-2.600000000e-02	1.896426316e-01	-2.286382118e-05	3.292119648e-11
-2.610000000e-02	1.896426220e-01	-2.093561729e-05	1.675209341e-11
-2.620000000e-02	1.896426123e-01	-1.900741394e-05	2.262784606e-11
-2.630000000e-02	1.896426026e-01	-1.707921114e-05	3.364849423e-11
-2.640000000e-02	1.896425929e-01	-1.515100887e-05	6.633827127e-12
-2.650000000e-02	1.896425831e-01	-1.322280716e-05	8.169762170e-12
-2.660000000e-02	1.896425732e-01	-1.129460600e-05	4.891392589e-12
-2.670000000e-02	1.896425632e-01	-9.366405384e-06	1.805179718e-11
-2.680000000e-02	1.896425533e-01	-7.438205338e-06	1.451338755e-11
-2.690000000e-02	1.896425432e-01	-5.510005846e-06	2.739052163e-11
-2.700000000e-02	1.896425331e-01	-3.581806913e-06	5.956176271e-12
-2.710000000e-02	1.896425229e-01	-1.653608550e-06	1.362119361e-11
-2.720000000e-02	1.896425127e-01	2.745892435e-07	8.023233492e-12
-2.730000000e-02	1.896425024e-01	2.202786466e-06	1.044520676e-11
-2.740000000e-02	1.896424921e-01	4.130983118e-06	1.045247998e-11
-2.750000000e-02	1.896424816e-01	6.059179179e-06	3.984386670e-11
-2.760000000e-02	1.896424712e-01	7.987374677e-06	1.023963641e-11
-2.770000000e-02	1.896424607e-01	9.915569578e-06	1.957143142e-11
-2.780000000e-02	1.896424501e-01	1.184376391e-05	6.715350694e-11
-2.790000000e-02	1.896424394e-01	1.377195768e-05	2.888258704e-10
-2.800000000e-02	1.896424287e-01	1.570015077e-05	3.664674347e-12
-2.810000000e-02	1.896424180e-01	1.762834331e-05	5.757959221e-12
-2.820000000e-02	1.896424072e-01	1.955653525e-05	1.144997625e-11
-2.830000000e-02	1.896423963e-01	2.148472659e-05	1.421726472e-11
-2.840000000e-02	1.896423853e-01	2.341291733e-05	1.333523773e-11
-2.850000000e-02	1.896423744e-01	2.534110746e-05	1.093527433e-11
-2.860000000e-02	1.896423633e-01	2.726929697e-05	1.224432926e-11
-2.870000000e-02	1.896423522e-01	2.919748588e-05	9.478815981e-12
-2.880000000e-02	1.896423410e-01	3.112567417e-05	5.978400713e-12
-2.890000000e-02	1.896423298e-01	3.305386184e-05	1.448817197e-11
-2.900000000e-02	1.896423185e-01	3.498204888e-05	2.525511918e-11
-2.910000000e-02	1.896423072e-01	3.691023530e-05	2.671114694e-11
-2.920000000e-02	1.896422958e-01	3.883842109e-05	1.153807198e-11
-2.930000000e-02	1.896422843e-01	4.076660626e-05	1.030071906e-11
-2.940000000e-02	1.896422728e-01	4.269479078e-05	8.026697112e-12
-2.950000000e-02	1.896422612e-01	4.462297467e-05	8.541650544e-12
-2.960000000e-02	1.896422496e-01	4.655115792e-05	1.445350801e-11
-2.970000000e-02	1.896422379e-01	4.847934052e-05	1.399763928e-11
-2.980000000e-02	1.896422261e-01	5.040752248e-05	1.064477410e-11
-2.990000000e-02	1.896422143e-01	5.233570379e-05	1.615801852e-11
-3.000000000e-02	1.896422024e-01	5.426388445e-05	3.537283537e-11
