# Im(epsi1)     Re(omega/c)      Im(omega/c)      Eq(det).Opt det CON kz, R=0.5 \mum, mu_c=0.3, Re(epsi1)=3.90solve_det_conkz_vs_kz.py
0.000000000e+00	1.896749796e-01	-5.242750485e-04	1.052308529e-11
-1.000000000e-04	1.896749853e-01	-5.223466494e-04	1.854892986e-11
-2.000000000e-04	1.896749909e-01	-5.204182501e-04	1.775893154e-11
-3.000000000e-04	1.896749965e-01	-5.184898505e-04	5.353058238e-12
-4.000000000e-04	1.896750020e-01	-5.165614507e-04	3.760903702e-11
-5.000000000e-04	1.896750075e-01	-5.146330507e-04	1.257115160e-11
-6.000000000e-04	1.896750129e-01	-5.127046504e-04	7.422978865e-12
-7.000000000e-04	1.896750182e-01	-5.107762499e-04	1.183423531e-11
-8.000000000e-04	1.896750235e-01	-5.088478492e-04	1.084355043e-11
-9.000000000e-04	1.896750287e-01	-5.069194483e-04	2.455075423e-11
-1.000000000e-03	1.896750339e-01	-5.049910472e-04	1.390544432e-11
-1.100000000e-03	1.896750390e-01	-5.030626459e-04	4.321368775e-11
-1.200000000e-03	1.896750440e-01	-5.011342443e-04	8.565382169e-12
-1.300000000e-03	1.896750490e-01	-4.992058426e-04	1.178090763e-11
-1.400000000e-03	1.896750540e-01	-4.972774406e-04	7.490523255e-12
-1.500000000e-03	1.896750588e-01	-4.953490385e-04	1.704093518e-11
-1.600000000e-03	1.896750637e-01	-4.934206361e-04	5.140359058e-12
-1.700000000e-03	1.896750684e-01	-4.914922336e-04	1.192391385e-11
-1.800000000e-03	1.896750731e-01	-4.895638309e-04	6.220782181e-12
-1.900000000e-03	1.896750778e-01	-4.876354280e-04	2.250117722e-11
-2.000000000e-03	1.896750823e-01	-4.857070249e-04	2.862171056e-11
-2.100000000e-03	1.896750869e-01	-4.837786216e-04	5.501978987e-12
-2.200000000e-03	1.896750913e-01	-4.818502182e-04	1.051503761e-10
-2.300000000e-03	1.896750957e-01	-4.799218146e-04	9.475004790e-12
-2.400000000e-03	1.896751001e-01	-4.779934108e-04	2.869513691e-11
-2.500000000e-03	1.896751044e-01	-4.760650068e-04	3.419420910e-11
-2.600000000e-03	1.896751086e-01	-4.741366027e-04	1.060390530e-11
-2.700000000e-03	1.896751128e-01	-4.722081984e-04	2.453523916e-11
-2.800000000e-03	1.896751169e-01	-4.702797940e-04	1.723269582e-11
-2.900000000e-03	1.896751209e-01	-4.683513894e-04	8.042358958e-12
-3.000000000e-03	1.896751249e-01	-4.664229847e-04	2.286467088e-11
-3.100000000e-03	1.896751288e-01	-4.644945798e-04	1.321848985e-11
-3.200000000e-03	1.896751327e-01	-4.625661747e-04	2.257145689e-11
-3.300000000e-03	1.896751365e-01	-4.606377695e-04	1.647567497e-11
-3.400000000e-03	1.896751403e-01	-4.587093642e-04	9.792269892e-12
-3.500000000e-03	1.896751440e-01	-4.567809587e-04	1.154677495e-10
-3.600000000e-03	1.896751476e-01	-4.548525531e-04	1.233867865e-11
-3.700000000e-03	1.896751512e-01	-4.529241474e-04	9.038674886e-12
-3.800000000e-03	1.896751547e-01	-4.509957415e-04	9.012132157e-12
-3.900000000e-03	1.896751582e-01	-4.490673355e-04	6.234417162e-12
-4.000000000e-03	1.896751616e-01	-4.471389294e-04	2.609889250e-11
-4.100000000e-03	1.896751649e-01	-4.452105232e-04	3.726284488e-11
-4.200000000e-03	1.896751682e-01	-4.432821168e-04	5.930839487e-12
-4.300000000e-03	1.896751715e-01	-4.413537103e-04	1.146459857e-11
-4.400000000e-03	1.896751746e-01	-4.394253038e-04	9.877434255e-12
-4.500000000e-03	1.896751777e-01	-4.374968971e-04	9.016570798e-12
-4.600000000e-03	1.896751808e-01	-4.355684903e-04	4.975654978e-11
-4.700000000e-03	1.896751838e-01	-4.336400834e-04	2.158925594e-11
-4.800000000e-03	1.896751867e-01	-4.317116764e-04	1.114855357e-11
-4.900000000e-03	1.896751896e-01	-4.297832693e-04	5.966254406e-12
-5.000000000e-03	1.896751924e-01	-4.278548621e-04	9.078383489e-12
-5.100000000e-03	1.896751952e-01	-4.259264549e-04	1.182341292e-11
-5.200000000e-03	1.896751979e-01	-4.239980475e-04	2.483857891e-11
-5.300000000e-03	1.896752005e-01	-4.220696401e-04	2.158268322e-11
-5.400000000e-03	1.896752031e-01	-4.201412325e-04	5.503319153e-12
-5.500000000e-03	1.896752056e-01	-4.182128249e-04	2.080079569e-11
-5.600000000e-03	1.896752081e-01	-4.162844173e-04	1.332304539e-11
-5.700000000e-03	1.896752105e-01	-4.143560095e-04	3.367175330e-11
-5.800000000e-03	1.896752128e-01	-4.124276017e-04	8.311292557e-12
-5.900000000e-03	1.896752151e-01	-4.104991938e-04	4.668648454e-11
-6.000000000e-03	1.896752174e-01	-4.085707858e-04	2.465756419e-11
-6.100000000e-03	1.896752195e-01	-4.066423778e-04	1.479532767e-11
-6.200000000e-03	1.896752216e-01	-4.047139698e-04	4.451055583e-11
-6.300000000e-03	1.896752237e-01	-4.027855616e-04	1.084964291e-11
-6.400000000e-03	1.896752257e-01	-4.008571535e-04	1.043715597e-11
-6.500000000e-03	1.896752276e-01	-3.989287452e-04	1.010307667e-11
-6.600000000e-03	1.896752295e-01	-3.970003370e-04	1.753020609e-11
-6.700000000e-03	1.896752313e-01	-3.950719287e-04	1.794889117e-11
-6.800000000e-03	1.896752331e-01	-3.931435203e-04	1.897551412e-11
-6.900000000e-03	1.896752348e-01	-3.912151119e-04	1.562047428e-11
-7.000000000e-03	1.896752364e-01	-3.892867035e-04	2.075446851e-11
-7.100000000e-03	1.896752380e-01	-3.873582951e-04	6.460263005e-12
-7.200000000e-03	1.896752395e-01	-3.854298866e-04	8.511790334e-12
-7.300000000e-03	1.896752410e-01	-3.835014781e-04	1.809559936e-11
-7.400000000e-03	1.896752424e-01	-3.815730695e-04	6.469450417e-11
-7.500000000e-03	1.896752438e-01	-3.796446610e-04	1.193851449e-11
-7.600000000e-03	1.896752450e-01	-3.777162524e-04	1.004042570e-11
-7.700000000e-03	1.896752463e-01	-3.757878439e-04	1.069677129e-11
-7.800000000e-03	1.896752474e-01	-3.738594353e-04	1.935484270e-11
-7.900000000e-03	1.896752486e-01	-3.719310267e-04	5.174410639e-12
-8.000000000e-03	1.896752496e-01	-3.700026181e-04	1.600379299e-11
-8.100000000e-03	1.896752506e-01	-3.680742095e-04	5.858725875e-12
-8.200000000e-03	1.896752515e-01	-3.661458009e-04	1.254533646e-11
-8.300000000e-03	1.896752524e-01	-3.642173923e-04	1.601469645e-11
-8.400000000e-03	1.896752532e-01	-3.622889838e-04	1.616312394e-11
-8.500000000e-03	1.896752540e-01	-3.603605752e-04	9.944742435e-12
-8.600000000e-03	1.896752547e-01	-3.584321666e-04	7.503977082e-12
-8.700000000e-03	1.896752553e-01	-3.565037581e-04	1.737184909e-11
-8.800000000e-03	1.896752559e-01	-3.545753496e-04	1.751578262e-11
-8.900000000e-03	1.896752565e-01	-3.526469411e-04	1.382508174e-11
-9.000000000e-03	1.896752569e-01	-3.507185326e-04	7.071083767e-11
-9.100000000e-03	1.896752573e-01	-3.487901242e-04	2.312357820e-11
-9.200000000e-03	1.896752577e-01	-3.468617158e-04	1.447660694e-11
-9.300000000e-03	1.896752580e-01	-3.449333074e-04	1.164998865e-11
-9.400000000e-03	1.896752582e-01	-3.430048991e-04	2.375627338e-11
-9.500000000e-03	1.896752584e-01	-3.410764908e-04	1.093315189e-11
-9.600000000e-03	1.896752585e-01	-3.391480825e-04	4.151115941e-11
-9.700000000e-03	1.896752585e-01	-3.372196743e-04	9.312243233e-12
-9.800000000e-03	1.896752585e-01	-3.352912662e-04	1.101145223e-11
-9.900000000e-03	1.896752585e-01	-3.333628581e-04	1.147460804e-11
-1.000000000e-02	1.896752584e-01	-3.314344500e-04	1.582776171e-11
-1.010000000e-02	1.896752582e-01	-3.295060421e-04	5.823774072e-12
-1.020000000e-02	1.896752579e-01	-3.275776341e-04	1.590296330e-11
-1.030000000e-02	1.896752576e-01	-3.256492263e-04	3.878201986e-11
-1.040000000e-02	1.896752573e-01	-3.237208185e-04	7.961308841e-12
-1.050000000e-02	1.896752569e-01	-3.217924108e-04	1.024135228e-11
-1.060000000e-02	1.896752564e-01	-3.198640031e-04	2.921596582e-11
-1.070000000e-02	1.896752559e-01	-3.179355956e-04	1.104369491e-11
-1.080000000e-02	1.896752553e-01	-3.160071881e-04	1.806021830e-11
-1.090000000e-02	1.896752546e-01	-3.140787807e-04	7.963983465e-12
-1.100000000e-02	1.896752539e-01	-3.121503733e-04	1.383849349e-11
-1.110000000e-02	1.896752531e-01	-3.102219661e-04	1.335868745e-11
-1.120000000e-02	1.896752523e-01	-3.082935590e-04	6.539022311e-12
-1.130000000e-02	1.896752514e-01	-3.063651519e-04	7.994749037e-12
-1.140000000e-02	1.896752505e-01	-3.044367450e-04	8.515184766e-12
-1.150000000e-02	1.896752495e-01	-3.025083381e-04	8.145089967e-12
-1.160000000e-02	1.896752484e-01	-3.005799314e-04	9.076340156e-12
-1.170000000e-02	1.896752473e-01	-2.986515247e-04	9.931036901e-12
-1.180000000e-02	1.896752461e-01	-2.967231182e-04	1.466029239e-11
-1.190000000e-02	1.896752449e-01	-2.947947118e-04	1.336170323e-11
-1.200000000e-02	1.896752436e-01	-2.928663055e-04	6.596757112e-12
-1.210000000e-02	1.896752422e-01	-2.909378993e-04	1.355664264e-11
-1.220000000e-02	1.896752408e-01	-2.890094933e-04	6.224966943e-12
-1.230000000e-02	1.896752394e-01	-2.870810873e-04	7.295890005e-12
-1.240000000e-02	1.896752378e-01	-2.851526815e-04	9.528648032e-12
-1.250000000e-02	1.896752362e-01	-2.832242758e-04	9.782528507e-12
-1.260000000e-02	1.896752346e-01	-2.812958703e-04	1.447797451e-11
-1.270000000e-02	1.896752329e-01	-2.793674649e-04	1.219044335e-11
-1.280000000e-02	1.896752311e-01	-2.774390596e-04	1.856247561e-11
-1.290000000e-02	1.896752293e-01	-2.755106545e-04	2.751779734e-11
-1.300000000e-02	1.896752274e-01	-2.735822495e-04	1.450718957e-11
-1.310000000e-02	1.896752255e-01	-2.716538447e-04	2.153116478e-11
-1.320000000e-02	1.896752235e-01	-2.697254400e-04	5.347489844e-11
-1.330000000e-02	1.896752214e-01	-2.677970355e-04	1.054513567e-11
-1.340000000e-02	1.896752193e-01	-2.658686311e-04	2.334400860e-11
-1.350000000e-02	1.896752171e-01	-2.639402269e-04	1.278743636e-11
-1.360000000e-02	1.896752149e-01	-2.620118228e-04	1.335436635e-11
-1.370000000e-02	1.896752126e-01	-2.600834190e-04	1.461307915e-11
-1.380000000e-02	1.896752102e-01	-2.581550153e-04	2.544367043e-11
-1.390000000e-02	1.896752078e-01	-2.562266117e-04	1.224949690e-11
-1.400000000e-02	1.896752053e-01	-2.542982083e-04	4.596916832e-11
-1.410000000e-02	1.896752028e-01	-2.523698052e-04	9.100382938e-12
-1.420000000e-02	1.896752002e-01	-2.504414022e-04	9.310784128e-12
-1.430000000e-02	1.896751976e-01	-2.485129993e-04	1.433734907e-11
-1.440000000e-02	1.896751949e-01	-2.465845967e-04	2.130069565e-10
-1.450000000e-02	1.896751921e-01	-2.446561943e-04	7.874459368e-12
-1.460000000e-02	1.896751893e-01	-2.427277920e-04	7.106758350e-12
-1.470000000e-02	1.896751864e-01	-2.407993900e-04	7.683952233e-12
-1.480000000e-02	1.896751834e-01	-2.388709881e-04	1.201627670e-11
-1.490000000e-02	1.896751804e-01	-2.369425865e-04	1.173677860e-11
-1.500000000e-02	1.896751774e-01	-2.350141850e-04	3.761073850e-12
-1.510000000e-02	1.896751743e-01	-2.330857838e-04	6.685778366e-12
-1.520000000e-02	1.896751711e-01	-2.311573827e-04	1.355341305e-11
-1.530000000e-02	1.896751679e-01	-2.292289819e-04	7.225921113e-12
-1.540000000e-02	1.896751646e-01	-2.273005813e-04	1.653739666e-11
-1.550000000e-02	1.896751612e-01	-2.253721809e-04	2.882040721e-11
-1.560000000e-02	1.896751578e-01	-2.234437808e-04	9.636339829e-12
-1.570000000e-02	1.896751543e-01	-2.215153809e-04	1.354549265e-11
-1.580000000e-02	1.896751508e-01	-2.195869812e-04	1.037627051e-11
-1.590000000e-02	1.896751472e-01	-2.176585817e-04	8.068604934e-12
-1.600000000e-02	1.896751436e-01	-2.157301824e-04	9.938754977e-12
-1.610000000e-02	1.896751399e-01	-2.138017834e-04	7.220991551e-12
-1.620000000e-02	1.896751361e-01	-2.118733847e-04	1.033402470e-11
-1.630000000e-02	1.896751323e-01	-2.099449862e-04	1.974904528e-11
-1.640000000e-02	1.896751284e-01	-2.080165879e-04	8.871427877e-12
-1.650000000e-02	1.896751244e-01	-2.060881899e-04	6.758178101e-11
-1.660000000e-02	1.896751204e-01	-2.041597921e-04	1.362344317e-10
-1.670000000e-02	1.896751164e-01	-2.022313946e-04	1.601649695e-11
-1.680000000e-02	1.896751123e-01	-2.003029974e-04	4.575856033e-11
-1.690000000e-02	1.896751081e-01	-1.983746004e-04	9.222971125e-12
-1.700000000e-02	1.896751039e-01	-1.964462037e-04	1.117028972e-11
-1.710000000e-02	1.896750996e-01	-1.945178072e-04	1.900920779e-11
-1.720000000e-02	1.896750952e-01	-1.925894110e-04	4.488529896e-11
-1.730000000e-02	1.896750908e-01	-1.906610151e-04	1.806655910e-11
-1.740000000e-02	1.896750863e-01	-1.887326195e-04	8.128886860e-12
-1.750000000e-02	1.896750818e-01	-1.868042241e-04	1.838719153e-11
-1.760000000e-02	1.896750772e-01	-1.848758290e-04	1.434190000e-11
-1.770000000e-02	1.896750726e-01	-1.829474343e-04	8.113806665e-12
-1.780000000e-02	1.896750679e-01	-1.810190398e-04	1.199309977e-11
-1.790000000e-02	1.896750631e-01	-1.790906456e-04	1.870124032e-11
-1.800000000e-02	1.896750583e-01	-1.771622516e-04	7.058889274e-12
-1.810000000e-02	1.896750534e-01	-1.752338580e-04	2.855413478e-11
-1.820000000e-02	1.896750485e-01	-1.733054647e-04	8.854314427e-12
-1.830000000e-02	1.896750435e-01	-1.713770717e-04	5.885547794e-12
-1.840000000e-02	1.896750384e-01	-1.694486790e-04	7.395948119e-12
-1.850000000e-02	1.896750333e-01	-1.675202866e-04	6.333921937e-12
-1.860000000e-02	1.896750281e-01	-1.655918945e-04	1.122480466e-11
-1.870000000e-02	1.896750229e-01	-1.636635027e-04	2.087776696e-11
-1.880000000e-02	1.896750176e-01	-1.617351113e-04	3.271666926e-11
-1.890000000e-02	1.896750122e-01	-1.598067202e-04	1.075617838e-11
-1.900000000e-02	1.896750068e-01	-1.578783294e-04	2.416727174e-11
-1.910000000e-02	1.896750014e-01	-1.559499389e-04	9.365961245e-12
-1.920000000e-02	1.896749958e-01	-1.540215487e-04	1.397278184e-11
-1.930000000e-02	1.896749902e-01	-1.520931589e-04	7.507313614e-12
-1.940000000e-02	1.896749846e-01	-1.501647694e-04	2.670092160e-11
-1.950000000e-02	1.896749789e-01	-1.482363803e-04	6.054841022e-12
-1.960000000e-02	1.896749731e-01	-1.463079915e-04	3.794532347e-11
-1.970000000e-02	1.896749673e-01	-1.443796031e-04	1.264870484e-11
-1.980000000e-02	1.896749614e-01	-1.424512149e-04	5.574762072e-12
-1.990000000e-02	1.896749555e-01	-1.405228272e-04	1.034238967e-11
-2.000000000e-02	1.896749495e-01	-1.385944398e-04	2.817916285e-11
-2.010000000e-02	1.896749434e-01	-1.366660528e-04	6.401544717e-12
-2.020000000e-02	1.896749373e-01	-1.347376661e-04	1.095726458e-11
-2.030000000e-02	1.896749311e-01	-1.328092798e-04	2.639900753e-11
-2.040000000e-02	1.896749249e-01	-1.308808938e-04	5.705587960e-11
-2.050000000e-02	1.896749186e-01	-1.289525082e-04	1.166086693e-11
-2.060000000e-02	1.896749123e-01	-1.270241230e-04	9.906785763e-12
-2.070000000e-02	1.896749059e-01	-1.250957382e-04	1.801037623e-11
-2.080000000e-02	1.896748994e-01	-1.231673537e-04	8.943461041e-12
-2.090000000e-02	1.896748929e-01	-1.212389696e-04	2.211372185e-11
-2.100000000e-02	1.896748863e-01	-1.193105859e-04	6.852409600e-11
-2.110000000e-02	1.896748796e-01	-1.173822026e-04	3.344500566e-11
-2.120000000e-02	1.896748729e-01	-1.154538197e-04	1.089486697e-11
-2.130000000e-02	1.896748662e-01	-1.135254372e-04	2.296184214e-11
-2.140000000e-02	1.896748594e-01	-1.115970551e-04	1.200990270e-11
-2.150000000e-02	1.896748525e-01	-1.096686733e-04	9.326606255e-12
-2.160000000e-02	1.896748455e-01	-1.077402920e-04	3.301713846e-11
-2.170000000e-02	1.896748385e-01	-1.058119111e-04	1.240310951e-11
-2.180000000e-02	1.896748315e-01	-1.038835306e-04	1.637515208e-11
-2.190000000e-02	1.896748244e-01	-1.019551505e-04	4.921972658e-12
-2.200000000e-02	1.896748172e-01	-1.000267708e-04	7.788493443e-12
-2.210000000e-02	1.896748100e-01	-9.809839149e-05	1.794525006e-11
-2.220000000e-02	1.896748027e-01	-9.617001264e-05	1.394796561e-11
-2.230000000e-02	1.896747953e-01	-9.424163420e-05	3.504835543e-11
-2.240000000e-02	1.896747879e-01	-9.231325620e-05	1.388815766e-11
-2.250000000e-02	1.896747805e-01	-9.038487862e-05	2.977372363e-11
-2.260000000e-02	1.896747729e-01	-8.845650147e-05	1.160031594e-11
-2.270000000e-02	1.896747653e-01	-8.652812476e-05	1.252167072e-11
-2.280000000e-02	1.896747577e-01	-8.459974849e-05	1.122653969e-11
-2.290000000e-02	1.896747500e-01	-8.267137265e-05	2.831086647e-11
-2.300000000e-02	1.896747422e-01	-8.074299727e-05	1.913286044e-11
-2.310000000e-02	1.896747344e-01	-7.881462232e-05	1.273737068e-11
-2.320000000e-02	1.896747265e-01	-7.688624783e-05	1.262624634e-11
-2.330000000e-02	1.896747186e-01	-7.495787378e-05	1.075230481e-11
-2.340000000e-02	1.896747106e-01	-7.302950020e-05	1.047455098e-11
-2.350000000e-02	1.896747026e-01	-7.110112707e-05	2.743649268e-11
-2.360000000e-02	1.896746944e-01	-6.917275440e-05	1.150764450e-11
-2.370000000e-02	1.896746863e-01	-6.724438221e-05	7.566797340e-11
-2.380000000e-02	1.896746780e-01	-6.531601047e-05	5.126276691e-12
-2.390000000e-02	1.896746697e-01	-6.338763920e-05	2.221532881e-11
-2.400000000e-02	1.896746614e-01	-6.145926841e-05	9.208084044e-12
-2.410000000e-02	1.896746530e-01	-5.953089809e-05	1.501100875e-11
-2.420000000e-02	1.896746445e-01	-5.760252826e-05	8.601786541e-12
-2.430000000e-02	1.896746360e-01	-5.567415891e-05	1.473755583e-11
-2.440000000e-02	1.896746274e-01	-5.374579004e-05	6.820598848e-12
-2.450000000e-02	1.896746188e-01	-5.181742167e-05	2.693919879e-10
-2.460000000e-02	1.896746101e-01	-4.988905377e-05	9.660605214e-12
-2.470000000e-02	1.896746013e-01	-4.796068638e-05	3.101497656e-11
-2.480000000e-02	1.896745925e-01	-4.603231948e-05	9.487615920e-12
-2.490000000e-02	1.896745836e-01	-4.410395308e-05	3.157302667e-11
-2.500000000e-02	1.896745747e-01	-4.217558719e-05	7.265923916e-12
-2.510000000e-02	1.896745657e-01	-4.024722180e-05	4.200094736e-11
-2.520000000e-02	1.896745566e-01	-3.831885692e-05	1.221045113e-11
-2.530000000e-02	1.896745475e-01	-3.639049255e-05	1.936391684e-11
-2.540000000e-02	1.896745384e-01	-3.446212870e-05	1.247471978e-11
-2.550000000e-02	1.896745291e-01	-3.253376537e-05	1.156396799e-11
-2.560000000e-02	1.896745198e-01	-3.060540255e-05	3.824875740e-11
-2.570000000e-02	1.896745105e-01	-2.867704027e-05	7.960267571e-12
-2.580000000e-02	1.896745011e-01	-2.674867851e-05	1.369261117e-11
-2.590000000e-02	1.896744916e-01	-2.482031728e-05	6.067000305e-12
-2.600000000e-02	1.896744821e-01	-2.289195658e-05	9.008346354e-12
-2.610000000e-02	1.896744725e-01	-2.096359642e-05	2.149919253e-11
-2.620000000e-02	1.896744629e-01	-1.903523679e-05	1.246471370e-11
-2.630000000e-02	1.896744532e-01	-1.710687771e-05	1.190922207e-11
-2.640000000e-02	1.896744434e-01	-1.517851918e-05	1.762075863e-11
-2.650000000e-02	1.896744336e-01	-1.325016119e-05	6.190309660e-12
-2.660000000e-02	1.896744237e-01	-1.132180375e-05	1.124699415e-11
-2.670000000e-02	1.896744138e-01	-9.393446863e-06	2.377939227e-11
-2.680000000e-02	1.896744038e-01	-7.465090538e-06	1.295821367e-11
-2.690000000e-02	1.896743937e-01	-5.536734770e-06	1.460840668e-11
-2.700000000e-02	1.896743836e-01	-3.608379567e-06	9.024976931e-12
-2.710000000e-02	1.896743735e-01	-1.680024927e-06	9.242853781e-12
-2.720000000e-02	1.896743632e-01	2.483291428e-07	7.530542036e-12
-2.730000000e-02	1.896743529e-01	2.176682642e-06	1.082822393e-11
-2.740000000e-02	1.896743426e-01	4.105035564e-06	1.265060359e-11
-2.750000000e-02	1.896743322e-01	6.033387910e-06	8.948598343e-12
-2.760000000e-02	1.896743217e-01	7.961739676e-06	1.053940941e-11
-2.770000000e-02	1.896743112e-01	9.890090857e-06	8.429597165e-12
-2.780000000e-02	1.896743006e-01	1.181844145e-05	3.849820685e-12
-2.790000000e-02	1.896742900e-01	1.374679146e-05	1.046820688e-11
-2.800000000e-02	1.896742793e-01	1.567514087e-05	1.115442348e-11
-2.810000000e-02	1.896742685e-01	1.760348969e-05	1.347571290e-11
-2.820000000e-02	1.896742577e-01	1.953183791e-05	9.376044703e-12
-2.830000000e-02	1.896742468e-01	2.146018552e-05	8.133003828e-12
-2.840000000e-02	1.896742359e-01	2.338853253e-05	5.528557134e-12
-2.850000000e-02	1.896742249e-01	2.531687894e-05	1.150860298e-11
-2.860000000e-02	1.896742139e-01	2.724522473e-05	1.498260703e-11
-2.870000000e-02	1.896742028e-01	2.917356992e-05	6.683533160e-11
-2.880000000e-02	1.896741916e-01	3.110191448e-05	1.172544918e-11
-2.890000000e-02	1.896741804e-01	3.303025842e-05	1.208763905e-10
-2.900000000e-02	1.896741691e-01	3.495860175e-05	1.624941870e-11
-2.910000000e-02	1.896741577e-01	3.688694444e-05	9.623761853e-12
-2.920000000e-02	1.896741463e-01	3.881528651e-05	1.463894248e-11
-2.930000000e-02	1.896741349e-01	4.074362795e-05	9.234258274e-12
-2.940000000e-02	1.896741233e-01	4.267196875e-05	1.729890908e-11
-2.950000000e-02	1.896741118e-01	4.460030892e-05	5.629176167e-12
-2.960000000e-02	1.896741001e-01	4.652864844e-05	9.618993268e-12
-2.970000000e-02	1.896740884e-01	4.845698732e-05	7.680259057e-12
-2.980000000e-02	1.896740767e-01	5.038532556e-05	1.903957453e-11
-2.990000000e-02	1.896740648e-01	5.231366315e-05	1.175884742e-11
-3.000000000e-02	1.896740530e-01	5.424200008e-05	7.812285773e-12
