# Im(epsi1)     Re(omega/c)      Im(omega/c)      Eq(det).Opt det CON kz, R=0.5 \mum, mu_c=0.3, Re(epsi1)=3.90solve_det_conkz_vs_kz.py
0.000000000e+00	1.896486778e-01	-5.242217233e-04	1.593956900e-11
-1.000000000e-04	1.896486835e-01	-5.222934534e-04	1.121142421e-11
-2.000000000e-04	1.896486892e-01	-5.203651831e-04	2.174228795e-11
-3.000000000e-04	1.896486947e-01	-5.184369127e-04	1.627215553e-11
-4.000000000e-04	1.896487003e-01	-5.165086421e-04	1.636974271e-11
-5.000000000e-04	1.896487057e-01	-5.145803712e-04	1.052332360e-11
-6.000000000e-04	1.896487111e-01	-5.126521000e-04	1.678253460e-11
-7.000000000e-04	1.896487165e-01	-5.107238287e-04	1.683606032e-11
-8.000000000e-04	1.896487217e-01	-5.087955571e-04	2.173337581e-11
-9.000000000e-04	1.896487270e-01	-5.068672854e-04	9.523943494e-12
-1.000000000e-03	1.896487321e-01	-5.049390134e-04	1.242762843e-11
-1.100000000e-03	1.896487372e-01	-5.030107412e-04	7.442309628e-11
-1.200000000e-03	1.896487423e-01	-5.010824688e-04	8.352186677e-12
-1.300000000e-03	1.896487473e-01	-4.991541962e-04	2.302572920e-11
-1.400000000e-03	1.896487522e-01	-4.972259234e-04	9.540366705e-12
-1.500000000e-03	1.896487571e-01	-4.952976504e-04	7.994679169e-11
-1.600000000e-03	1.896487619e-01	-4.933693772e-04	7.376661744e-12
-1.700000000e-03	1.896487667e-01	-4.914411038e-04	6.644452051e-11
-1.800000000e-03	1.896487714e-01	-4.895128302e-04	3.323122264e-11
-1.900000000e-03	1.896487760e-01	-4.875845564e-04	2.181629781e-11
-2.000000000e-03	1.896487806e-01	-4.856562825e-04	6.110076309e-12
-2.100000000e-03	1.896487851e-01	-4.837280083e-04	6.835413589e-12
-2.200000000e-03	1.896487896e-01	-4.817997340e-04	8.933037685e-12
-2.300000000e-03	1.896487940e-01	-4.798714596e-04	1.269034682e-11
-2.400000000e-03	1.896487983e-01	-4.779431849e-04	5.218943457e-12
-2.500000000e-03	1.896488026e-01	-4.760149101e-04	9.728823345e-12
-2.600000000e-03	1.896488068e-01	-4.740866351e-04	2.277044162e-11
-2.700000000e-03	1.896488110e-01	-4.721583600e-04	3.480483969e-11
-2.800000000e-03	1.896488151e-01	-4.702300847e-04	2.244719412e-11
-2.900000000e-03	1.896488192e-01	-4.683018092e-04	1.086393332e-11
-3.000000000e-03	1.896488232e-01	-4.663735336e-04	4.336747081e-11
-3.100000000e-03	1.896488271e-01	-4.644452578e-04	1.659066446e-11
-3.200000000e-03	1.896488310e-01	-4.625169819e-04	1.355789746e-11
-3.300000000e-03	1.896488348e-01	-4.605887059e-04	9.177226784e-12
-3.400000000e-03	1.896488385e-01	-4.586604297e-04	1.086674437e-11
-3.500000000e-03	1.896488422e-01	-4.567321534e-04	2.332097851e-11
-3.600000000e-03	1.896488459e-01	-4.548038769e-04	1.383193786e-11
-3.700000000e-03	1.896488494e-01	-4.528756003e-04	2.958184105e-11
-3.800000000e-03	1.896488530e-01	-4.509473236e-04	6.818795088e-12
-3.900000000e-03	1.896488564e-01	-4.490190467e-04	9.892106855e-12
-4.000000000e-03	1.896488598e-01	-4.470907697e-04	3.065093739e-11
-4.100000000e-03	1.896488632e-01	-4.451624926e-04	2.230987808e-11
-4.200000000e-03	1.896488665e-01	-4.432342154e-04	8.119066655e-12
-4.300000000e-03	1.896488697e-01	-4.413059381e-04	1.174588053e-11
-4.400000000e-03	1.896488729e-01	-4.393776607e-04	1.382713062e-11
-4.500000000e-03	1.896488760e-01	-4.374493831e-04	1.192424722e-11
-4.600000000e-03	1.896488790e-01	-4.355211055e-04	1.605168914e-11
-4.700000000e-03	1.896488820e-01	-4.335928277e-04	1.066873495e-11
-4.800000000e-03	1.896488850e-01	-4.316645499e-04	6.717194341e-12
-4.900000000e-03	1.896488878e-01	-4.297362719e-04	1.141253021e-11
-5.000000000e-03	1.896488907e-01	-4.278079939e-04	1.423462238e-11
-5.100000000e-03	1.896488934e-01	-4.258797157e-04	8.572618627e-12
-5.200000000e-03	1.896488961e-01	-4.239514375e-04	8.170622314e-12
-5.300000000e-03	1.896488988e-01	-4.220231592e-04	9.096329934e-12
-5.400000000e-03	1.896489013e-01	-4.200948808e-04	1.870416724e-11
-5.500000000e-03	1.896489039e-01	-4.181666023e-04	8.249896228e-12
-5.600000000e-03	1.896489063e-01	-4.162383238e-04	5.463158661e-12
-5.700000000e-03	1.896489087e-01	-4.143100452e-04	7.183886259e-12
-5.800000000e-03	1.896489111e-01	-4.123817665e-04	2.054805088e-11
-5.900000000e-03	1.896489134e-01	-4.104534878e-04	8.814091016e-12
-6.000000000e-03	1.896489156e-01	-4.085252090e-04	1.846844688e-11
-6.100000000e-03	1.896489178e-01	-4.065969301e-04	1.737080705e-11
-6.200000000e-03	1.896489199e-01	-4.046686512e-04	1.207243978e-11
-6.300000000e-03	1.896489219e-01	-4.027403722e-04	7.458296647e-12
-6.400000000e-03	1.896489239e-01	-4.008120931e-04	1.290290617e-11
-6.500000000e-03	1.896489259e-01	-3.988838140e-04	1.062795162e-11
-6.600000000e-03	1.896489277e-01	-3.969555349e-04	8.270258919e-12
-6.700000000e-03	1.896489295e-01	-3.950272557e-04	1.287036080e-11
-6.800000000e-03	1.896489313e-01	-3.930989765e-04	1.698711349e-11
-6.900000000e-03	1.896489330e-01	-3.911706973e-04	1.642994724e-11
-7.000000000e-03	1.896489346e-01	-3.892424180e-04	1.681053747e-11
-7.100000000e-03	1.896489362e-01	-3.873141387e-04	8.195065385e-11
-7.200000000e-03	1.896489378e-01	-3.853858593e-04	7.005527499e-12
-7.300000000e-03	1.896489392e-01	-3.834575800e-04	2.040950031e-11
-7.400000000e-03	1.896489406e-01	-3.815293006e-04	8.270253981e-12
-7.500000000e-03	1.896489420e-01	-3.796010212e-04	1.786772736e-11
-7.600000000e-03	1.896489433e-01	-3.776727418e-04	5.687710660e-12
-7.700000000e-03	1.896489445e-01	-3.757444623e-04	1.112279688e-11
-7.800000000e-03	1.896489457e-01	-3.738161829e-04	8.888402226e-12
-7.900000000e-03	1.896489468e-01	-3.718879034e-04	2.147603960e-11
-8.000000000e-03	1.896489478e-01	-3.699596240e-04	1.343102899e-11
-8.100000000e-03	1.896489488e-01	-3.680313445e-04	1.890781863e-11
-8.200000000e-03	1.896489498e-01	-3.661030651e-04	1.251610478e-11
-8.300000000e-03	1.896489506e-01	-3.641747856e-04	5.198117333e-11
-8.400000000e-03	1.896489515e-01	-3.622465062e-04	3.525563421e-11
-8.500000000e-03	1.896489522e-01	-3.603182268e-04	1.311536085e-11
-8.600000000e-03	1.896489529e-01	-3.583899474e-04	2.499811304e-11
-8.700000000e-03	1.896489536e-01	-3.564616680e-04	8.517301760e-12
-8.800000000e-03	1.896489541e-01	-3.545333886e-04	5.568244835e-11
-8.900000000e-03	1.896489547e-01	-3.526051092e-04	1.223669888e-11
-9.000000000e-03	1.896489551e-01	-3.506768299e-04	1.276236079e-11
-9.100000000e-03	1.896489555e-01	-3.487485506e-04	2.789996082e-11
-9.200000000e-03	1.896489559e-01	-3.468202713e-04	7.702973006e-12
-9.300000000e-03	1.896489562e-01	-3.448919921e-04	5.875268837e-12
-9.400000000e-03	1.896489564e-01	-3.429637129e-04	8.431783624e-12
-9.500000000e-03	1.896489566e-01	-3.410354338e-04	2.257154007e-11
-9.600000000e-03	1.896489567e-01	-3.391071546e-04	2.648439801e-11
-9.700000000e-03	1.896489568e-01	-3.371788756e-04	7.802330320e-12
-9.800000000e-03	1.896489568e-01	-3.352505966e-04	8.161361927e-12
-9.900000000e-03	1.896489567e-01	-3.333223176e-04	1.894124129e-11
-1.000000000e-02	1.896489566e-01	-3.313940387e-04	8.314213332e-12
-1.010000000e-02	1.896489564e-01	-3.294657599e-04	2.615608515e-11
-1.020000000e-02	1.896489561e-01	-3.275374811e-04	9.556384547e-12
-1.030000000e-02	1.896489558e-01	-3.256092024e-04	8.156897757e-12
-1.040000000e-02	1.896489555e-01	-3.236809237e-04	2.571530151e-11
-1.050000000e-02	1.896489551e-01	-3.217526451e-04	1.444266215e-11
-1.060000000e-02	1.896489546e-01	-3.198243666e-04	3.800856346e-11
-1.070000000e-02	1.896489541e-01	-3.178960882e-04	1.561408425e-11
-1.080000000e-02	1.896489535e-01	-3.159678098e-04	6.047620746e-12
-1.090000000e-02	1.896489528e-01	-3.140395316e-04	3.322226260e-11
-1.100000000e-02	1.896489521e-01	-3.121112534e-04	6.804080307e-12
-1.110000000e-02	1.896489514e-01	-3.101829753e-04	1.508086262e-11
-1.120000000e-02	1.896489505e-01	-3.082546973e-04	9.057993655e-12
-1.130000000e-02	1.896489496e-01	-3.063264194e-04	7.676925846e-12
-1.140000000e-02	1.896489487e-01	-3.043981416e-04	3.022611273e-11
-1.150000000e-02	1.896489477e-01	-3.024698639e-04	1.248732789e-11
-1.160000000e-02	1.896489466e-01	-3.005415863e-04	6.540146605e-12
-1.170000000e-02	1.896489455e-01	-2.986133088e-04	1.682447415e-11
-1.180000000e-02	1.896489443e-01	-2.966850314e-04	7.187728921e-12
-1.190000000e-02	1.896489431e-01	-2.947567541e-04	1.690159038e-11
-1.200000000e-02	1.896489418e-01	-2.928284770e-04	6.185625547e-11
-1.210000000e-02	1.896489404e-01	-2.909001999e-04	9.560551649e-12
-1.220000000e-02	1.896489390e-01	-2.889719230e-04	3.435841151e-11
-1.230000000e-02	1.896489376e-01	-2.870436462e-04	1.014472424e-11
-1.240000000e-02	1.896489360e-01	-2.851153695e-04	7.545263552e-11
-1.250000000e-02	1.896489344e-01	-2.831870930e-04	2.350956479e-11
-1.260000000e-02	1.896489328e-01	-2.812588166e-04	1.042348095e-11
-1.270000000e-02	1.896489311e-01	-2.793305403e-04	2.391672069e-11
-1.280000000e-02	1.896489293e-01	-2.774022642e-04	1.493660644e-11
-1.290000000e-02	1.896489275e-01	-2.754739882e-04	1.175446531e-11
-1.300000000e-02	1.896489256e-01	-2.735457124e-04	1.770207774e-11
-1.310000000e-02	1.896489237e-01	-2.716174367e-04	2.195191675e-11
-1.320000000e-02	1.896489216e-01	-2.696891611e-04	2.146403704e-11
-1.330000000e-02	1.896489196e-01	-2.677608857e-04	1.752884633e-11
-1.340000000e-02	1.896489175e-01	-2.658326105e-04	1.649889922e-11
-1.350000000e-02	1.896489153e-01	-2.639043354e-04	1.110671877e-11
-1.360000000e-02	1.896489131e-01	-2.619760605e-04	7.723659478e-12
-1.370000000e-02	1.896489108e-01	-2.600477858e-04	1.179664599e-11
-1.380000000e-02	1.896489084e-01	-2.581195112e-04	2.166376445e-11
-1.390000000e-02	1.896489060e-01	-2.561912368e-04	8.464611404e-12
-1.400000000e-02	1.896489035e-01	-2.542629626e-04	3.098990360e-11
-1.410000000e-02	1.896489010e-01	-2.523346886e-04	1.447738989e-11
-1.420000000e-02	1.896488984e-01	-2.504064147e-04	1.882757311e-11
-1.430000000e-02	1.896488957e-01	-2.484781410e-04	7.173180915e-12
-1.440000000e-02	1.896488930e-01	-2.465498675e-04	8.682906006e-12
-1.450000000e-02	1.896488903e-01	-2.446215942e-04	8.655563132e-12
-1.460000000e-02	1.896488875e-01	-2.426933211e-04	1.704813666e-11
-1.470000000e-02	1.896488846e-01	-2.407650482e-04	7.774747354e-12
-1.480000000e-02	1.896488816e-01	-2.388367755e-04	1.445773192e-11
-1.490000000e-02	1.896488786e-01	-2.369085030e-04	3.156908809e-11
-1.500000000e-02	1.896488756e-01	-2.349802307e-04	2.028463215e-11
-1.510000000e-02	1.896488724e-01	-2.330519586e-04	1.380032592e-11
-1.520000000e-02	1.896488693e-01	-2.311236867e-04	1.468399802e-11
-1.530000000e-02	1.896488660e-01	-2.291954150e-04	1.039699286e-11
-1.540000000e-02	1.896488627e-01	-2.272671435e-04	9.502953374e-12
-1.550000000e-02	1.896488594e-01	-2.253388723e-04	4.757907806e-11
-1.560000000e-02	1.896488560e-01	-2.234106013e-04	7.056892012e-11
-1.570000000e-02	1.896488525e-01	-2.214823305e-04	3.208482739e-11
-1.580000000e-02	1.896488490e-01	-2.195540599e-04	1.283273000e-11
-1.590000000e-02	1.896488454e-01	-2.176257896e-04	7.756263152e-12
-1.600000000e-02	1.896488417e-01	-2.156975195e-04	1.064633356e-11
-1.610000000e-02	1.896488380e-01	-2.137692497e-04	4.500749926e-11
-1.620000000e-02	1.896488343e-01	-2.118409800e-04	8.351687570e-12
-1.630000000e-02	1.896488304e-01	-2.099127107e-04	2.006558284e-11
-1.640000000e-02	1.896488266e-01	-2.079844415e-04	9.666706382e-12
-1.650000000e-02	1.896488226e-01	-2.060561727e-04	6.434170195e-12
-1.660000000e-02	1.896488186e-01	-2.041279040e-04	2.414957144e-11
-1.670000000e-02	1.896488146e-01	-2.021996357e-04	9.848811614e-12
-1.680000000e-02	1.896488104e-01	-2.002713676e-04	1.335921709e-11
-1.690000000e-02	1.896488063e-01	-1.983430997e-04	1.511243391e-11
-1.700000000e-02	1.896488020e-01	-1.964148321e-04	2.428138922e-11
-1.710000000e-02	1.896487977e-01	-1.944865648e-04	1.464660157e-11
-1.720000000e-02	1.896487934e-01	-1.925582978e-04	1.634970871e-11
-1.730000000e-02	1.896487890e-01	-1.906300310e-04	2.118476778e-11
-1.740000000e-02	1.896487845e-01	-1.887017645e-04	4.651089600e-11
-1.750000000e-02	1.896487800e-01	-1.867734983e-04	3.032944679e-11
-1.760000000e-02	1.896487754e-01	-1.848452324e-04	1.813730423e-11
-1.770000000e-02	1.896487707e-01	-1.829169667e-04	6.300407970e-12
-1.780000000e-02	1.896487660e-01	-1.809887014e-04	8.007365570e-12
-1.790000000e-02	1.896487613e-01	-1.790604363e-04	2.000212282e-11
-1.800000000e-02	1.896487564e-01	-1.771321715e-04	1.613297924e-11
-1.810000000e-02	1.896487516e-01	-1.752039071e-04	1.907263964e-11
-1.820000000e-02	1.896487466e-01	-1.732756429e-04	7.066023798e-12
-1.830000000e-02	1.896487416e-01	-1.713473790e-04	4.003276445e-11
-1.840000000e-02	1.896487366e-01	-1.694191155e-04	2.296339945e-11
-1.850000000e-02	1.896487314e-01	-1.674908522e-04	2.068436436e-11
-1.860000000e-02	1.896487263e-01	-1.655625893e-04	5.481264754e-11
-1.870000000e-02	1.896487210e-01	-1.636343266e-04	9.887932381e-12
-1.880000000e-02	1.896487157e-01	-1.617060643e-04	8.022845250e-12
-1.890000000e-02	1.896487104e-01	-1.597778023e-04	9.267325941e-12
-1.900000000e-02	1.896487050e-01	-1.578495407e-04	9.794723968e-12
-1.910000000e-02	1.896486995e-01	-1.559212793e-04	1.288232498e-11
-1.920000000e-02	1.896486940e-01	-1.539930183e-04	3.766963977e-11
-1.930000000e-02	1.896486884e-01	-1.520647577e-04	1.322821705e-11
-1.940000000e-02	1.896486828e-01	-1.501364973e-04	1.601470227e-11
-1.950000000e-02	1.896486770e-01	-1.482082373e-04	8.061904559e-12
-1.960000000e-02	1.896486713e-01	-1.462799777e-04	2.445355173e-11
-1.970000000e-02	1.896486655e-01	-1.443517184e-04	9.415527770e-12
-1.980000000e-02	1.896486596e-01	-1.424234594e-04	1.682436236e-11
-1.990000000e-02	1.896486536e-01	-1.404952008e-04	7.222415386e-12
-2.000000000e-02	1.896486476e-01	-1.385669425e-04	1.625967000e-11
-2.010000000e-02	1.896486416e-01	-1.366386846e-04	2.389624694e-11
-2.020000000e-02	1.896486355e-01	-1.347104271e-04	1.392812133e-11
-2.030000000e-02	1.896486293e-01	-1.327821699e-04	2.213181014e-11
-2.040000000e-02	1.896486231e-01	-1.308539131e-04	1.719003584e-11
-2.050000000e-02	1.896486168e-01	-1.289256567e-04	1.744066297e-11
-2.060000000e-02	1.896486104e-01	-1.269974006e-04	1.078899527e-11
-2.070000000e-02	1.896486040e-01	-1.250691449e-04	9.816032653e-12
-2.080000000e-02	1.896485975e-01	-1.231408896e-04	1.658879393e-11
-2.090000000e-02	1.896485910e-01	-1.212126347e-04	1.536000410e-11
-2.100000000e-02	1.896485844e-01	-1.192843801e-04	2.495803512e-11
-2.110000000e-02	1.896485778e-01	-1.173561259e-04	8.291814475e-12
-2.120000000e-02	1.896485711e-01	-1.154278722e-04	4.637310241e-12
-2.130000000e-02	1.896485643e-01	-1.134996188e-04	6.609761100e-11
-2.140000000e-02	1.896485575e-01	-1.115713658e-04	6.256934862e-12
-2.150000000e-02	1.896485506e-01	-1.096431132e-04	1.074166779e-11
-2.160000000e-02	1.896485437e-01	-1.077148610e-04	9.448051649e-12
-2.170000000e-02	1.896485367e-01	-1.057866093e-04	8.038348986e-12
-2.180000000e-02	1.896485296e-01	-1.038583579e-04	8.371698414e-12
-2.190000000e-02	1.896485225e-01	-1.019301069e-04	1.247825182e-11
-2.200000000e-02	1.896485153e-01	-1.000018564e-04	1.573676559e-11
-2.210000000e-02	1.896485081e-01	-9.807360623e-05	1.612510515e-11
-2.220000000e-02	1.896485008e-01	-9.614535653e-05	1.527537447e-11
-2.230000000e-02	1.896484935e-01	-9.421710724e-05	1.195928078e-11
-2.240000000e-02	1.896484861e-01	-9.228885838e-05	1.068449228e-11
-2.250000000e-02	1.896484786e-01	-9.036060994e-05	1.145766115e-11
-2.260000000e-02	1.896484711e-01	-8.843236194e-05	5.158745261e-12
-2.270000000e-02	1.896484635e-01	-8.650411437e-05	9.859649288e-12
-2.280000000e-02	1.896484558e-01	-8.457586724e-05	9.079982287e-12
-2.290000000e-02	1.896484481e-01	-8.264762056e-05	8.248113215e-11
-2.300000000e-02	1.896484404e-01	-8.071937430e-05	1.481560768e-11
-2.310000000e-02	1.896484326e-01	-7.879112850e-05	8.129025495e-12
-2.320000000e-02	1.896484247e-01	-7.686288315e-05	2.746577692e-11
-2.330000000e-02	1.896484167e-01	-7.493463826e-05	1.380689274e-11
-2.340000000e-02	1.896484087e-01	-7.300639381e-05	3.001437898e-11
-2.350000000e-02	1.896484007e-01	-7.107814983e-05	1.277793737e-11
-2.360000000e-02	1.896483926e-01	-6.914990631e-05	9.132097028e-12
-2.370000000e-02	1.896483844e-01	-6.722166325e-05	6.843637393e-11
-2.380000000e-02	1.896483762e-01	-6.529342066e-05	3.841692958e-11
-2.390000000e-02	1.896483679e-01	-6.336517854e-05	1.000223953e-11
-2.400000000e-02	1.896483595e-01	-6.143693689e-05	4.887478497e-12
-2.410000000e-02	1.896483511e-01	-5.950869572e-05	6.992187636e-12
-2.420000000e-02	1.896483427e-01	-5.758045503e-05	8.853054533e-12
-2.430000000e-02	1.896483341e-01	-5.565221482e-05	7.857261869e-12
-2.440000000e-02	1.896483255e-01	-5.372397510e-05	1.549975641e-11
-2.450000000e-02	1.896483169e-01	-5.179573586e-05	1.286956049e-11
-2.460000000e-02	1.896483082e-01	-4.986749712e-05	2.151060855e-11
-2.470000000e-02	1.896482994e-01	-4.793925887e-05	6.055254866e-12
-2.480000000e-02	1.896482906e-01	-4.601102111e-05	2.886884829e-11
-2.490000000e-02	1.896482817e-01	-4.408278386e-05	1.101517841e-11
-2.500000000e-02	1.896482728e-01	-4.215454712e-05	1.462679634e-11
-2.510000000e-02	1.896482638e-01	-4.022631087e-05	5.213844541e-11
-2.520000000e-02	1.896482548e-01	-3.829807514e-05	1.741046826e-11
-2.530000000e-02	1.896482456e-01	-3.636983992e-05	1.276787769e-11
-2.540000000e-02	1.896482365e-01	-3.444160521e-05	1.264199514e-11
-2.550000000e-02	1.896482272e-01	-3.251337103e-05	1.034431594e-11
-2.560000000e-02	1.896482180e-01	-3.058513736e-05	1.532306474e-11
-2.570000000e-02	1.896482086e-01	-2.865690421e-05	1.598745445e-11
-2.580000000e-02	1.896481992e-01	-2.672867160e-05	7.732457698e-12
-2.590000000e-02	1.896481897e-01	-2.480043952e-05	1.086921229e-11
-2.600000000e-02	1.896481802e-01	-2.287220796e-05	2.016422479e-11
-2.610000000e-02	1.896481706e-01	-2.094397694e-05	1.055905680e-11
-2.620000000e-02	1.896481610e-01	-1.901574646e-05	1.202362582e-11
-2.630000000e-02	1.896481513e-01	-1.708751653e-05	9.499861379e-12
-2.640000000e-02	1.896481415e-01	-1.515928714e-05	8.668846428e-12
-2.650000000e-02	1.896481317e-01	-1.323105829e-05	5.172126400e-11
-2.660000000e-02	1.896481218e-01	-1.130283000e-05	4.165897977e-11
-2.670000000e-02	1.896481119e-01	-9.374602273e-06	2.548640496e-11
-2.680000000e-02	1.896481019e-01	-7.446375085e-06	1.056533994e-11
-2.690000000e-02	1.896480919e-01	-5.518148467e-06	8.651425542e-12
-2.700000000e-02	1.896480817e-01	-3.589922408e-06	5.832566511e-12
-2.710000000e-02	1.896480716e-01	-1.661696914e-06	1.390099547e-11
-2.720000000e-02	1.896480613e-01	2.665280117e-07	1.674756192e-11
-2.730000000e-02	1.896480511e-01	2.194752363e-06	1.741711423e-11
-2.740000000e-02	1.896480407e-01	4.122976139e-06	1.265186404e-11
-2.750000000e-02	1.896480303e-01	6.051199336e-06	1.142500444e-11
-2.760000000e-02	1.896480198e-01	7.979421958e-06	1.275552581e-11
-2.770000000e-02	1.896480093e-01	9.907643992e-06	8.630125898e-12
-2.780000000e-02	1.896479987e-01	1.183586544e-05	3.827401710e-11
-2.790000000e-02	1.896479881e-01	1.376408630e-05	1.133762553e-11
-2.800000000e-02	1.896479774e-01	1.569230656e-05	7.181896013e-12
-2.810000000e-02	1.896479666e-01	1.762052623e-05	1.507170621e-11
-2.820000000e-02	1.896479558e-01	1.954874531e-05	8.694304672e-12
-2.830000000e-02	1.896479449e-01	2.147696377e-05	3.641826639e-11
-2.840000000e-02	1.896479340e-01	2.340518164e-05	1.219558639e-11
-2.850000000e-02	1.896479230e-01	2.533339890e-05	1.594359485e-11
-2.860000000e-02	1.896479120e-01	2.726161554e-05	9.269774429e-12
-2.870000000e-02	1.896479009e-01	2.918983158e-05	1.477196848e-11
-2.880000000e-02	1.896478897e-01	3.111804700e-05	2.591002157e-11
-2.890000000e-02	1.896478785e-01	3.304626179e-05	8.151017367e-12
-2.900000000e-02	1.896478672e-01	3.497447597e-05	9.208637809e-12
-2.910000000e-02	1.896478558e-01	3.690268951e-05	3.322287503e-11
-2.920000000e-02	1.896478444e-01	3.883090244e-05	4.765606635e-11
-2.930000000e-02	1.896478330e-01	4.075911473e-05	6.322861197e-12
-2.940000000e-02	1.896478214e-01	4.268732638e-05	9.570687891e-12
-2.950000000e-02	1.896478099e-01	4.461553740e-05	1.400653002e-11
-2.960000000e-02	1.896477982e-01	4.654374777e-05	2.456636641e-11
-2.970000000e-02	1.896477865e-01	4.847195751e-05	9.382856904e-12
-2.980000000e-02	1.896477748e-01	5.040016660e-05	1.729213141e-11
-2.990000000e-02	1.896477629e-01	5.232837504e-05	6.615967172e-12
-3.000000000e-02	1.896477511e-01	5.425658283e-05	1.518772575e-11
