# Im(epsi1)     Re(omega/c)      Im(omega/c)      Eq(det).Opt det CON kz, R=0.5 \mum, mu_c=0.3, Re(epsi1)=3.90solve_det_conkz_vs_kz.py
0.000000000e+00	1.896762738e-01	-5.242768256e-04	5.218976953e-11
-1.000000000e-04	1.896762795e-01	-5.223484201e-04	7.617054749e-11
-2.000000000e-04	1.896762851e-01	-5.204200144e-04	1.196473191e-11
-3.000000000e-04	1.896762907e-01	-5.184916084e-04	3.089524367e-11
-4.000000000e-04	1.896762962e-01	-5.165632022e-04	1.070524594e-11
-5.000000000e-04	1.896763017e-01	-5.146347958e-04	8.194596161e-12
-6.000000000e-04	1.896763071e-01	-5.127063892e-04	1.110018782e-11
-7.000000000e-04	1.896763124e-01	-5.107779823e-04	1.794876337e-11
-8.000000000e-04	1.896763177e-01	-5.088495753e-04	1.514621136e-11
-9.000000000e-04	1.896763229e-01	-5.069211680e-04	2.613396758e-11
-1.000000000e-03	1.896763281e-01	-5.049927605e-04	6.240052720e-11
-1.100000000e-03	1.896763332e-01	-5.030643528e-04	1.288563018e-11
-1.200000000e-03	1.896763383e-01	-5.011359448e-04	1.230987510e-11
-1.300000000e-03	1.896763432e-01	-4.992075367e-04	8.984847868e-12
-1.400000000e-03	1.896763482e-01	-4.972791284e-04	1.827728190e-11
-1.500000000e-03	1.896763531e-01	-4.953507199e-04	1.123874536e-11
-1.600000000e-03	1.896763579e-01	-4.934223112e-04	2.923640461e-11
-1.700000000e-03	1.896763626e-01	-4.914939023e-04	2.835765857e-11
-1.800000000e-03	1.896763673e-01	-4.895654932e-04	9.067213005e-12
-1.900000000e-03	1.896763720e-01	-4.876370839e-04	1.022940654e-11
-2.000000000e-03	1.896763765e-01	-4.857086744e-04	3.686021394e-11
-2.100000000e-03	1.896763811e-01	-4.837802648e-04	5.102071396e-12
-2.200000000e-03	1.896763855e-01	-4.818518549e-04	1.766789901e-11
-2.300000000e-03	1.896763899e-01	-4.799234450e-04	1.025689422e-11
-2.400000000e-03	1.896763943e-01	-4.779950348e-04	7.760716544e-12
-2.500000000e-03	1.896763986e-01	-4.760666244e-04	1.094809474e-10
-2.600000000e-03	1.896764028e-01	-4.741382140e-04	2.208566242e-11
-2.700000000e-03	1.896764070e-01	-4.722098033e-04	1.558164658e-11
-2.800000000e-03	1.896764111e-01	-4.702813925e-04	1.098442672e-11
-2.900000000e-03	1.896764151e-01	-4.683529815e-04	2.320825803e-11
-3.000000000e-03	1.896764191e-01	-4.664245704e-04	7.804309203e-12
-3.100000000e-03	1.896764231e-01	-4.644961591e-04	1.535603490e-11
-3.200000000e-03	1.896764269e-01	-4.625677477e-04	8.264105628e-12
-3.300000000e-03	1.896764307e-01	-4.606393361e-04	1.146481841e-11
-3.400000000e-03	1.896764345e-01	-4.587109244e-04	1.203249607e-11
-3.500000000e-03	1.896764382e-01	-4.567825125e-04	6.597831806e-12
-3.600000000e-03	1.896764418e-01	-4.548541006e-04	1.045385014e-11
-3.700000000e-03	1.896764454e-01	-4.529256884e-04	2.933275522e-11
-3.800000000e-03	1.896764489e-01	-4.509972762e-04	9.804437829e-12
-3.900000000e-03	1.896764524e-01	-4.490688638e-04	1.242977396e-11
-4.000000000e-03	1.896764558e-01	-4.471404513e-04	1.048366470e-11
-4.100000000e-03	1.896764592e-01	-4.452120387e-04	1.413017710e-11
-4.200000000e-03	1.896764624e-01	-4.432836260e-04	8.485060947e-12
-4.300000000e-03	1.896764657e-01	-4.413552132e-04	6.701747739e-12
-4.400000000e-03	1.896764688e-01	-4.394268002e-04	1.725666005e-11
-4.500000000e-03	1.896764720e-01	-4.374983871e-04	2.568715912e-11
-4.600000000e-03	1.896764750e-01	-4.355699740e-04	1.644157976e-11
-4.700000000e-03	1.896764780e-01	-4.336415607e-04	1.309659983e-11
-4.800000000e-03	1.896764809e-01	-4.317131473e-04	8.756842410e-12
-4.900000000e-03	1.896764838e-01	-4.297847339e-04	1.001408799e-11
-5.000000000e-03	1.896764866e-01	-4.278563203e-04	3.414677148e-11
-5.100000000e-03	1.896764894e-01	-4.259279066e-04	1.546209825e-11
-5.200000000e-03	1.896764921e-01	-4.239994929e-04	1.423934239e-11
-5.300000000e-03	1.896764947e-01	-4.220710791e-04	3.921748887e-11
-5.400000000e-03	1.896764973e-01	-4.201426652e-04	8.979732114e-12
-5.500000000e-03	1.896764998e-01	-4.182142512e-04	3.585972476e-11
-5.600000000e-03	1.896765023e-01	-4.162858371e-04	2.092388992e-11
-5.700000000e-03	1.896765047e-01	-4.143574230e-04	1.471660608e-11
-5.800000000e-03	1.896765071e-01	-4.124290088e-04	8.219743201e-12
-5.900000000e-03	1.896765093e-01	-4.105005946e-04	2.342620821e-11
-6.000000000e-03	1.896765116e-01	-4.085721802e-04	8.528354152e-12
-6.100000000e-03	1.896765137e-01	-4.066437658e-04	9.271987807e-12
-6.200000000e-03	1.896765159e-01	-4.047153514e-04	1.165907581e-11
-6.300000000e-03	1.896765179e-01	-4.027869369e-04	1.275870755e-11
-6.400000000e-03	1.896765199e-01	-4.008585223e-04	1.657396829e-11
-6.500000000e-03	1.896765218e-01	-3.989301077e-04	8.653826335e-12
-6.600000000e-03	1.896765237e-01	-3.970016931e-04	1.332230377e-11
-6.700000000e-03	1.896765255e-01	-3.950732784e-04	3.508802620e-11
-6.800000000e-03	1.896765273e-01	-3.931448637e-04	1.136412200e-11
-6.900000000e-03	1.896765290e-01	-3.912164489e-04	7.367440755e-12
-7.000000000e-03	1.896765306e-01	-3.892880341e-04	3.256387211e-11
-7.100000000e-03	1.896765322e-01	-3.873596193e-04	8.516542653e-12
-7.200000000e-03	1.896765337e-01	-3.854312044e-04	2.234969725e-11
-7.300000000e-03	1.896765352e-01	-3.835027895e-04	8.436216088e-12
-7.400000000e-03	1.896765366e-01	-3.815743746e-04	1.612081073e-11
-7.500000000e-03	1.896765380e-01	-3.796459597e-04	1.085760958e-11
-7.600000000e-03	1.896765393e-01	-3.777175448e-04	1.873281962e-11
-7.700000000e-03	1.896765405e-01	-3.757891298e-04	2.236288162e-11
-7.800000000e-03	1.896765417e-01	-3.738607149e-04	4.670169750e-11
-7.900000000e-03	1.896765428e-01	-3.719322999e-04	7.671083821e-12
-8.000000000e-03	1.896765438e-01	-3.700038849e-04	1.052723182e-11
-8.100000000e-03	1.896765448e-01	-3.680754700e-04	2.403226197e-11
-8.200000000e-03	1.896765458e-01	-3.661470550e-04	1.203405498e-11
-8.300000000e-03	1.896765466e-01	-3.642186400e-04	1.220848347e-11
-8.400000000e-03	1.896765475e-01	-3.622902251e-04	1.497341209e-11
-8.500000000e-03	1.896765482e-01	-3.603618101e-04	1.284082349e-11
-8.600000000e-03	1.896765489e-01	-3.584333952e-04	1.383525643e-11
-8.700000000e-03	1.896765496e-01	-3.565049803e-04	1.307538963e-11
-8.800000000e-03	1.896765501e-01	-3.545765654e-04	6.304364751e-12
-8.900000000e-03	1.896765507e-01	-3.526481505e-04	9.329432201e-12
-9.000000000e-03	1.896765511e-01	-3.507197357e-04	4.740409194e-11
-9.100000000e-03	1.896765515e-01	-3.487913209e-04	2.002636245e-11
-9.200000000e-03	1.896765519e-01	-3.468629061e-04	3.204374298e-11
-9.300000000e-03	1.896765522e-01	-3.449344913e-04	2.249523162e-11
-9.400000000e-03	1.896765524e-01	-3.430060766e-04	1.304262722e-11
-9.500000000e-03	1.896765526e-01	-3.410776619e-04	8.180650390e-12
-9.600000000e-03	1.896765527e-01	-3.391492473e-04	1.112248903e-11
-9.700000000e-03	1.896765528e-01	-3.372208327e-04	4.955307842e-12
-9.800000000e-03	1.896765528e-01	-3.352924182e-04	7.763819628e-12
-9.900000000e-03	1.896765527e-01	-3.333640037e-04	6.199731397e-12
-1.000000000e-02	1.896765526e-01	-3.314355893e-04	9.157641321e-12
-1.010000000e-02	1.896765524e-01	-3.295071749e-04	2.039709285e-11
-1.020000000e-02	1.896765522e-01	-3.275787606e-04	1.455907660e-11
-1.030000000e-02	1.896765519e-01	-3.256503464e-04	6.687191830e-12
-1.040000000e-02	1.896765515e-01	-3.237219322e-04	1.004716548e-11
-1.050000000e-02	1.896765511e-01	-3.217935181e-04	7.963427692e-12
-1.060000000e-02	1.896765506e-01	-3.198651041e-04	4.304182946e-11
-1.070000000e-02	1.896765501e-01	-3.179366902e-04	1.730704506e-11
-1.080000000e-02	1.896765495e-01	-3.160082763e-04	9.123585652e-12
-1.090000000e-02	1.896765488e-01	-3.140798625e-04	1.507219932e-11
-1.100000000e-02	1.896765481e-01	-3.121514488e-04	1.286479319e-11
-1.110000000e-02	1.896765474e-01	-3.102230352e-04	2.871477463e-11
-1.120000000e-02	1.896765465e-01	-3.082946217e-04	1.711751613e-11
-1.130000000e-02	1.896765456e-01	-3.063662083e-04	1.147251573e-11
-1.140000000e-02	1.896765447e-01	-3.044377949e-04	1.436850965e-11
-1.150000000e-02	1.896765437e-01	-3.025093817e-04	8.649429717e-12
-1.160000000e-02	1.896765426e-01	-3.005809686e-04	9.890456086e-12
-1.170000000e-02	1.896765415e-01	-2.986525556e-04	1.115062279e-11
-1.180000000e-02	1.896765403e-01	-2.967241427e-04	5.671390778e-11
-1.190000000e-02	1.896765391e-01	-2.947957299e-04	7.376846200e-12
-1.200000000e-02	1.896765378e-01	-2.928673172e-04	2.028005957e-11
-1.210000000e-02	1.896765365e-01	-2.909389046e-04	1.626898899e-11
-1.220000000e-02	1.896765350e-01	-2.890104922e-04	1.773248862e-11
-1.230000000e-02	1.896765336e-01	-2.870820799e-04	2.724532774e-11
-1.240000000e-02	1.896765320e-01	-2.851536677e-04	2.632960508e-11
-1.250000000e-02	1.896765304e-01	-2.832252557e-04	1.674308524e-11
-1.260000000e-02	1.896765288e-01	-2.812968437e-04	1.188153268e-11
-1.270000000e-02	1.896765271e-01	-2.793684319e-04	7.764400813e-12
-1.280000000e-02	1.896765253e-01	-2.774400203e-04	1.830171022e-11
-1.290000000e-02	1.896765235e-01	-2.755116088e-04	5.286516969e-12
-1.300000000e-02	1.896765216e-01	-2.735831974e-04	1.755450009e-11
-1.310000000e-02	1.896765197e-01	-2.716547862e-04	4.176587016e-11
-1.320000000e-02	1.896765177e-01	-2.697263752e-04	2.510546436e-11
-1.330000000e-02	1.896765156e-01	-2.677979643e-04	1.569083536e-11
-1.340000000e-02	1.896765135e-01	-2.658695535e-04	8.270889295e-11
-1.350000000e-02	1.896765113e-01	-2.639411429e-04	1.519965924e-11
-1.360000000e-02	1.896765091e-01	-2.620127325e-04	1.175975358e-11
-1.370000000e-02	1.896765068e-01	-2.600843222e-04	2.380822897e-11
-1.380000000e-02	1.896765044e-01	-2.581559122e-04	2.608666884e-11
-1.390000000e-02	1.896765020e-01	-2.562275022e-04	1.120240516e-11
-1.400000000e-02	1.896764995e-01	-2.542990925e-04	5.324950468e-11
-1.410000000e-02	1.896764970e-01	-2.523706829e-04	1.302981371e-11
-1.420000000e-02	1.896764944e-01	-2.504422735e-04	1.382581857e-11
-1.430000000e-02	1.896764918e-01	-2.485138643e-04	1.933029448e-11
-1.440000000e-02	1.896764891e-01	-2.465854553e-04	1.664513251e-11
-1.450000000e-02	1.896764863e-01	-2.446570465e-04	1.644228728e-11
-1.460000000e-02	1.896764835e-01	-2.427286379e-04	1.864191176e-11
-1.470000000e-02	1.896764806e-01	-2.408002295e-04	1.128313000e-11
-1.480000000e-02	1.896764777e-01	-2.388718212e-04	1.074789234e-11
-1.490000000e-02	1.896764747e-01	-2.369434132e-04	4.004743869e-11
-1.500000000e-02	1.896764716e-01	-2.350150054e-04	1.392574927e-11
-1.510000000e-02	1.896764685e-01	-2.330865977e-04	1.309730170e-11
-1.520000000e-02	1.896764653e-01	-2.311581903e-04	2.595303128e-11
-1.530000000e-02	1.896764621e-01	-2.292297831e-04	1.812602920e-11
-1.540000000e-02	1.896764588e-01	-2.273013762e-04	1.314155644e-11
-1.550000000e-02	1.896764554e-01	-2.253729694e-04	2.504848107e-11
-1.560000000e-02	1.896764520e-01	-2.234445629e-04	1.466599814e-11
-1.570000000e-02	1.896764485e-01	-2.215161566e-04	3.576313621e-11
-1.580000000e-02	1.896764450e-01	-2.195877505e-04	1.393962451e-11
-1.590000000e-02	1.896764414e-01	-2.176593446e-04	1.254895086e-11
-1.600000000e-02	1.896764378e-01	-2.157309390e-04	2.395825802e-11
-1.610000000e-02	1.896764341e-01	-2.138025337e-04	8.098210628e-12
-1.620000000e-02	1.896764303e-01	-2.118741285e-04	8.081267683e-12
-1.630000000e-02	1.896764265e-01	-2.099457236e-04	1.135629694e-11
-1.640000000e-02	1.896764226e-01	-2.080173190e-04	1.763538279e-11
-1.650000000e-02	1.896764187e-01	-2.060889146e-04	3.588288955e-11
-1.660000000e-02	1.896764147e-01	-2.041605104e-04	3.877432152e-11
-1.670000000e-02	1.896764106e-01	-2.022321066e-04	4.070351013e-11
-1.680000000e-02	1.896764065e-01	-2.003037029e-04	1.336967966e-11
-1.690000000e-02	1.896764023e-01	-1.983752996e-04	4.603781325e-11
-1.700000000e-02	1.896763981e-01	-1.964468965e-04	2.184492837e-11
-1.710000000e-02	1.896763938e-01	-1.945184936e-04	1.297591663e-11
-1.720000000e-02	1.896763894e-01	-1.925900911e-04	1.675162357e-11
-1.730000000e-02	1.896763850e-01	-1.906616888e-04	1.642812505e-11
-1.740000000e-02	1.896763805e-01	-1.887332868e-04	1.089035668e-11
-1.750000000e-02	1.896763760e-01	-1.868048850e-04	9.198186094e-12
-1.760000000e-02	1.896763714e-01	-1.848764836e-04	9.252337246e-12
-1.770000000e-02	1.896763668e-01	-1.829480824e-04	3.722002703e-11
-1.780000000e-02	1.896763621e-01	-1.810196815e-04	1.081781061e-11
-1.790000000e-02	1.896763573e-01	-1.790912810e-04	9.038248284e-12
-1.800000000e-02	1.896763525e-01	-1.771628807e-04	1.022240862e-11
-1.810000000e-02	1.896763476e-01	-1.752344807e-04	2.091567839e-11
-1.820000000e-02	1.896763427e-01	-1.733060810e-04	1.424604351e-11
-1.830000000e-02	1.896763377e-01	-1.713776816e-04	2.791057321e-10
-1.840000000e-02	1.896763326e-01	-1.694492825e-04	6.799204680e-12
-1.850000000e-02	1.896763275e-01	-1.675208837e-04	6.869389186e-12
-1.860000000e-02	1.896763223e-01	-1.655924853e-04	2.069898074e-11
-1.870000000e-02	1.896763171e-01	-1.636640871e-04	1.296044576e-11
-1.880000000e-02	1.896763118e-01	-1.617356893e-04	1.423678255e-11
-1.890000000e-02	1.896763064e-01	-1.598072918e-04	2.785465586e-11
-1.900000000e-02	1.896763010e-01	-1.578788946e-04	8.227014017e-12
-1.910000000e-02	1.896762956e-01	-1.559504977e-04	8.830132766e-12
-1.920000000e-02	1.896762900e-01	-1.540221012e-04	1.381348646e-11
-1.930000000e-02	1.896762845e-01	-1.520937050e-04	6.938530651e-12
-1.940000000e-02	1.896762788e-01	-1.501653092e-04	4.383624380e-11
-1.950000000e-02	1.896762731e-01	-1.482369137e-04	1.108641106e-11
-1.960000000e-02	1.896762673e-01	-1.463085185e-04	3.146373793e-11
-1.970000000e-02	1.896762615e-01	-1.443801236e-04	8.365681668e-12
-1.980000000e-02	1.896762556e-01	-1.424517292e-04	1.228508344e-11
-1.990000000e-02	1.896762497e-01	-1.405233350e-04	6.507112231e-12
-2.000000000e-02	1.896762437e-01	-1.385949413e-04	9.895668584e-12
-2.010000000e-02	1.896762376e-01	-1.366665478e-04	5.445240007e-11
-2.020000000e-02	1.896762315e-01	-1.347381548e-04	1.418563954e-11
-2.030000000e-02	1.896762254e-01	-1.328097621e-04	4.145174830e-11
-2.040000000e-02	1.896762191e-01	-1.308813698e-04	9.645617798e-12
-2.050000000e-02	1.896762128e-01	-1.289529778e-04	1.358308876e-11
-2.060000000e-02	1.896762065e-01	-1.270245862e-04	1.158970155e-11
-2.070000000e-02	1.896762001e-01	-1.250961950e-04	2.164070028e-11
-2.080000000e-02	1.896761936e-01	-1.231678042e-04	2.229507961e-11
-2.090000000e-02	1.896761871e-01	-1.212394137e-04	9.223517836e-12
-2.100000000e-02	1.896761805e-01	-1.193110236e-04	7.842723185e-11
-2.110000000e-02	1.896761739e-01	-1.173826339e-04	3.601723402e-11
-2.120000000e-02	1.896761671e-01	-1.154542446e-04	1.200139896e-11
-2.130000000e-02	1.896761604e-01	-1.135258557e-04	1.189167505e-11
-2.140000000e-02	1.896761536e-01	-1.115974672e-04	6.088365547e-11
-2.150000000e-02	1.896761467e-01	-1.096690791e-04	3.410122303e-11
-2.160000000e-02	1.896761397e-01	-1.077406914e-04	7.937528360e-12
-2.170000000e-02	1.896761328e-01	-1.058123041e-04	2.187499063e-11
-2.180000000e-02	1.896761257e-01	-1.038839172e-04	2.120770902e-11
-2.190000000e-02	1.896761186e-01	-1.019555307e-04	2.194544583e-11
-2.200000000e-02	1.896761114e-01	-1.000271447e-04	1.391219522e-11
-2.210000000e-02	1.896761042e-01	-9.809875902e-05	9.857253395e-12
-2.220000000e-02	1.896760969e-01	-9.617037378e-05	1.488401096e-11
-2.230000000e-02	1.896760895e-01	-9.424198897e-05	6.006913330e-12
-2.240000000e-02	1.896760821e-01	-9.231360459e-05	1.150169060e-11
-2.250000000e-02	1.896760747e-01	-9.038522063e-05	6.843608362e-12
-2.260000000e-02	1.896760671e-01	-8.845683711e-05	2.016733506e-11
-2.270000000e-02	1.896760596e-01	-8.652845402e-05	9.147298609e-12
-2.280000000e-02	1.896760519e-01	-8.460007137e-05	2.052458258e-11
-2.290000000e-02	1.896760442e-01	-8.267168915e-05	1.665839599e-11
-2.300000000e-02	1.896760364e-01	-8.074330738e-05	2.256454350e-11
-2.310000000e-02	1.896760286e-01	-7.881492606e-05	4.724854249e-11
-2.320000000e-02	1.896760208e-01	-7.688654519e-05	1.346558646e-11
-2.330000000e-02	1.896760128e-01	-7.495816477e-05	1.222239767e-11
-2.340000000e-02	1.896760048e-01	-7.302978481e-05	9.608670456e-12
-2.350000000e-02	1.896759968e-01	-7.110140530e-05	1.981787604e-11
-2.360000000e-02	1.896759887e-01	-6.917302626e-05	1.482196138e-11
-2.370000000e-02	1.896759805e-01	-6.724464768e-05	6.003413788e-12
-2.380000000e-02	1.896759722e-01	-6.531626956e-05	2.815660472e-11
-2.390000000e-02	1.896759640e-01	-6.338789192e-05	2.011840926e-11
-2.400000000e-02	1.896759556e-01	-6.145951475e-05	1.209794482e-11
-2.410000000e-02	1.896759472e-01	-5.953113805e-05	3.747542909e-11
-2.420000000e-02	1.896759387e-01	-5.760276184e-05	8.855517201e-12
-2.430000000e-02	1.896759302e-01	-5.567438611e-05	1.151572733e-11
-2.440000000e-02	1.896759216e-01	-5.374601087e-05	2.072581066e-11
-2.450000000e-02	1.896759130e-01	-5.181763611e-05	1.295368780e-11
-2.460000000e-02	1.896759043e-01	-4.988926184e-05	2.133062229e-11
-2.470000000e-02	1.896758955e-01	-4.796088807e-05	2.559810907e-11
-2.480000000e-02	1.896758867e-01	-4.603251479e-05	1.047867947e-10
-2.490000000e-02	1.896758778e-01	-4.410414202e-05	1.329568560e-11
-2.500000000e-02	1.896758689e-01	-4.217576975e-05	8.687040981e-12
-2.510000000e-02	1.896758599e-01	-4.024739798e-05	1.364702395e-11
-2.520000000e-02	1.896758509e-01	-3.831902673e-05	2.866767503e-11
-2.530000000e-02	1.896758417e-01	-3.639065598e-05	6.660986843e-12
-2.540000000e-02	1.896758326e-01	-3.446228575e-05	1.124877915e-11
-2.550000000e-02	1.896758233e-01	-3.253391604e-05	1.079727313e-11
-2.560000000e-02	1.896758140e-01	-3.060554685e-05	1.790254378e-11
-2.570000000e-02	1.896758047e-01	-2.867717818e-05	1.100230811e-11
-2.580000000e-02	1.896757953e-01	-2.674881004e-05	7.294334158e-12
-2.590000000e-02	1.896757858e-01	-2.482044243e-05	3.217163452e-11
-2.600000000e-02	1.896757763e-01	-2.289207536e-05	4.912501088e-11
-2.610000000e-02	1.896757667e-01	-2.096370882e-05	1.644757063e-11
-2.620000000e-02	1.896757571e-01	-1.903534282e-05	1.157058314e-11
-2.630000000e-02	1.896757474e-01	-1.710697736e-05	1.071792402e-11
-2.640000000e-02	1.896757376e-01	-1.517861244e-05	1.822694347e-11
-2.650000000e-02	1.896757278e-01	-1.325024807e-05	1.464083687e-11
-2.660000000e-02	1.896757179e-01	-1.132188426e-05	2.590589828e-11
-2.670000000e-02	1.896757080e-01	-9.393520997e-06	2.242271319e-11
-2.680000000e-02	1.896756980e-01	-7.465158293e-06	7.191569443e-12
-2.690000000e-02	1.896756880e-01	-5.536796148e-06	3.651934200e-11
-2.700000000e-02	1.896756778e-01	-3.608434565e-06	1.016006661e-11
-2.710000000e-02	1.896756677e-01	-1.680073546e-06	5.167717031e-11
-2.720000000e-02	1.896756574e-01	2.482869010e-07	1.037491225e-11
-2.730000000e-02	1.896756472e-01	2.176646778e-06	7.590305726e-12
-2.740000000e-02	1.896756368e-01	4.105006080e-06	1.090985197e-11
-2.750000000e-02	1.896756264e-01	6.033364804e-06	1.534619460e-11
-2.760000000e-02	1.896756159e-01	7.961722946e-06	1.467767287e-11
-2.770000000e-02	1.896756054e-01	9.890080505e-06	6.662293482e-12
-2.780000000e-02	1.896755948e-01	1.181843748e-05	1.378362356e-11
-2.790000000e-02	1.896755842e-01	1.374679386e-05	1.513126776e-11
-2.800000000e-02	1.896755735e-01	1.567514965e-05	2.157150015e-11
-2.810000000e-02	1.896755627e-01	1.760350485e-05	4.553181471e-12
-2.820000000e-02	1.896755519e-01	1.953185944e-05	1.560408285e-11
-2.830000000e-02	1.896755411e-01	2.146021344e-05	1.366713854e-11
-2.840000000e-02	1.896755301e-01	2.338856683e-05	2.276031187e-11
-2.850000000e-02	1.896755191e-01	2.531691961e-05	1.191590672e-11
-2.860000000e-02	1.896755081e-01	2.724527179e-05	1.992953114e-11
-2.870000000e-02	1.896754970e-01	2.917362334e-05	1.121276563e-11
-2.880000000e-02	1.896754858e-01	3.110197429e-05	1.182394310e-11
-2.890000000e-02	1.896754746e-01	3.303032460e-05	7.922813692e-11
-2.900000000e-02	1.896754633e-01	3.495867431e-05	8.075258795e-11
-2.910000000e-02	1.896754519e-01	3.688702338e-05	4.627008676e-11
-2.920000000e-02	1.896754405e-01	3.881537183e-05	1.116593170e-11
-2.930000000e-02	1.896754291e-01	4.074371965e-05	8.758295527e-12
-2.940000000e-02	1.896754175e-01	4.267206683e-05	1.066328449e-11
-2.950000000e-02	1.896754060e-01	4.460041337e-05	2.225410325e-11
-2.960000000e-02	1.896753943e-01	4.652875928e-05	1.028468147e-11
-2.970000000e-02	1.896753826e-01	4.845710454e-05	3.316635132e-11
-2.980000000e-02	1.896753709e-01	5.038544915e-05	1.147253754e-11
-2.990000000e-02	1.896753591e-01	5.231379312e-05	1.526257181e-11
-3.000000000e-02	1.896753472e-01	5.424213643e-05	2.083589304e-11
