# Im(epsi1)     Re(omega/c)      Im(omega/c)      Eq(det).Opt det CON kz, R=0.5 \mum, mu_c=0.3, Re(epsi1)=3.90solve_det_conkz_vs_kz.py
0.000000000e+00	1.896782624e-01	-5.242794013e-04	6.357706855e-12
-1.000000000e-04	1.896782681e-01	-5.223509860e-04	9.190044339e-12
-2.000000000e-04	1.896782737e-01	-5.204225705e-04	1.390557407e-11
-3.000000000e-04	1.896782793e-01	-5.184941548e-04	1.019279832e-11
-4.000000000e-04	1.896782848e-01	-5.165657388e-04	1.439287925e-11
-5.000000000e-04	1.896782903e-01	-5.146373226e-04	1.375320134e-11
-6.000000000e-04	1.896782957e-01	-5.127089061e-04	7.487219111e-12
-7.000000000e-04	1.896783010e-01	-5.107804895e-04	3.017644353e-11
-8.000000000e-04	1.896783063e-01	-5.088520726e-04	1.515680901e-11
-9.000000000e-04	1.896783116e-01	-5.069236555e-04	1.442500950e-11
-1.000000000e-03	1.896783167e-01	-5.049952382e-04	4.006224432e-11
-1.100000000e-03	1.896783218e-01	-5.030668207e-04	4.260396524e-11
-1.200000000e-03	1.896783269e-01	-5.011384029e-04	4.549827460e-12
-1.300000000e-03	1.896783319e-01	-4.992099850e-04	3.369351120e-11
-1.400000000e-03	1.896783368e-01	-4.972815669e-04	1.038153882e-11
-1.500000000e-03	1.896783417e-01	-4.953531485e-04	3.515001605e-11
-1.600000000e-03	1.896783465e-01	-4.934247300e-04	1.067036539e-11
-1.700000000e-03	1.896783513e-01	-4.914963113e-04	1.350604971e-11
-1.800000000e-03	1.896783559e-01	-4.895678924e-04	3.914833497e-11
-1.900000000e-03	1.896783606e-01	-4.876394733e-04	2.870422866e-11
-2.000000000e-03	1.896783652e-01	-4.857110541e-04	1.715450601e-11
-2.100000000e-03	1.896783697e-01	-4.837826346e-04	1.244241521e-11
-2.200000000e-03	1.896783742e-01	-4.818542150e-04	1.134450263e-11
-2.300000000e-03	1.896783786e-01	-4.799257952e-04	6.588264403e-12
-2.400000000e-03	1.896783829e-01	-4.779973752e-04	8.832927664e-12
-2.500000000e-03	1.896783872e-01	-4.760689551e-04	6.410412175e-12
-2.600000000e-03	1.896783914e-01	-4.741405348e-04	2.443005799e-11
-2.700000000e-03	1.896783956e-01	-4.722121143e-04	5.752918444e-12
-2.800000000e-03	1.896783997e-01	-4.702836937e-04	2.544592375e-11
-2.900000000e-03	1.896784037e-01	-4.683552729e-04	1.225166756e-11
-3.000000000e-03	1.896784077e-01	-4.664268520e-04	1.500679409e-11
-3.100000000e-03	1.896784117e-01	-4.644984309e-04	7.543550352e-12
-3.200000000e-03	1.896784155e-01	-4.625700097e-04	7.743589933e-12
-3.300000000e-03	1.896784194e-01	-4.606415883e-04	1.083343218e-11
-3.400000000e-03	1.896784231e-01	-4.587131668e-04	2.980134942e-11
-3.500000000e-03	1.896784268e-01	-4.567847451e-04	5.029242842e-12
-3.600000000e-03	1.896784305e-01	-4.548563233e-04	2.460357584e-11
-3.700000000e-03	1.896784340e-01	-4.529279014e-04	1.075405547e-11
-3.800000000e-03	1.896784376e-01	-4.509994794e-04	1.936040490e-11
-3.900000000e-03	1.896784410e-01	-4.490710572e-04	6.073091947e-12
-4.000000000e-03	1.896784444e-01	-4.471426349e-04	2.653217196e-11
-4.100000000e-03	1.896784478e-01	-4.452142125e-04	1.006884604e-11
-4.200000000e-03	1.896784511e-01	-4.432857900e-04	8.223530373e-12
-4.300000000e-03	1.896784543e-01	-4.413573673e-04	2.195792057e-11
-4.400000000e-03	1.896784575e-01	-4.394289445e-04	1.893957377e-11
-4.500000000e-03	1.896784606e-01	-4.375005217e-04	2.167651351e-11
-4.600000000e-03	1.896784636e-01	-4.355720987e-04	1.807596000e-11
-4.700000000e-03	1.896784666e-01	-4.336436756e-04	1.071207372e-11
-4.800000000e-03	1.896784696e-01	-4.317152525e-04	2.323713412e-11
-4.900000000e-03	1.896784724e-01	-4.297868292e-04	2.330539489e-11
-5.000000000e-03	1.896784753e-01	-4.278584058e-04	9.006472557e-12
-5.100000000e-03	1.896784780e-01	-4.259299824e-04	7.884825570e-12
-5.200000000e-03	1.896784807e-01	-4.240015588e-04	5.182874141e-11
-5.300000000e-03	1.896784834e-01	-4.220731352e-04	2.856722061e-11
-5.400000000e-03	1.896784859e-01	-4.201447115e-04	3.320264331e-11
-5.500000000e-03	1.896784885e-01	-4.182162877e-04	5.258964444e-11
-5.600000000e-03	1.896784909e-01	-4.162878638e-04	1.230941582e-11
-5.700000000e-03	1.896784933e-01	-4.143594399e-04	1.528886608e-11
-5.800000000e-03	1.896784957e-01	-4.124310159e-04	2.585801135e-11
-5.900000000e-03	1.896784980e-01	-4.105025918e-04	6.102513774e-12
-6.000000000e-03	1.896785002e-01	-4.085741677e-04	6.741138088e-12
-6.100000000e-03	1.896785024e-01	-4.066457435e-04	1.317273123e-11
-6.200000000e-03	1.896785045e-01	-4.047173193e-04	3.883515448e-11
-6.300000000e-03	1.896785065e-01	-4.027888950e-04	3.638902681e-11
-6.400000000e-03	1.896785085e-01	-4.008604706e-04	5.250712710e-11
-6.500000000e-03	1.896785105e-01	-3.989320462e-04	1.100830096e-11
-6.600000000e-03	1.896785123e-01	-3.970036217e-04	8.465042456e-12
-6.700000000e-03	1.896785142e-01	-3.950751972e-04	2.762383337e-11
-6.800000000e-03	1.896785159e-01	-3.931467727e-04	1.222634921e-11
-6.900000000e-03	1.896785176e-01	-3.912183481e-04	1.696039676e-11
-7.000000000e-03	1.896785193e-01	-3.892899235e-04	1.104996734e-11
-7.100000000e-03	1.896785208e-01	-3.873614989e-04	1.897701652e-11
-7.200000000e-03	1.896785224e-01	-3.854330742e-04	1.199607154e-11
-7.300000000e-03	1.896785238e-01	-3.835046496e-04	5.565687650e-12
-7.400000000e-03	1.896785252e-01	-3.815762249e-04	8.109522139e-12
-7.500000000e-03	1.896785266e-01	-3.796478001e-04	1.050249991e-11
-7.600000000e-03	1.896785279e-01	-3.777193754e-04	1.298166503e-11
-7.700000000e-03	1.896785291e-01	-3.757909506e-04	1.062517372e-11
-7.800000000e-03	1.896785303e-01	-3.738625259e-04	1.835693095e-11
-7.900000000e-03	1.896785314e-01	-3.719341011e-04	1.015918069e-11
-8.000000000e-03	1.896785324e-01	-3.700056763e-04	3.467207011e-11
-8.100000000e-03	1.896785334e-01	-3.680772515e-04	2.520459998e-11
-8.200000000e-03	1.896785344e-01	-3.661488268e-04	8.357619953e-12
-8.300000000e-03	1.896785353e-01	-3.642204020e-04	8.837642858e-11
-8.400000000e-03	1.896785361e-01	-3.622919772e-04	7.113620254e-12
-8.500000000e-03	1.896785368e-01	-3.603635525e-04	4.891451412e-11
-8.600000000e-03	1.896785375e-01	-3.584351278e-04	3.327111491e-11
-8.700000000e-03	1.896785382e-01	-3.565067030e-04	9.510855783e-12
-8.800000000e-03	1.896785388e-01	-3.545782783e-04	8.036501362e-11
-8.900000000e-03	1.896785393e-01	-3.526498537e-04	1.167712002e-11
-9.000000000e-03	1.896785398e-01	-3.507214290e-04	1.556066545e-11
-9.100000000e-03	1.896785402e-01	-3.487930044e-04	1.128363461e-11
-9.200000000e-03	1.896785405e-01	-3.468645798e-04	7.115287985e-11
-9.300000000e-03	1.896785408e-01	-3.449361552e-04	4.456717015e-11
-9.400000000e-03	1.896785410e-01	-3.430077307e-04	2.208817804e-11
-9.500000000e-03	1.896785412e-01	-3.410793063e-04	1.482275634e-11
-9.600000000e-03	1.896785413e-01	-3.391508818e-04	1.142802711e-11
-9.700000000e-03	1.896785414e-01	-3.372224574e-04	8.239205699e-12
-9.800000000e-03	1.896785414e-01	-3.352940331e-04	1.285111834e-11
-9.900000000e-03	1.896785413e-01	-3.333656088e-04	1.008254554e-11
-1.000000000e-02	1.896785412e-01	-3.314371846e-04	2.127932831e-11
-1.010000000e-02	1.896785410e-01	-3.295087604e-04	2.045723318e-11
-1.020000000e-02	1.896785408e-01	-3.275803363e-04	2.071789580e-11
-1.030000000e-02	1.896785405e-01	-3.256519123e-04	5.941815126e-12
-1.040000000e-02	1.896785401e-01	-3.237234883e-04	8.856910599e-12
-1.050000000e-02	1.896785397e-01	-3.217950644e-04	3.052227632e-11
-1.060000000e-02	1.896785392e-01	-3.198666406e-04	8.246845523e-12
-1.070000000e-02	1.896785387e-01	-3.179382168e-04	8.364434945e-12
-1.080000000e-02	1.896785381e-01	-3.160097932e-04	1.310254601e-11
-1.090000000e-02	1.896785375e-01	-3.140813696e-04	8.219347784e-12
-1.100000000e-02	1.896785368e-01	-3.121529461e-04	2.023877823e-11
-1.110000000e-02	1.896785360e-01	-3.102245227e-04	1.035188898e-11
-1.120000000e-02	1.896785352e-01	-3.082960993e-04	1.003857796e-11
-1.130000000e-02	1.896785343e-01	-3.063676761e-04	1.447974630e-11
-1.140000000e-02	1.896785333e-01	-3.044392530e-04	5.615677171e-11
-1.150000000e-02	1.896785323e-01	-3.025108300e-04	1.565519048e-11
-1.160000000e-02	1.896785313e-01	-3.005824070e-04	2.167698969e-11
-1.170000000e-02	1.896785301e-01	-2.986539842e-04	7.300388378e-12
-1.180000000e-02	1.896785290e-01	-2.967255615e-04	2.100878378e-11
-1.190000000e-02	1.896785277e-01	-2.947971389e-04	1.390022347e-11
-1.200000000e-02	1.896785264e-01	-2.928687164e-04	6.252890974e-12
-1.210000000e-02	1.896785251e-01	-2.909402941e-04	1.088390968e-11
-1.220000000e-02	1.896785237e-01	-2.890118718e-04	4.765814863e-11
-1.230000000e-02	1.896785222e-01	-2.870834497e-04	1.149613950e-11
-1.240000000e-02	1.896785207e-01	-2.851550277e-04	6.707817875e-11
-1.250000000e-02	1.896785191e-01	-2.832266058e-04	5.470924303e-12
-1.260000000e-02	1.896785174e-01	-2.812981841e-04	7.166921979e-11
-1.270000000e-02	1.896785157e-01	-2.793697625e-04	1.643190767e-11
-1.280000000e-02	1.896785139e-01	-2.774413411e-04	1.761527640e-11
-1.290000000e-02	1.896785121e-01	-2.755129198e-04	1.062174299e-11
-1.300000000e-02	1.896785102e-01	-2.735844986e-04	1.720859828e-11
-1.310000000e-02	1.896785083e-01	-2.716560776e-04	6.950384929e-12
-1.320000000e-02	1.896785063e-01	-2.697276567e-04	1.900514360e-11
-1.330000000e-02	1.896785042e-01	-2.677992360e-04	8.890875083e-12
-1.340000000e-02	1.896785021e-01	-2.658708155e-04	1.553686373e-11
-1.350000000e-02	1.896784999e-01	-2.639423951e-04	7.944887170e-12
-1.360000000e-02	1.896784977e-01	-2.620139748e-04	8.382973242e-12
-1.370000000e-02	1.896784954e-01	-2.600855548e-04	8.835248525e-12
-1.380000000e-02	1.896784931e-01	-2.581571349e-04	1.529742221e-11
-1.390000000e-02	1.896784906e-01	-2.562287152e-04	9.357069659e-12
-1.400000000e-02	1.896784882e-01	-2.543002956e-04	2.186722697e-11
-1.410000000e-02	1.896784856e-01	-2.523718763e-04	7.337230258e-12
-1.420000000e-02	1.896784830e-01	-2.504434571e-04	7.778820304e-12
-1.430000000e-02	1.896784804e-01	-2.485150381e-04	2.636373433e-11
-1.440000000e-02	1.896784777e-01	-2.465866192e-04	1.199468539e-11
-1.450000000e-02	1.896784749e-01	-2.446582006e-04	3.772714858e-11
-1.460000000e-02	1.896784721e-01	-2.427297822e-04	7.868122666e-12
-1.470000000e-02	1.896784692e-01	-2.408013640e-04	2.042911864e-11
-1.480000000e-02	1.896784663e-01	-2.388729459e-04	6.031344405e-12
-1.490000000e-02	1.896784633e-01	-2.369445281e-04	2.439398590e-11
-1.500000000e-02	1.896784602e-01	-2.350161104e-04	1.273241402e-11
-1.510000000e-02	1.896784571e-01	-2.330876930e-04	7.585901663e-12
-1.520000000e-02	1.896784539e-01	-2.311592758e-04	1.344089414e-11
-1.530000000e-02	1.896784507e-01	-2.292308588e-04	5.761537791e-12
-1.540000000e-02	1.896784474e-01	-2.273024420e-04	1.386803201e-11
-1.550000000e-02	1.896784440e-01	-2.253740255e-04	8.451399420e-12
-1.560000000e-02	1.896784406e-01	-2.234456091e-04	1.440039669e-11
-1.570000000e-02	1.896784372e-01	-2.215171930e-04	1.421366653e-11
-1.580000000e-02	1.896784336e-01	-2.195887771e-04	7.230969173e-12
-1.590000000e-02	1.896784300e-01	-2.176603615e-04	7.718445330e-12
-1.600000000e-02	1.896784264e-01	-2.157319461e-04	1.286375827e-11
-1.610000000e-02	1.896784227e-01	-2.138035309e-04	2.099828958e-11
-1.620000000e-02	1.896784189e-01	-2.118751160e-04	1.231573327e-11
-1.630000000e-02	1.896784151e-01	-2.099467013e-04	5.551721990e-12
-1.640000000e-02	1.896784112e-01	-2.080182868e-04	8.009749463e-12
-1.650000000e-02	1.896784073e-01	-2.060898726e-04	1.029172936e-11
-1.660000000e-02	1.896784033e-01	-2.041614587e-04	1.373297833e-11
-1.670000000e-02	1.896783992e-01	-2.022330450e-04	1.752891962e-11
-1.680000000e-02	1.896783951e-01	-2.003046315e-04	7.395295224e-12
-1.690000000e-02	1.896783909e-01	-1.983762184e-04	2.022504786e-11
-1.700000000e-02	1.896783867e-01	-1.964478055e-04	9.500450536e-12
-1.710000000e-02	1.896783824e-01	-1.945193928e-04	2.019738162e-11
-1.720000000e-02	1.896783780e-01	-1.925909805e-04	2.675744794e-11
-1.730000000e-02	1.896783736e-01	-1.906625684e-04	1.415672553e-11
-1.740000000e-02	1.896783692e-01	-1.887341565e-04	7.422762425e-12
-1.750000000e-02	1.896783646e-01	-1.868057450e-04	2.641051148e-11
-1.760000000e-02	1.896783600e-01	-1.848773338e-04	1.449904566e-11
-1.770000000e-02	1.896783554e-01	-1.829489228e-04	2.297061746e-11
-1.780000000e-02	1.896783507e-01	-1.810205121e-04	2.304522341e-11
-1.790000000e-02	1.896783459e-01	-1.790921017e-04	6.011466067e-12
-1.800000000e-02	1.896783411e-01	-1.771636916e-04	3.778693748e-11
-1.810000000e-02	1.896783362e-01	-1.752352818e-04	7.233646637e-12
-1.820000000e-02	1.896783313e-01	-1.733068723e-04	1.073271357e-11
-1.830000000e-02	1.896783263e-01	-1.713784631e-04	1.132536196e-11
-1.840000000e-02	1.896783212e-01	-1.694500542e-04	1.192454716e-11
-1.850000000e-02	1.896783161e-01	-1.675216457e-04	4.858090695e-11
-1.860000000e-02	1.896783109e-01	-1.655932374e-04	1.705278197e-11
-1.870000000e-02	1.896783057e-01	-1.636648294e-04	1.200616535e-11
-1.880000000e-02	1.896783004e-01	-1.617364218e-04	2.473261825e-11
-1.890000000e-02	1.896782951e-01	-1.598080145e-04	9.848430521e-12
-1.900000000e-02	1.896782897e-01	-1.578796075e-04	2.524713653e-11
-1.910000000e-02	1.896782842e-01	-1.559512009e-04	1.416363046e-11
-1.920000000e-02	1.896782787e-01	-1.540227945e-04	7.279455555e-12
-1.930000000e-02	1.896782731e-01	-1.520943885e-04	8.651001521e-12
-1.940000000e-02	1.896782674e-01	-1.501659829e-04	1.370653104e-11
-1.950000000e-02	1.896782617e-01	-1.482375775e-04	1.330041604e-10
-1.960000000e-02	1.896782560e-01	-1.463091726e-04	2.216541888e-11
-1.970000000e-02	1.896782501e-01	-1.443807679e-04	1.656180880e-11
-1.980000000e-02	1.896782443e-01	-1.424523636e-04	2.897278944e-11
-1.990000000e-02	1.896782383e-01	-1.405239597e-04	5.611469377e-12
-2.000000000e-02	1.896782323e-01	-1.385955561e-04	4.130335265e-11
-2.010000000e-02	1.896782263e-01	-1.366671529e-04	3.282456639e-11
-2.020000000e-02	1.896782202e-01	-1.347387500e-04	1.193130738e-11
-2.030000000e-02	1.896782140e-01	-1.328103475e-04	1.249344178e-11
-2.040000000e-02	1.896782077e-01	-1.308819454e-04	9.934978198e-12
-2.050000000e-02	1.896782015e-01	-1.289535436e-04	8.281291384e-11
-2.060000000e-02	1.896781951e-01	-1.270251422e-04	1.738843551e-11
-2.070000000e-02	1.896781887e-01	-1.250967412e-04	1.259836397e-11
-2.080000000e-02	1.896781822e-01	-1.231683406e-04	1.751005480e-11
-2.090000000e-02	1.896781757e-01	-1.212399403e-04	1.452319784e-11
-2.100000000e-02	1.896781691e-01	-1.193115404e-04	9.556536774e-12
-2.110000000e-02	1.896781625e-01	-1.173831410e-04	2.348736686e-11
-2.120000000e-02	1.896781558e-01	-1.154547419e-04	2.350677040e-11
-2.130000000e-02	1.896781490e-01	-1.135263431e-04	1.371293679e-11
-2.140000000e-02	1.896781422e-01	-1.115979448e-04	9.332877274e-12
-2.150000000e-02	1.896781353e-01	-1.096695469e-04	1.877032289e-11
-2.160000000e-02	1.896781284e-01	-1.077411494e-04	2.362434899e-11
-2.170000000e-02	1.896781214e-01	-1.058127523e-04	1.549702457e-11
-2.180000000e-02	1.896781143e-01	-1.038843556e-04	2.277896006e-11
-2.190000000e-02	1.896781072e-01	-1.019559593e-04	1.170966776e-11
-2.200000000e-02	1.896781000e-01	-1.000275634e-04	1.006411882e-11
-2.210000000e-02	1.896780928e-01	-9.809916799e-05	1.629591139e-11
-2.220000000e-02	1.896780855e-01	-9.617077295e-05	2.386522305e-11
-2.230000000e-02	1.896780782e-01	-9.424237834e-05	1.702360602e-11
-2.240000000e-02	1.896780708e-01	-9.231398415e-05	1.266545910e-11
-2.250000000e-02	1.896780633e-01	-9.038559039e-05	1.094870136e-11
-2.260000000e-02	1.896780558e-01	-8.845719706e-05	1.181461785e-11
-2.270000000e-02	1.896780482e-01	-8.652880417e-05	1.255856303e-11
-2.280000000e-02	1.896780405e-01	-8.460041171e-05	1.410499134e-11
-2.290000000e-02	1.896780328e-01	-8.267201969e-05	8.801070925e-12
-2.300000000e-02	1.896780251e-01	-8.074362812e-05	1.192545508e-11
-2.310000000e-02	1.896780173e-01	-7.881523698e-05	1.997453572e-10
-2.320000000e-02	1.896780094e-01	-7.688684632e-05	1.126076282e-11
-2.330000000e-02	1.896780014e-01	-7.495845609e-05	1.014836695e-11
-2.340000000e-02	1.896779934e-01	-7.303006633e-05	3.055160391e-11
-2.350000000e-02	1.896779854e-01	-7.110167701e-05	1.124668169e-11
-2.360000000e-02	1.896779773e-01	-6.917328816e-05	1.153675212e-11
-2.370000000e-02	1.896779691e-01	-6.724489978e-05	7.278354686e-12
-2.380000000e-02	1.896779609e-01	-6.531651186e-05	7.357988444e-12
-2.390000000e-02	1.896779526e-01	-6.338812442e-05	1.335819034e-11
-2.400000000e-02	1.896779442e-01	-6.145973744e-05	1.265513479e-11
-2.410000000e-02	1.896779358e-01	-5.953135094e-05	2.649180258e-11
-2.420000000e-02	1.896779274e-01	-5.760296493e-05	9.817314395e-11
-2.430000000e-02	1.896779188e-01	-5.567457939e-05	1.485999432e-11
-2.440000000e-02	1.896779103e-01	-5.374619434e-05	1.079990796e-11
-2.450000000e-02	1.896779016e-01	-5.181780978e-05	8.579862794e-12
-2.460000000e-02	1.896778929e-01	-4.988942571e-05	1.724252637e-11
-2.470000000e-02	1.896778842e-01	-4.796104213e-05	7.759394484e-11
-2.480000000e-02	1.896778753e-01	-4.603265905e-05	5.284641370e-11
-2.490000000e-02	1.896778665e-01	-4.410427647e-05	1.226882493e-11
-2.500000000e-02	1.896778575e-01	-4.217589439e-05	8.936624709e-12
-2.510000000e-02	1.896778485e-01	-4.024751282e-05	1.285110229e-11
-2.520000000e-02	1.896778395e-01	-3.831913176e-05	5.974670363e-12
-2.530000000e-02	1.896778304e-01	-3.639075121e-05	3.038278071e-11
-2.540000000e-02	1.896778212e-01	-3.446237118e-05	3.053379170e-11
-2.550000000e-02	1.896778120e-01	-3.253399166e-05	1.378723316e-11
-2.560000000e-02	1.896778027e-01	-3.060561267e-05	5.949798506e-12
-2.570000000e-02	1.896777933e-01	-2.867723420e-05	1.966320105e-11
-2.580000000e-02	1.896777839e-01	-2.674885626e-05	1.875639540e-11
-2.590000000e-02	1.896777745e-01	-2.482047884e-05	8.919426324e-12
-2.600000000e-02	1.896777649e-01	-2.289210196e-05	1.226536098e-11
-2.610000000e-02	1.896777553e-01	-2.096372562e-05	1.273182111e-11
-2.620000000e-02	1.896777457e-01	-1.903534981e-05	3.451140290e-11
-2.630000000e-02	1.896777360e-01	-1.710697454e-05	6.314431326e-11
-2.640000000e-02	1.896777263e-01	-1.517859983e-05	1.215088760e-11
-2.650000000e-02	1.896777164e-01	-1.325022566e-05	1.114305491e-11
-2.660000000e-02	1.896777066e-01	-1.132185203e-05	2.004758636e-11
-2.670000000e-02	1.896776966e-01	-9.393478968e-06	9.472016223e-12
-2.680000000e-02	1.896776866e-01	-7.465106460e-06	1.613855082e-11
-2.690000000e-02	1.896776766e-01	-5.536734508e-06	1.872811043e-11
-2.700000000e-02	1.896776665e-01	-3.608363121e-06	1.133001197e-11
-2.710000000e-02	1.896776563e-01	-1.679992300e-06	1.332499963e-11
-2.720000000e-02	1.896776461e-01	2.483779521e-07	1.198695637e-11
-2.730000000e-02	1.896776358e-01	2.176747633e-06	9.263356557e-12
-2.740000000e-02	1.896776254e-01	4.105116738e-06	4.335803185e-11
-2.750000000e-02	1.896776150e-01	6.033485267e-06	1.804597240e-11
-2.760000000e-02	1.896776046e-01	7.961853214e-06	1.316583310e-11
-2.770000000e-02	1.896775940e-01	9.890220578e-06	1.314514155e-11
-2.780000000e-02	1.896775835e-01	1.181858736e-05	1.065924022e-11
-2.790000000e-02	1.896775728e-01	1.374695354e-05	2.234620432e-11
-2.800000000e-02	1.896775621e-01	1.567531914e-05	1.128794511e-11
-2.810000000e-02	1.896775514e-01	1.760368414e-05	2.458720602e-11
-2.820000000e-02	1.896775405e-01	1.953204854e-05	8.493371011e-12
-2.830000000e-02	1.896775297e-01	2.146041234e-05	1.585224974e-11
-2.840000000e-02	1.896775187e-01	2.338877553e-05	6.319221503e-12
-2.850000000e-02	1.896775077e-01	2.531713812e-05	8.373607975e-12
-2.860000000e-02	1.896774967e-01	2.724550010e-05	1.468864841e-11
-2.870000000e-02	1.896774856e-01	2.917386146e-05	1.935930963e-11
-2.880000000e-02	1.896774744e-01	3.110222221e-05	1.363995335e-11
-2.890000000e-02	1.896774632e-01	3.303058234e-05	2.606626278e-11
-2.900000000e-02	1.896774519e-01	3.495894184e-05	1.282627068e-11
-2.910000000e-02	1.896774406e-01	3.688730072e-05	3.816241912e-11
-2.920000000e-02	1.896774292e-01	3.881565897e-05	9.385830638e-12
-2.930000000e-02	1.896774177e-01	4.074401659e-05	7.119833564e-12
-2.940000000e-02	1.896774062e-01	4.267237358e-05	6.500472503e-12
-2.950000000e-02	1.896773946e-01	4.460072993e-05	2.497954912e-11
-2.960000000e-02	1.896773830e-01	4.652908564e-05	9.860932019e-12
-2.970000000e-02	1.896773713e-01	4.845744070e-05	1.661476072e-11
-2.980000000e-02	1.896773595e-01	5.038579512e-05	1.453854136e-11
-2.990000000e-02	1.896773477e-01	5.231414889e-05	9.423307562e-12
-3.000000000e-02	1.896773358e-01	5.424250200e-05	1.384248711e-11
