# Im(epsi1)     Re(omega/c)      Im(omega/c)      Eq(det).Opt det CON kz, R=0.5 \mum, mu_c=0.3, Re(epsi1)=3.90solve_det_conkz_vs_kz.py
0.000000000e+00	1.896478591e-01	-5.242195369e-04	7.071559586e-12
-1.000000000e-04	1.896478648e-01	-5.222912709e-04	5.161540650e-12
-2.000000000e-04	1.896478704e-01	-5.203630047e-04	1.105764384e-11
-3.000000000e-04	1.896478760e-01	-5.184347383e-04	1.459987946e-11
-4.000000000e-04	1.896478815e-01	-5.165064716e-04	1.040551202e-11
-5.000000000e-04	1.896478870e-01	-5.145782048e-04	2.484369047e-11
-6.000000000e-04	1.896478924e-01	-5.126499376e-04	1.411510341e-11
-7.000000000e-04	1.896478977e-01	-5.107216703e-04	9.435256113e-12
-8.000000000e-04	1.896479030e-01	-5.087934028e-04	3.379963881e-11
-9.000000000e-04	1.896479082e-01	-5.068651350e-04	1.113621983e-11
-1.000000000e-03	1.896479134e-01	-5.049368670e-04	1.111609464e-11
-1.100000000e-03	1.896479185e-01	-5.030085988e-04	3.006445415e-11
-1.200000000e-03	1.896479236e-01	-5.010803304e-04	1.070169492e-11
-1.300000000e-03	1.896479286e-01	-4.991520618e-04	1.453155337e-10
-1.400000000e-03	1.896479335e-01	-4.972237930e-04	5.871576210e-12
-1.500000000e-03	1.896479384e-01	-4.952955240e-04	2.408746163e-11
-1.600000000e-03	1.896479432e-01	-4.933672548e-04	1.302651193e-11
-1.700000000e-03	1.896479479e-01	-4.914389854e-04	1.604971264e-11
-1.800000000e-03	1.896479526e-01	-4.895107159e-04	5.166845751e-12
-1.900000000e-03	1.896479573e-01	-4.875824461e-04	1.629873131e-11
-2.000000000e-03	1.896479618e-01	-4.856541762e-04	2.391163242e-11
-2.100000000e-03	1.896479664e-01	-4.837259060e-04	1.526895772e-11
-2.200000000e-03	1.896479708e-01	-4.817976357e-04	3.350984482e-11
-2.300000000e-03	1.896479752e-01	-4.798693653e-04	4.434146064e-11
-2.400000000e-03	1.896479796e-01	-4.779410946e-04	3.545907016e-11
-2.500000000e-03	1.896479839e-01	-4.760128238e-04	6.172458996e-12
-2.600000000e-03	1.896479881e-01	-4.740845528e-04	1.020616617e-11
-2.700000000e-03	1.896479923e-01	-4.721562817e-04	3.211287718e-11
-2.800000000e-03	1.896479964e-01	-4.702280104e-04	2.993477770e-11
-2.900000000e-03	1.896480004e-01	-4.682997389e-04	1.306907933e-11
-3.000000000e-03	1.896480044e-01	-4.663714673e-04	1.473527936e-11
-3.100000000e-03	1.896480083e-01	-4.644431956e-04	1.636092295e-11
-3.200000000e-03	1.896480122e-01	-4.625149237e-04	1.294888240e-11
-3.300000000e-03	1.896480160e-01	-4.605866516e-04	6.164674477e-12
-3.400000000e-03	1.896480198e-01	-4.586583794e-04	2.960903718e-11
-3.500000000e-03	1.896480235e-01	-4.567301071e-04	1.062340791e-11
-3.600000000e-03	1.896480271e-01	-4.548018347e-04	8.872496284e-12
-3.700000000e-03	1.896480307e-01	-4.528735621e-04	3.882478010e-11
-3.800000000e-03	1.896480342e-01	-4.509452893e-04	6.757013135e-12
-3.900000000e-03	1.896480377e-01	-4.490170165e-04	1.269293983e-11
-4.000000000e-03	1.896480411e-01	-4.470887435e-04	8.563511939e-12
-4.100000000e-03	1.896480445e-01	-4.451604704e-04	1.530378261e-11
-4.200000000e-03	1.896480477e-01	-4.432321972e-04	1.050943078e-11
-4.300000000e-03	1.896480510e-01	-4.413039239e-04	1.645833020e-11
-4.400000000e-03	1.896480541e-01	-4.393756505e-04	7.667774935e-12
-4.500000000e-03	1.896480572e-01	-4.374473769e-04	1.226974947e-11
-4.600000000e-03	1.896480603e-01	-4.355191033e-04	3.899358330e-11
-4.700000000e-03	1.896480633e-01	-4.335908295e-04	7.241438056e-12
-4.800000000e-03	1.896480662e-01	-4.316625557e-04	9.621183240e-12
-4.900000000e-03	1.896480691e-01	-4.297342817e-04	1.832092323e-11
-5.000000000e-03	1.896480719e-01	-4.278060077e-04	1.307618671e-11
-5.100000000e-03	1.896480747e-01	-4.258777336e-04	1.156249351e-11
-5.200000000e-03	1.896480774e-01	-4.239494593e-04	2.295686188e-11
-5.300000000e-03	1.896480800e-01	-4.220211850e-04	9.268845964e-12
-5.400000000e-03	1.896480826e-01	-4.200929107e-04	2.672434004e-11
-5.500000000e-03	1.896480851e-01	-4.181646362e-04	4.207068975e-12
-5.600000000e-03	1.896480876e-01	-4.162363617e-04	3.945325781e-11
-5.700000000e-03	1.896480900e-01	-4.143080871e-04	9.008981176e-12
-5.800000000e-03	1.896480923e-01	-4.123798124e-04	1.819886100e-11
-5.900000000e-03	1.896480946e-01	-4.104515377e-04	2.858035936e-11
-6.000000000e-03	1.896480969e-01	-4.085232628e-04	6.021130215e-11
-6.100000000e-03	1.896480990e-01	-4.065949880e-04	1.647283017e-11
-6.200000000e-03	1.896481011e-01	-4.046667130e-04	1.479393649e-11
-6.300000000e-03	1.896481032e-01	-4.027384381e-04	1.046918826e-11
-6.400000000e-03	1.896481052e-01	-4.008101630e-04	8.817703332e-12
-6.500000000e-03	1.896481071e-01	-3.988818880e-04	6.284622195e-12
-6.600000000e-03	1.896481090e-01	-3.969536128e-04	1.821369200e-11
-6.700000000e-03	1.896481108e-01	-3.950253377e-04	1.823093315e-11
-6.800000000e-03	1.896481126e-01	-3.930970625e-04	9.582170576e-12
-6.900000000e-03	1.896481143e-01	-3.911687872e-04	1.230207647e-11
-7.000000000e-03	1.896481159e-01	-3.892405119e-04	2.751678840e-11
-7.100000000e-03	1.896481175e-01	-3.873122366e-04	8.252395927e-12
-7.200000000e-03	1.896481190e-01	-3.853839613e-04	4.045979992e-11
-7.300000000e-03	1.896481205e-01	-3.834556859e-04	1.170963588e-10
-7.400000000e-03	1.896481219e-01	-3.815274106e-04	1.416141844e-11
-7.500000000e-03	1.896481232e-01	-3.795991352e-04	1.525241183e-11
-7.600000000e-03	1.896481245e-01	-3.776708597e-04	2.850499874e-11
-7.700000000e-03	1.896481258e-01	-3.757425843e-04	9.451976675e-12
-7.800000000e-03	1.896481269e-01	-3.738143089e-04	1.802013476e-11
-7.900000000e-03	1.896481280e-01	-3.718860334e-04	1.068682634e-11
-8.000000000e-03	1.896481291e-01	-3.699577580e-04	9.742851151e-12
-8.100000000e-03	1.896481301e-01	-3.680294825e-04	2.232206780e-11
-8.200000000e-03	1.896481310e-01	-3.661012071e-04	1.225809236e-11
-8.300000000e-03	1.896481319e-01	-3.641729316e-04	1.123082974e-11
-8.400000000e-03	1.896481327e-01	-3.622446562e-04	1.176910682e-11
-8.500000000e-03	1.896481335e-01	-3.603163808e-04	3.134606134e-11
-8.600000000e-03	1.896481342e-01	-3.583881054e-04	3.483746923e-11
-8.700000000e-03	1.896481348e-01	-3.564598300e-04	7.046085621e-12
-8.800000000e-03	1.896481354e-01	-3.545315546e-04	1.721976269e-11
-8.900000000e-03	1.896481359e-01	-3.526032793e-04	1.417617199e-11
-9.000000000e-03	1.896481364e-01	-3.506750039e-04	1.842161621e-11
-9.100000000e-03	1.896481368e-01	-3.487467286e-04	6.116748896e-12
-9.200000000e-03	1.896481372e-01	-3.468184534e-04	1.101876724e-11
-9.300000000e-03	1.896481374e-01	-3.448901782e-04	1.712014661e-11
-9.400000000e-03	1.896481377e-01	-3.429619030e-04	5.209934390e-12
-9.500000000e-03	1.896481379e-01	-3.410336278e-04	1.562100930e-11
-9.600000000e-03	1.896481380e-01	-3.391053527e-04	1.592316595e-11
-9.700000000e-03	1.896481380e-01	-3.371770777e-04	5.620498223e-11
-9.800000000e-03	1.896481380e-01	-3.352488026e-04	1.685849439e-11
-9.900000000e-03	1.896481380e-01	-3.333205277e-04	2.607910797e-11
-1.000000000e-02	1.896481378e-01	-3.313922528e-04	3.688748547e-11
-1.010000000e-02	1.896481376e-01	-3.294639780e-04	7.550291646e-12
-1.020000000e-02	1.896481374e-01	-3.275357032e-04	1.920099012e-11
-1.030000000e-02	1.896481371e-01	-3.256074285e-04	6.154321254e-12
-1.040000000e-02	1.896481368e-01	-3.236791538e-04	1.321931051e-11
-1.050000000e-02	1.896481363e-01	-3.217508792e-04	1.946519444e-11
-1.060000000e-02	1.896481359e-01	-3.198226047e-04	1.331399805e-11
-1.070000000e-02	1.896481353e-01	-3.178943303e-04	5.037194511e-12
-1.080000000e-02	1.896481347e-01	-3.159660560e-04	1.604680740e-11
-1.090000000e-02	1.896481341e-01	-3.140377817e-04	3.416842689e-11
-1.100000000e-02	1.896481334e-01	-3.121095075e-04	1.726447659e-11
-1.110000000e-02	1.896481326e-01	-3.101812335e-04	2.125089976e-11
-1.120000000e-02	1.896481318e-01	-3.082529595e-04	5.760093248e-12
-1.130000000e-02	1.896481309e-01	-3.063246856e-04	1.220966532e-11
-1.140000000e-02	1.896481300e-01	-3.043964118e-04	1.047825923e-11
-1.150000000e-02	1.896481290e-01	-3.024681381e-04	7.143296495e-12
-1.160000000e-02	1.896481279e-01	-3.005398645e-04	1.094094731e-11
-1.170000000e-02	1.896481268e-01	-2.986115910e-04	1.015346386e-11
-1.180000000e-02	1.896481256e-01	-2.966833176e-04	2.954022460e-11
-1.190000000e-02	1.896481244e-01	-2.947550443e-04	1.183543151e-11
-1.200000000e-02	1.896481231e-01	-2.928267712e-04	7.325917331e-12
-1.210000000e-02	1.896481217e-01	-2.908984981e-04	1.754670689e-11
-1.220000000e-02	1.896481203e-01	-2.889702252e-04	1.164108854e-11
-1.230000000e-02	1.896481188e-01	-2.870419524e-04	1.464477647e-11
-1.240000000e-02	1.896481173e-01	-2.851136798e-04	1.045886465e-11
-1.250000000e-02	1.896481157e-01	-2.831854072e-04	6.812493263e-12
-1.260000000e-02	1.896481140e-01	-2.812571348e-04	1.099701666e-11
-1.270000000e-02	1.896481123e-01	-2.793288626e-04	3.427016197e-11
-1.280000000e-02	1.896481106e-01	-2.774005904e-04	9.191573191e-12
-1.290000000e-02	1.896481087e-01	-2.754723185e-04	9.357964927e-12
-1.300000000e-02	1.896481069e-01	-2.735440466e-04	1.631103546e-11
-1.310000000e-02	1.896481049e-01	-2.716157749e-04	8.717549089e-12
-1.320000000e-02	1.896481029e-01	-2.696875034e-04	2.022615474e-11
-1.330000000e-02	1.896481009e-01	-2.677592320e-04	1.027850194e-11
-1.340000000e-02	1.896480987e-01	-2.658309608e-04	6.669232275e-12
-1.350000000e-02	1.896480966e-01	-2.639026897e-04	6.825543580e-12
-1.360000000e-02	1.896480943e-01	-2.619744188e-04	4.734048149e-11
-1.370000000e-02	1.896480920e-01	-2.600461481e-04	2.076993238e-11
-1.380000000e-02	1.896480897e-01	-2.581178775e-04	8.988103309e-12
-1.390000000e-02	1.896480873e-01	-2.561896071e-04	2.139648755e-11
-1.400000000e-02	1.896480848e-01	-2.542613369e-04	3.170589858e-11
-1.410000000e-02	1.896480822e-01	-2.523330669e-04	7.037327047e-11
-1.420000000e-02	1.896480797e-01	-2.504047970e-04	1.123109842e-11
-1.430000000e-02	1.896480770e-01	-2.484765273e-04	1.755900535e-11
-1.440000000e-02	1.896480743e-01	-2.465482579e-04	1.096822717e-11
-1.450000000e-02	1.896480715e-01	-2.446199885e-04	1.246444791e-11
-1.460000000e-02	1.896480687e-01	-2.426917194e-04	3.190902503e-11
-1.470000000e-02	1.896480658e-01	-2.407634505e-04	1.287034397e-11
-1.480000000e-02	1.896480629e-01	-2.388351818e-04	1.001908387e-11
-1.490000000e-02	1.896480599e-01	-2.369069133e-04	2.461143852e-11
-1.500000000e-02	1.896480568e-01	-2.349786450e-04	6.141416336e-12
-1.510000000e-02	1.896480537e-01	-2.330503769e-04	6.503881858e-11
-1.520000000e-02	1.896480505e-01	-2.311221090e-04	1.152325034e-11
-1.530000000e-02	1.896480473e-01	-2.291938414e-04	3.331840065e-11
-1.540000000e-02	1.896480440e-01	-2.272655739e-04	2.459110122e-11
-1.550000000e-02	1.896480406e-01	-2.253373067e-04	2.305063195e-11
-1.560000000e-02	1.896480372e-01	-2.234090397e-04	9.203983146e-12
-1.570000000e-02	1.896480338e-01	-2.214807729e-04	2.725657896e-11
-1.580000000e-02	1.896480302e-01	-2.195525063e-04	2.004062617e-11
-1.590000000e-02	1.896480266e-01	-2.176242400e-04	1.279140620e-11
-1.600000000e-02	1.896480230e-01	-2.156959739e-04	7.983572596e-12
-1.610000000e-02	1.896480193e-01	-2.137677081e-04	1.124393102e-11
-1.620000000e-02	1.896480155e-01	-2.118394425e-04	3.067590716e-11
-1.630000000e-02	1.896480117e-01	-2.099111771e-04	1.570225094e-11
-1.640000000e-02	1.896480078e-01	-2.079829120e-04	1.418079179e-11
-1.650000000e-02	1.896480039e-01	-2.060546471e-04	1.762818794e-11
-1.660000000e-02	1.896479999e-01	-2.041263825e-04	1.394182422e-11
-1.670000000e-02	1.896479958e-01	-2.021981181e-04	1.788752258e-11
-1.680000000e-02	1.896479917e-01	-2.002698540e-04	7.454220287e-12
-1.690000000e-02	1.896479875e-01	-1.983415902e-04	1.039038635e-11
-1.700000000e-02	1.896479833e-01	-1.964133266e-04	2.254405670e-11
-1.710000000e-02	1.896479790e-01	-1.944850633e-04	5.110013275e-12
-1.720000000e-02	1.896479746e-01	-1.925568003e-04	1.202521580e-11
-1.730000000e-02	1.896479702e-01	-1.906285375e-04	1.642002097e-11
-1.740000000e-02	1.896479658e-01	-1.887002750e-04	9.817637862e-12
-1.750000000e-02	1.896479612e-01	-1.867720128e-04	7.848264503e-12
-1.760000000e-02	1.896479566e-01	-1.848437509e-04	1.095300398e-11
-1.770000000e-02	1.896479520e-01	-1.829154892e-04	2.009890111e-11
-1.780000000e-02	1.896479473e-01	-1.809872279e-04	6.677023042e-12
-1.790000000e-02	1.896479425e-01	-1.790589668e-04	1.356393697e-11
-1.800000000e-02	1.896479377e-01	-1.771307061e-04	2.604602183e-11
-1.810000000e-02	1.896479328e-01	-1.752024456e-04	3.344920749e-11
-1.820000000e-02	1.896479279e-01	-1.732741854e-04	1.767256635e-11
-1.830000000e-02	1.896479229e-01	-1.713459255e-04	3.414467314e-11
-1.840000000e-02	1.896479178e-01	-1.694176660e-04	6.482994527e-12
-1.850000000e-02	1.896479127e-01	-1.674894067e-04	8.058246585e-12
-1.860000000e-02	1.896479075e-01	-1.655611478e-04	1.564712242e-11
-1.870000000e-02	1.896479023e-01	-1.636328892e-04	1.322621063e-11
-1.880000000e-02	1.896478970e-01	-1.617046309e-04	8.397390970e-12
-1.890000000e-02	1.896478917e-01	-1.597763729e-04	3.772249770e-11
-1.900000000e-02	1.896478862e-01	-1.578481152e-04	5.108225369e-12
-1.910000000e-02	1.896478808e-01	-1.559198579e-04	7.798761839e-12
-1.920000000e-02	1.896478752e-01	-1.539916009e-04	2.499758964e-11
-1.930000000e-02	1.896478697e-01	-1.520633442e-04	6.511615578e-12
-1.940000000e-02	1.896478640e-01	-1.501350879e-04	2.467353537e-11
-1.950000000e-02	1.896478583e-01	-1.482068319e-04	4.950654481e-11
-1.960000000e-02	1.896478525e-01	-1.462785763e-04	4.615671769e-11
-1.970000000e-02	1.896478467e-01	-1.443503210e-04	1.187003279e-11
-1.980000000e-02	1.896478408e-01	-1.424220660e-04	1.579973563e-11
-1.990000000e-02	1.896478349e-01	-1.404938114e-04	7.766920056e-12
-2.000000000e-02	1.896478289e-01	-1.385655572e-04	6.326678050e-12
-2.010000000e-02	1.896478228e-01	-1.366373033e-04	7.887203646e-12
-2.020000000e-02	1.896478167e-01	-1.347090497e-04	6.997321912e-12
-2.030000000e-02	1.896478106e-01	-1.327807966e-04	1.244207749e-11
-2.040000000e-02	1.896478043e-01	-1.308525438e-04	4.760584375e-11
-2.050000000e-02	1.896477980e-01	-1.289242913e-04	1.158636120e-11
-2.060000000e-02	1.896477917e-01	-1.269960393e-04	7.070347800e-12
-2.070000000e-02	1.896477853e-01	-1.250677876e-04	2.271320100e-11
-2.080000000e-02	1.896477788e-01	-1.231395363e-04	1.473525109e-11
-2.090000000e-02	1.896477723e-01	-1.212112853e-04	1.281327775e-11
-2.100000000e-02	1.896477657e-01	-1.192830348e-04	1.285332670e-11
-2.110000000e-02	1.896477590e-01	-1.173547846e-04	1.429237435e-11
-2.120000000e-02	1.896477523e-01	-1.154265349e-04	7.951521904e-12
-2.130000000e-02	1.896477456e-01	-1.134982855e-04	1.474969170e-11
-2.140000000e-02	1.896477388e-01	-1.115700365e-04	1.282811520e-11
-2.150000000e-02	1.896477319e-01	-1.096417879e-04	8.853044149e-11
-2.160000000e-02	1.896477249e-01	-1.077135397e-04	6.134353264e-12
-2.170000000e-02	1.896477179e-01	-1.057852920e-04	2.051110625e-11
-2.180000000e-02	1.896477109e-01	-1.038570446e-04	2.073605113e-11
-2.190000000e-02	1.896477038e-01	-1.019287976e-04	6.815569995e-12
-2.200000000e-02	1.896476966e-01	-1.000005511e-04	1.100461228e-11
-2.210000000e-02	1.896476894e-01	-9.807230497e-05	1.905689277e-11
-2.220000000e-02	1.896476821e-01	-9.614405927e-05	1.533380319e-11
-2.230000000e-02	1.896476747e-01	-9.421581399e-05	1.379707806e-11
-2.240000000e-02	1.896476673e-01	-9.228756912e-05	6.312065930e-11
-2.250000000e-02	1.896476599e-01	-9.035932469e-05	2.948514965e-11
-2.260000000e-02	1.896476523e-01	-8.843108070e-05	1.916923022e-11
-2.270000000e-02	1.896476447e-01	-8.650283714e-05	1.085202591e-11
-2.280000000e-02	1.896476371e-01	-8.457459401e-05	1.857223111e-11
-2.290000000e-02	1.896476294e-01	-8.264635133e-05	1.058144409e-11
-2.300000000e-02	1.896476216e-01	-8.071810909e-05	1.452984324e-11
-2.310000000e-02	1.896476138e-01	-7.878986730e-05	2.174489191e-11
-2.320000000e-02	1.896476059e-01	-7.686162595e-05	1.303734183e-11
-2.330000000e-02	1.896475980e-01	-7.493338506e-05	8.204041598e-12
-2.340000000e-02	1.896475900e-01	-7.300514462e-05	1.043717660e-11
-2.350000000e-02	1.896475819e-01	-7.107690465e-05	1.873555935e-11
-2.360000000e-02	1.896475738e-01	-6.914866512e-05	1.890223168e-11
-2.370000000e-02	1.896475657e-01	-6.722042608e-05	3.686901833e-11
-2.380000000e-02	1.896475574e-01	-6.529218749e-05	1.230751283e-11
-2.390000000e-02	1.896475491e-01	-6.336394937e-05	1.525779866e-11
-2.400000000e-02	1.896475408e-01	-6.143571173e-05	1.079713258e-11
-2.410000000e-02	1.896475324e-01	-5.950747457e-05	1.979248625e-11
-2.420000000e-02	1.896475239e-01	-5.757923788e-05	1.754572447e-11
-2.430000000e-02	1.896475154e-01	-5.565100168e-05	8.209258784e-12
-2.440000000e-02	1.896475068e-01	-5.372276596e-05	1.390761538e-11
-2.450000000e-02	1.896474982e-01	-5.179453073e-05	6.056758803e-12
-2.460000000e-02	1.896474895e-01	-4.986629599e-05	1.355364828e-11
-2.470000000e-02	1.896474807e-01	-4.793806174e-05	4.312659989e-11
-2.480000000e-02	1.896474719e-01	-4.600982800e-05	1.663329914e-11
-2.490000000e-02	1.896474630e-01	-4.408159476e-05	1.397832617e-11
-2.500000000e-02	1.896474541e-01	-4.215336201e-05	9.393607528e-12
-2.510000000e-02	1.896474451e-01	-4.022512977e-05	1.916927310e-11
-2.520000000e-02	1.896474360e-01	-3.829689805e-05	1.713363663e-11
-2.530000000e-02	1.896474269e-01	-3.636866683e-05	1.829661250e-11
-2.540000000e-02	1.896474177e-01	-3.444043613e-05	1.832705255e-11
-2.550000000e-02	1.896474085e-01	-3.251220595e-05	1.953390421e-11
-2.560000000e-02	1.896473992e-01	-3.058397629e-05	2.813774410e-11
-2.570000000e-02	1.896473899e-01	-2.865574715e-05	9.129371012e-12
-2.580000000e-02	1.896473805e-01	-2.672751854e-05	6.000177290e-12
-2.590000000e-02	1.896473710e-01	-2.479929046e-05	1.029234729e-11
-2.600000000e-02	1.896473615e-01	-2.287106291e-05	1.378214522e-11
-2.610000000e-02	1.896473519e-01	-2.094283590e-05	1.675708176e-11
-2.620000000e-02	1.896473422e-01	-1.901460943e-05	8.107398557e-12
-2.630000000e-02	1.896473325e-01	-1.708638349e-05	6.695943573e-11
-2.640000000e-02	1.896473228e-01	-1.515815812e-05	2.047780852e-11
-2.650000000e-02	1.896473130e-01	-1.322993328e-05	1.688500862e-11
-2.660000000e-02	1.896473031e-01	-1.130170899e-05	1.379327126e-11
-2.670000000e-02	1.896472932e-01	-9.373485261e-06	1.965490105e-11
-2.680000000e-02	1.896472832e-01	-7.445262084e-06	1.193281423e-11
-2.690000000e-02	1.896472731e-01	-5.517039474e-06	3.532710199e-11
-2.700000000e-02	1.896472630e-01	-3.588817418e-06	4.509059907e-11
-2.710000000e-02	1.896472528e-01	-1.660595930e-06	2.271815229e-11
-2.720000000e-02	1.896472426e-01	2.676249919e-07	1.409967639e-11
-2.730000000e-02	1.896472323e-01	2.195845335e-06	1.335500418e-11
-2.740000000e-02	1.896472220e-01	4.124065106e-06	1.055339683e-11
-2.750000000e-02	1.896472116e-01	6.052284298e-06	1.741460853e-11
-2.760000000e-02	1.896472011e-01	7.980502914e-06	1.334256084e-11
-2.770000000e-02	1.896471906e-01	9.908720941e-06	1.249977622e-11
-2.780000000e-02	1.896471800e-01	1.183693839e-05	8.469511656e-12
-2.790000000e-02	1.896471694e-01	1.376515524e-05	7.034302661e-12
-2.800000000e-02	1.896471587e-01	1.569337150e-05	1.684369255e-11
-2.810000000e-02	1.896471479e-01	1.762158716e-05	1.160198187e-11
-2.820000000e-02	1.896471371e-01	1.954980223e-05	7.718690217e-12
-2.830000000e-02	1.896471262e-01	2.147801669e-05	3.583151604e-12
-2.840000000e-02	1.896471153e-01	2.340623055e-05	1.131090154e-11
-2.850000000e-02	1.896471043e-01	2.533444380e-05	1.554887558e-11
-2.860000000e-02	1.896470932e-01	2.726265645e-05	1.044153208e-11
-2.870000000e-02	1.896470821e-01	2.919086848e-05	4.710644846e-11
-2.880000000e-02	1.896470709e-01	3.111907989e-05	1.635473385e-11
-2.890000000e-02	1.896470597e-01	3.304729068e-05	1.197012187e-11
-2.900000000e-02	1.896470484e-01	3.497550085e-05	8.737771220e-12
-2.910000000e-02	1.896470371e-01	3.690371039e-05	9.994129105e-12
-2.920000000e-02	1.896470257e-01	3.883191931e-05	1.063613318e-11
-2.930000000e-02	1.896470142e-01	4.076012759e-05	1.027150450e-11
-2.940000000e-02	1.896470027e-01	4.268833524e-05	9.183326441e-12
-2.950000000e-02	1.896469911e-01	4.461654225e-05	7.337338281e-12
-2.960000000e-02	1.896469795e-01	4.654474862e-05	7.598830582e-12
-2.970000000e-02	1.896469678e-01	4.847295435e-05	1.042294872e-11
-2.980000000e-02	1.896469560e-01	5.040115943e-05	2.730947542e-11
-2.990000000e-02	1.896469442e-01	5.232936386e-05	2.047405361e-11
-3.000000000e-02	1.896469323e-01	5.425756765e-05	5.905580381e-12
