# Im(epsi1)     Re(omega/c)      Im(omega/c)      Eq(det).Opt det CON kz, R=0.5 \mum, mu_c=0.3, Re(epsi1)=3.90solve_det_conkz_vs_kz.py
0.000000000e+00	1.896432327e-01	-5.242065849e-04	8.280688528e-12
-1.000000000e-04	1.896432384e-01	-5.222783416e-04	7.532415851e-12
-2.000000000e-04	1.896432441e-01	-5.203500980e-04	6.617695955e-12
-3.000000000e-04	1.896432496e-01	-5.184218542e-04	1.409637396e-11
-4.000000000e-04	1.896432552e-01	-5.164936101e-04	1.180645708e-11
-5.000000000e-04	1.896432606e-01	-5.145653659e-04	9.743091778e-12
-6.000000000e-04	1.896432660e-01	-5.126371214e-04	1.241493900e-11
-7.000000000e-04	1.896432714e-01	-5.107088766e-04	1.907769134e-11
-8.000000000e-04	1.896432766e-01	-5.087806317e-04	2.027059817e-11
-9.000000000e-04	1.896432819e-01	-5.068523866e-04	2.130533827e-11
-1.000000000e-03	1.896432870e-01	-5.049241412e-04	9.491737669e-12
-1.100000000e-03	1.896432921e-01	-5.029958956e-04	1.029306315e-11
-1.200000000e-03	1.896432972e-01	-5.010676498e-04	5.308083309e-11
-1.300000000e-03	1.896433022e-01	-4.991394038e-04	5.332452432e-12
-1.400000000e-03	1.896433071e-01	-4.972111577e-04	1.624579516e-11
-1.500000000e-03	1.896433120e-01	-4.952829113e-04	1.136600298e-11
-1.600000000e-03	1.896433168e-01	-4.933546647e-04	1.212179046e-11
-1.700000000e-03	1.896433216e-01	-4.914264179e-04	1.593659623e-11
-1.800000000e-03	1.896433263e-01	-4.894981710e-04	1.075582048e-11
-1.900000000e-03	1.896433309e-01	-4.875699238e-04	2.960557347e-11
-2.000000000e-03	1.896433355e-01	-4.856416765e-04	8.512134477e-11
-2.100000000e-03	1.896433400e-01	-4.837134290e-04	1.137000234e-11
-2.200000000e-03	1.896433445e-01	-4.817851813e-04	1.759764328e-11
-2.300000000e-03	1.896433489e-01	-4.798569334e-04	1.438487874e-11
-2.400000000e-03	1.896433532e-01	-4.779286854e-04	2.569946207e-11
-2.500000000e-03	1.896433575e-01	-4.760004372e-04	6.934430864e-12
-2.600000000e-03	1.896433617e-01	-4.740721889e-04	9.284022108e-12
-2.700000000e-03	1.896433659e-01	-4.721439403e-04	9.764813165e-12
-2.800000000e-03	1.896433700e-01	-4.702156916e-04	2.450074503e-11
-2.900000000e-03	1.896433741e-01	-4.682874428e-04	8.321881399e-12
-3.000000000e-03	1.896433780e-01	-4.663591938e-04	1.029356531e-11
-3.100000000e-03	1.896433820e-01	-4.644309447e-04	5.832980367e-11
-3.200000000e-03	1.896433859e-01	-4.625026954e-04	1.253563347e-11
-3.300000000e-03	1.896433897e-01	-4.605744460e-04	1.236506715e-11
-3.400000000e-03	1.896433934e-01	-4.586461964e-04	6.107833100e-12
-3.500000000e-03	1.896433971e-01	-4.567179467e-04	1.333947889e-11
-3.600000000e-03	1.896434008e-01	-4.547896968e-04	1.958244857e-11
-3.700000000e-03	1.896434043e-01	-4.528614469e-04	1.444305281e-11
-3.800000000e-03	1.896434079e-01	-4.509331967e-04	7.175991856e-12
-3.900000000e-03	1.896434113e-01	-4.490049465e-04	2.368727715e-11
-4.000000000e-03	1.896434147e-01	-4.470766962e-04	8.135187644e-11
-4.100000000e-03	1.896434181e-01	-4.451484457e-04	1.343531813e-11
-4.200000000e-03	1.896434214e-01	-4.432201951e-04	1.087225673e-11
-4.300000000e-03	1.896434246e-01	-4.412919444e-04	9.667294748e-12
-4.400000000e-03	1.896434278e-01	-4.393636936e-04	6.943411007e-12
-4.500000000e-03	1.896434309e-01	-4.374354426e-04	5.470112288e-12
-4.600000000e-03	1.896434339e-01	-4.355071916e-04	1.113965719e-11
-4.700000000e-03	1.896434369e-01	-4.335789405e-04	9.325038867e-12
-4.800000000e-03	1.896434399e-01	-4.316506892e-04	1.655197544e-11
-4.900000000e-03	1.896434427e-01	-4.297224379e-04	9.057550317e-12
-5.000000000e-03	1.896434455e-01	-4.277941865e-04	1.015624667e-11
-5.100000000e-03	1.896434483e-01	-4.258659350e-04	3.983052867e-11
-5.200000000e-03	1.896434510e-01	-4.239376834e-04	9.355594917e-12
-5.300000000e-03	1.896434536e-01	-4.220094317e-04	1.502939326e-11
-5.400000000e-03	1.896434562e-01	-4.200811799e-04	1.047333196e-11
-5.500000000e-03	1.896434587e-01	-4.181529281e-04	1.273825568e-11
-5.600000000e-03	1.896434612e-01	-4.162246761e-04	1.711668569e-11
-5.700000000e-03	1.896434636e-01	-4.142964242e-04	1.797274032e-11
-5.800000000e-03	1.896434660e-01	-4.123681721e-04	7.144882692e-12
-5.900000000e-03	1.896434682e-01	-4.104399200e-04	7.006609766e-12
-6.000000000e-03	1.896434705e-01	-4.085116678e-04	5.932599307e-12
-6.100000000e-03	1.896434726e-01	-4.065834155e-04	1.085055559e-11
-6.200000000e-03	1.896434748e-01	-4.046551632e-04	3.398914247e-11
-6.300000000e-03	1.896434768e-01	-4.027269108e-04	2.881878064e-11
-6.400000000e-03	1.896434788e-01	-4.007986584e-04	1.074429929e-11
-6.500000000e-03	1.896434807e-01	-3.988704060e-04	2.675062952e-11
-6.600000000e-03	1.896434826e-01	-3.969421535e-04	8.739483924e-12
-6.700000000e-03	1.896434844e-01	-3.950139009e-04	5.798139017e-12
-6.800000000e-03	1.896434862e-01	-3.930856483e-04	3.166220663e-11
-6.900000000e-03	1.896434879e-01	-3.911573957e-04	1.423099279e-10
-7.000000000e-03	1.896434895e-01	-3.892291430e-04	1.306337981e-11
-7.100000000e-03	1.896434911e-01	-3.873008903e-04	7.322931735e-12
-7.200000000e-03	1.896434926e-01	-3.853726376e-04	9.655841564e-12
-7.300000000e-03	1.896434941e-01	-3.834443849e-04	1.541924821e-11
-7.400000000e-03	1.896434955e-01	-3.815161321e-04	1.081762281e-11
-7.500000000e-03	1.896434969e-01	-3.795878793e-04	1.084446778e-11
-7.600000000e-03	1.896434981e-01	-3.776596265e-04	1.254471762e-11
-7.700000000e-03	1.896434994e-01	-3.757313737e-04	3.493567225e-11
-7.800000000e-03	1.896435005e-01	-3.738031209e-04	9.936004806e-12
-7.900000000e-03	1.896435017e-01	-3.718748681e-04	1.585924815e-11
-8.000000000e-03	1.896435027e-01	-3.699466152e-04	4.916280045e-11
-8.100000000e-03	1.896435037e-01	-3.680183624e-04	1.696828240e-11
-8.200000000e-03	1.896435046e-01	-3.660901095e-04	1.870640295e-11
-8.300000000e-03	1.896435055e-01	-3.641618567e-04	3.406822061e-11
-8.400000000e-03	1.896435063e-01	-3.622336039e-04	5.951608776e-12
-8.500000000e-03	1.896435071e-01	-3.603053511e-04	1.540676135e-11
-8.600000000e-03	1.896435078e-01	-3.583770983e-04	1.089962409e-11
-8.700000000e-03	1.896435084e-01	-3.564488455e-04	1.571983904e-11
-8.800000000e-03	1.896435090e-01	-3.545205928e-04	9.712014166e-12
-8.900000000e-03	1.896435096e-01	-3.525923400e-04	8.792630929e-12
-9.000000000e-03	1.896435100e-01	-3.506640873e-04	1.424288440e-11
-9.100000000e-03	1.896435104e-01	-3.487358347e-04	4.729690578e-11
-9.200000000e-03	1.896435108e-01	-3.468075820e-04	1.422682151e-11
-9.300000000e-03	1.896435111e-01	-3.448793294e-04	2.933754614e-11
-9.400000000e-03	1.896435113e-01	-3.429510768e-04	2.304792218e-11
-9.500000000e-03	1.896435115e-01	-3.410228243e-04	1.140185387e-11
-9.600000000e-03	1.896435116e-01	-3.390945718e-04	1.254176255e-11
-9.700000000e-03	1.896435116e-01	-3.371663194e-04	1.185101883e-11
-9.800000000e-03	1.896435116e-01	-3.352380670e-04	2.354788116e-11
-9.900000000e-03	1.896435116e-01	-3.333098146e-04	2.439160388e-11
-1.000000000e-02	1.896435114e-01	-3.313815623e-04	1.365507913e-11
-1.010000000e-02	1.896435113e-01	-3.294533101e-04	1.211252178e-11
-1.020000000e-02	1.896435110e-01	-3.275250580e-04	1.440282882e-11
-1.030000000e-02	1.896435107e-01	-3.255968059e-04	9.894785295e-12
-1.040000000e-02	1.896435104e-01	-3.236685538e-04	4.851674518e-11
-1.050000000e-02	1.896435100e-01	-3.217403019e-04	1.617405346e-11
-1.060000000e-02	1.896435095e-01	-3.198120500e-04	1.088375886e-11
-1.070000000e-02	1.896435089e-01	-3.178837982e-04	9.579746031e-12
-1.080000000e-02	1.896435084e-01	-3.159555464e-04	1.602618020e-11
-1.090000000e-02	1.896435077e-01	-3.140272948e-04	1.250982005e-11
-1.100000000e-02	1.896435070e-01	-3.120990432e-04	1.575300774e-11
-1.110000000e-02	1.896435062e-01	-3.101707918e-04	8.155944636e-12
-1.120000000e-02	1.896435054e-01	-3.082425404e-04	9.813297816e-12
-1.130000000e-02	1.896435045e-01	-3.063142891e-04	1.086366234e-11
-1.140000000e-02	1.896435036e-01	-3.043860379e-04	7.486669065e-12
-1.150000000e-02	1.896435026e-01	-3.024577868e-04	9.724324347e-12
-1.160000000e-02	1.896435015e-01	-3.005295358e-04	2.970903315e-11
-1.170000000e-02	1.896435004e-01	-2.986012850e-04	1.172868725e-11
-1.180000000e-02	1.896434992e-01	-2.966730342e-04	1.165029956e-11
-1.190000000e-02	1.896434980e-01	-2.947447835e-04	6.173142476e-12
-1.200000000e-02	1.896434967e-01	-2.928165330e-04	1.096457072e-11
-1.210000000e-02	1.896434953e-01	-2.908882826e-04	6.173451157e-12
-1.220000000e-02	1.896434939e-01	-2.889600323e-04	4.274261621e-11
-1.230000000e-02	1.896434924e-01	-2.870317821e-04	1.259569094e-11
-1.240000000e-02	1.896434909e-01	-2.851035321e-04	1.344608037e-11
-1.250000000e-02	1.896434893e-01	-2.831752822e-04	1.128739872e-11
-1.260000000e-02	1.896434877e-01	-2.812470324e-04	1.244659440e-11
-1.270000000e-02	1.896434859e-01	-2.793187827e-04	2.109722701e-11
-1.280000000e-02	1.896434842e-01	-2.773905332e-04	1.914797936e-11
-1.290000000e-02	1.896434824e-01	-2.754622838e-04	1.459864612e-11
-1.300000000e-02	1.896434805e-01	-2.735340346e-04	3.831943199e-11
-1.310000000e-02	1.896434785e-01	-2.716057856e-04	1.263127607e-11
-1.320000000e-02	1.896434765e-01	-2.696775366e-04	1.480426768e-11
-1.330000000e-02	1.896434745e-01	-2.677492879e-04	8.371899249e-12
-1.340000000e-02	1.896434723e-01	-2.658210393e-04	1.365242683e-11
-1.350000000e-02	1.896434702e-01	-2.638927908e-04	1.363634743e-11
-1.360000000e-02	1.896434679e-01	-2.619645425e-04	5.489241451e-11
-1.370000000e-02	1.896434656e-01	-2.600362944e-04	8.067849386e-12
-1.380000000e-02	1.896434633e-01	-2.581080465e-04	6.101648743e-11
-1.390000000e-02	1.896434609e-01	-2.561797987e-04	3.085789928e-11
-1.400000000e-02	1.896434584e-01	-2.542515511e-04	3.219201935e-11
-1.410000000e-02	1.896434559e-01	-2.523233037e-04	4.252279404e-11
-1.420000000e-02	1.896434533e-01	-2.503950564e-04	1.449432220e-11
-1.430000000e-02	1.896434506e-01	-2.484668094e-04	7.909596623e-12
-1.440000000e-02	1.896434479e-01	-2.465385625e-04	6.135016834e-11
-1.450000000e-02	1.896434451e-01	-2.446103158e-04	2.597300896e-11
-1.460000000e-02	1.896434423e-01	-2.426820693e-04	3.753479165e-11
-1.470000000e-02	1.896434394e-01	-2.407538230e-04	5.901418869e-11
-1.480000000e-02	1.896434365e-01	-2.388255769e-04	1.610166672e-11
-1.490000000e-02	1.896434335e-01	-2.368973310e-04	9.413217824e-12
-1.500000000e-02	1.896434304e-01	-2.349690853e-04	2.643590924e-11
-1.510000000e-02	1.896434273e-01	-2.330408399e-04	9.994453675e-12
-1.520000000e-02	1.896434241e-01	-2.311125946e-04	7.033718726e-12
-1.530000000e-02	1.896434209e-01	-2.291843495e-04	3.748657450e-11
-1.540000000e-02	1.896434176e-01	-2.272561047e-04	1.422357915e-11
-1.550000000e-02	1.896434142e-01	-2.253278601e-04	1.654115712e-11
-1.560000000e-02	1.896434108e-01	-2.233996157e-04	1.065117271e-11
-1.570000000e-02	1.896434074e-01	-2.214713715e-04	1.891790114e-11
-1.580000000e-02	1.896434038e-01	-2.195431276e-04	1.622027169e-11
-1.590000000e-02	1.896434002e-01	-2.176148839e-04	1.337707943e-11
-1.600000000e-02	1.896433966e-01	-2.156866404e-04	1.470678884e-11
-1.610000000e-02	1.896433929e-01	-2.137583972e-04	1.949698233e-11
-1.620000000e-02	1.896433891e-01	-2.118301542e-04	1.348368204e-11
-1.630000000e-02	1.896433853e-01	-2.099019114e-04	1.980788980e-11
-1.640000000e-02	1.896433814e-01	-2.079736689e-04	9.935571861e-12
-1.650000000e-02	1.896433775e-01	-2.060454267e-04	3.578356879e-11
-1.660000000e-02	1.896433735e-01	-2.041171847e-04	1.244757413e-10
-1.670000000e-02	1.896433694e-01	-2.021889429e-04	3.048104962e-11
-1.680000000e-02	1.896433653e-01	-2.002607014e-04	1.904604210e-11
-1.690000000e-02	1.896433611e-01	-1.983324602e-04	1.365952402e-11
-1.700000000e-02	1.896433569e-01	-1.964042193e-04	1.175911544e-11
-1.710000000e-02	1.896433526e-01	-1.944759786e-04	8.823975604e-12
-1.720000000e-02	1.896433482e-01	-1.925477381e-04	9.647951045e-12
-1.730000000e-02	1.896433438e-01	-1.906194980e-04	1.076511648e-11
-1.740000000e-02	1.896433394e-01	-1.886912581e-04	1.186413694e-11
-1.750000000e-02	1.896433348e-01	-1.867630185e-04	1.216498683e-11
-1.760000000e-02	1.896433302e-01	-1.848347792e-04	1.190142043e-11
-1.770000000e-02	1.896433256e-01	-1.829065402e-04	1.690455354e-11
-1.780000000e-02	1.896433209e-01	-1.809783015e-04	2.169642711e-11
-1.790000000e-02	1.896433161e-01	-1.790500630e-04	6.770996345e-12
-1.800000000e-02	1.896433113e-01	-1.771218249e-04	9.260013087e-12
-1.810000000e-02	1.896433064e-01	-1.751935870e-04	1.893372441e-11
-1.820000000e-02	1.896433015e-01	-1.732653495e-04	1.669753668e-11
-1.830000000e-02	1.896432965e-01	-1.713371122e-04	1.493209519e-11
-1.840000000e-02	1.896432914e-01	-1.694088753e-04	2.311696288e-11
-1.850000000e-02	1.896432863e-01	-1.674806386e-04	9.953552892e-12
-1.860000000e-02	1.896432811e-01	-1.655524023e-04	1.027219966e-11
-1.870000000e-02	1.896432759e-01	-1.636241663e-04	8.263582876e-12
-1.880000000e-02	1.896432706e-01	-1.616959306e-04	1.718807586e-11
-1.890000000e-02	1.896432652e-01	-1.597676953e-04	3.100598372e-11
-1.900000000e-02	1.896432598e-01	-1.578394602e-04	9.341950673e-12
-1.910000000e-02	1.896432544e-01	-1.559112255e-04	8.305604826e-12
-1.920000000e-02	1.896432488e-01	-1.539829911e-04	1.719600781e-11
-1.930000000e-02	1.896432433e-01	-1.520547571e-04	7.693694448e-12
-1.940000000e-02	1.896432376e-01	-1.501265234e-04	1.631678161e-11
-1.950000000e-02	1.896432319e-01	-1.481982900e-04	6.372346081e-12
-1.960000000e-02	1.896432261e-01	-1.462700569e-04	2.068447000e-11
-1.970000000e-02	1.896432203e-01	-1.443418243e-04	4.926148869e-12
-1.980000000e-02	1.896432144e-01	-1.424135919e-04	8.513452862e-12
-1.990000000e-02	1.896432085e-01	-1.404853599e-04	8.943680919e-12
-2.000000000e-02	1.896432025e-01	-1.385571283e-04	1.386190677e-11
-2.010000000e-02	1.896431964e-01	-1.366288970e-04	7.609069818e-12
-2.020000000e-02	1.896431903e-01	-1.347006661e-04	1.354055299e-11
-2.030000000e-02	1.896431842e-01	-1.327724356e-04	3.842160408e-11
-2.040000000e-02	1.896431779e-01	-1.308442054e-04	1.074288461e-11
-2.050000000e-02	1.896431716e-01	-1.289159755e-04	1.507334125e-11
-2.060000000e-02	1.896431653e-01	-1.269877461e-04	2.503529349e-11
-2.070000000e-02	1.896431589e-01	-1.250595170e-04	2.075027736e-11
-2.080000000e-02	1.896431524e-01	-1.231312883e-04	3.538868541e-11
-2.090000000e-02	1.896431459e-01	-1.212030600e-04	1.078310542e-11
-2.100000000e-02	1.896431393e-01	-1.192748321e-04	1.175222384e-11
-2.110000000e-02	1.896431326e-01	-1.173466045e-04	1.136459123e-11
-2.120000000e-02	1.896431259e-01	-1.154183774e-04	2.302026164e-11
-2.130000000e-02	1.896431192e-01	-1.134901506e-04	1.675169184e-11
-2.140000000e-02	1.896431124e-01	-1.115619243e-04	1.007974737e-11
-2.150000000e-02	1.896431055e-01	-1.096336983e-04	1.132630308e-11
-2.160000000e-02	1.896430985e-01	-1.077054727e-04	1.134734907e-11
-2.170000000e-02	1.896430915e-01	-1.057772476e-04	1.071568254e-11
-2.180000000e-02	1.896430845e-01	-1.038490228e-04	3.474901070e-11
-2.190000000e-02	1.896430774e-01	-1.019207985e-04	1.743777676e-11
-2.200000000e-02	1.896430702e-01	-9.999257457e-05	7.204077776e-12
-2.210000000e-02	1.896430630e-01	-9.806435107e-05	9.316764164e-12
-2.220000000e-02	1.896430557e-01	-9.613612797e-05	1.160307838e-11
-2.230000000e-02	1.896430483e-01	-9.420790531e-05	9.895193896e-12
-2.240000000e-02	1.896430409e-01	-9.227968307e-05	8.778219174e-12
-2.250000000e-02	1.896430334e-01	-9.035146125e-05	1.058358709e-11
-2.260000000e-02	1.896430259e-01	-8.842323988e-05	1.169323471e-11
-2.270000000e-02	1.896430183e-01	-8.649501893e-05	1.438379787e-11
-2.280000000e-02	1.896430107e-01	-8.456679842e-05	1.492856473e-11
-2.290000000e-02	1.896430030e-01	-8.263857835e-05	1.629162031e-11
-2.300000000e-02	1.896429952e-01	-8.071035873e-05	1.299148771e-11
-2.310000000e-02	1.896429874e-01	-7.878213956e-05	2.824434984e-11
-2.320000000e-02	1.896429795e-01	-7.685392082e-05	1.140774623e-11
-2.330000000e-02	1.896429716e-01	-7.492570255e-05	2.027388386e-11
-2.340000000e-02	1.896429636e-01	-7.299748473e-05	1.173139547e-11
-2.350000000e-02	1.896429555e-01	-7.106926737e-05	1.165920040e-11
-2.360000000e-02	1.896429474e-01	-6.914105047e-05	8.146023235e-12
-2.370000000e-02	1.896429392e-01	-6.721283403e-05	1.340253163e-11
-2.380000000e-02	1.896429310e-01	-6.528461806e-05	6.950861475e-12
-2.390000000e-02	1.896429227e-01	-6.335640257e-05	8.598383233e-12
-2.400000000e-02	1.896429144e-01	-6.142818754e-05	1.469323184e-11
-2.410000000e-02	1.896429060e-01	-5.949997300e-05	9.336985624e-12
-2.420000000e-02	1.896428975e-01	-5.757175893e-05	5.867612164e-12
-2.430000000e-02	1.896428890e-01	-5.564354534e-05	1.235545179e-11
-2.440000000e-02	1.896428804e-01	-5.371533224e-05	1.220870777e-11
-2.450000000e-02	1.896428717e-01	-5.178711964e-05	7.409823362e-11
-2.460000000e-02	1.896428630e-01	-4.985890751e-05	5.544990780e-12
-2.470000000e-02	1.896428543e-01	-4.793069588e-05	2.542049496e-11
-2.480000000e-02	1.896428455e-01	-4.600248475e-05	1.653869833e-11
-2.490000000e-02	1.896428366e-01	-4.407427412e-05	1.458053006e-11
-2.500000000e-02	1.896428277e-01	-4.214606399e-05	1.033796412e-11
-2.510000000e-02	1.896428187e-01	-4.021785438e-05	6.984427611e-12
-2.520000000e-02	1.896428096e-01	-3.828964527e-05	5.064686550e-12
-2.530000000e-02	1.896428005e-01	-3.636143666e-05	3.006755009e-11
-2.540000000e-02	1.896427913e-01	-3.443322858e-05	9.297711333e-12
-2.550000000e-02	1.896427821e-01	-3.250502102e-05	1.012021403e-11
-2.560000000e-02	1.896427728e-01	-3.057681398e-05	2.563255491e-11
-2.570000000e-02	1.896427635e-01	-2.864860745e-05	2.868195056e-11
-2.580000000e-02	1.896427540e-01	-2.672040146e-05	1.010451489e-11
-2.590000000e-02	1.896427446e-01	-2.479219600e-05	5.809069691e-12
-2.600000000e-02	1.896427351e-01	-2.286399107e-05	1.578692038e-11
-2.610000000e-02	1.896427255e-01	-2.093578668e-05	1.299659606e-11
-2.620000000e-02	1.896427158e-01	-1.900758282e-05	8.634166233e-12
-2.630000000e-02	1.896427061e-01	-1.707937951e-05	3.457199313e-11
-2.640000000e-02	1.896426964e-01	-1.515117674e-05	1.284698140e-11
-2.650000000e-02	1.896426866e-01	-1.322297453e-05	2.636786331e-11
-2.660000000e-02	1.896426767e-01	-1.129477286e-05	1.220632955e-11
-2.670000000e-02	1.896426667e-01	-9.366571739e-06	1.915725494e-11
-2.680000000e-02	1.896426567e-01	-7.438371183e-06	2.471736638e-11
-2.690000000e-02	1.896426467e-01	-5.510171185e-06	1.298842410e-11
-2.700000000e-02	1.896426366e-01	-3.581971745e-06	2.144016244e-11
-2.710000000e-02	1.896426264e-01	-1.653772879e-06	1.125257819e-11
-2.720000000e-02	1.896426162e-01	2.744254213e-07	5.960189144e-12
-2.730000000e-02	1.896426059e-01	2.202623149e-06	1.927611807e-11
-2.740000000e-02	1.896425955e-01	4.130820307e-06	9.885151177e-12
-2.750000000e-02	1.896425851e-01	6.059016881e-06	2.859871939e-11
-2.760000000e-02	1.896425747e-01	7.987212877e-06	9.832609420e-12
-2.770000000e-02	1.896425642e-01	9.915408284e-06	1.391223998e-11
-2.780000000e-02	1.896425536e-01	1.184360311e-05	1.344464434e-11
-2.790000000e-02	1.896425429e-01	1.377179735e-05	7.817376456e-12
-2.800000000e-02	1.896425322e-01	1.569999099e-05	2.073308540e-11
-2.810000000e-02	1.896425215e-01	1.762818403e-05	1.444475624e-11
-2.820000000e-02	1.896425107e-01	1.955637648e-05	6.514601187e-12
-2.830000000e-02	1.896424998e-01	2.148456833e-05	2.004892506e-11
-2.840000000e-02	1.896424888e-01	2.341275957e-05	3.177728658e-11
-2.850000000e-02	1.896424779e-01	2.534095021e-05	7.736895993e-12
-2.860000000e-02	1.896424668e-01	2.726914023e-05	7.513733001e-12
-2.870000000e-02	1.896424557e-01	2.919732964e-05	1.198017250e-11
-2.880000000e-02	1.896424445e-01	3.112551843e-05	1.730423862e-11
-2.890000000e-02	1.896424333e-01	3.305370661e-05	1.250800173e-11
-2.900000000e-02	1.896424220e-01	3.498189416e-05	2.201821974e-11
-2.910000000e-02	1.896424107e-01	3.691008108e-05	5.919332074e-11
-2.920000000e-02	1.896423993e-01	3.883826738e-05	4.489143240e-11
-2.930000000e-02	1.896423878e-01	4.076645305e-05	8.270021623e-12
-2.940000000e-02	1.896423763e-01	4.269463807e-05	3.627763367e-11
-2.950000000e-02	1.896423647e-01	4.462282248e-05	1.745407636e-11
-2.960000000e-02	1.896423530e-01	4.655100623e-05	1.568966470e-11
-2.970000000e-02	1.896423413e-01	4.847918934e-05	1.140540195e-11
-2.980000000e-02	1.896423296e-01	5.040737180e-05	2.496518554e-11
-2.990000000e-02	1.896423178e-01	5.233555362e-05	2.628716046e-11
-3.000000000e-02	1.896423059e-01	5.426373478e-05	7.963866665e-12
