# Im(epsi1)     Re(omega/c)      Im(omega/c)      Eq(det).Opt det CON kz, R=0.5 \mum, mu_c=0.3, Re(epsi1)=3.90solve_det_conkz_vs_kz.py
0.000000000e+00	1.896525178e-01	-5.242315538e-04	1.310003891e-11
-1.000000000e-04	1.896525235e-01	-5.223032651e-04	1.004988661e-11
-2.000000000e-04	1.896525292e-01	-5.203749761e-04	9.831334432e-12
-3.000000000e-04	1.896525347e-01	-5.184466868e-04	1.476863360e-11
-4.000000000e-04	1.896525403e-01	-5.165183974e-04	8.535885077e-12
-5.000000000e-04	1.896525457e-01	-5.145901077e-04	5.527344362e-12
-6.000000000e-04	1.896525511e-01	-5.126618178e-04	8.531827687e-12
-7.000000000e-04	1.896525565e-01	-5.107335276e-04	2.119606744e-11
-8.000000000e-04	1.896525617e-01	-5.088052373e-04	1.193268674e-11
-9.000000000e-04	1.896525670e-01	-5.068769467e-04	6.032929150e-12
-1.000000000e-03	1.896525721e-01	-5.049486559e-04	9.170136538e-12
-1.100000000e-03	1.896525772e-01	-5.030203649e-04	7.192018429e-12
-1.200000000e-03	1.896525823e-01	-5.010920737e-04	1.042055237e-11
-1.300000000e-03	1.896525873e-01	-4.991637823e-04	1.057563342e-11
-1.400000000e-03	1.896525922e-01	-4.972354907e-04	1.295629088e-11
-1.500000000e-03	1.896525971e-01	-4.953071989e-04	2.061289300e-11
-1.600000000e-03	1.896526019e-01	-4.933789069e-04	1.075774372e-11
-1.700000000e-03	1.896526067e-01	-4.914506147e-04	6.070962069e-12
-1.800000000e-03	1.896526114e-01	-4.895223224e-04	5.086134150e-11
-1.900000000e-03	1.896526160e-01	-4.875940298e-04	1.044388709e-11
-2.000000000e-03	1.896526206e-01	-4.856657371e-04	4.046104989e-11
-2.100000000e-03	1.896526251e-01	-4.837374441e-04	1.883148672e-11
-2.200000000e-03	1.896526296e-01	-4.818091511e-04	7.540965652e-11
-2.300000000e-03	1.896526340e-01	-4.798808578e-04	2.367938193e-11
-2.400000000e-03	1.896526383e-01	-4.779525643e-04	1.030877293e-11
-2.500000000e-03	1.896526426e-01	-4.760242707e-04	9.873027520e-12
-2.600000000e-03	1.896526468e-01	-4.740959769e-04	1.174805144e-11
-2.700000000e-03	1.896526510e-01	-4.721676830e-04	2.763621332e-11
-2.800000000e-03	1.896526551e-01	-4.702393889e-04	1.251536406e-11
-2.900000000e-03	1.896526592e-01	-4.683110946e-04	1.207926724e-11
-3.000000000e-03	1.896526632e-01	-4.663828002e-04	1.116269771e-11
-3.100000000e-03	1.896526671e-01	-4.644545057e-04	2.665116871e-11
-3.200000000e-03	1.896526710e-01	-4.625262110e-04	1.731846342e-11
-3.300000000e-03	1.896526748e-01	-4.605979161e-04	1.014221658e-11
-3.400000000e-03	1.896526785e-01	-4.586696211e-04	1.219765699e-11
-3.500000000e-03	1.896526822e-01	-4.567413260e-04	4.199505623e-11
-3.600000000e-03	1.896526859e-01	-4.548130307e-04	2.252991259e-11
-3.700000000e-03	1.896526895e-01	-4.528847353e-04	2.007465126e-11
-3.800000000e-03	1.896526930e-01	-4.509564398e-04	1.133174973e-11
-3.900000000e-03	1.896526964e-01	-4.490281442e-04	1.931641334e-11
-4.000000000e-03	1.896526998e-01	-4.470998484e-04	2.208438355e-11
-4.100000000e-03	1.896527032e-01	-4.451715525e-04	1.513106642e-11
-4.200000000e-03	1.896527065e-01	-4.432432565e-04	3.353369840e-11
-4.300000000e-03	1.896527097e-01	-4.413149604e-04	1.596320051e-11
-4.400000000e-03	1.896527129e-01	-4.393866641e-04	2.301686654e-11
-4.500000000e-03	1.896527160e-01	-4.374583678e-04	1.449882889e-11
-4.600000000e-03	1.896527190e-01	-4.355300713e-04	2.369095646e-11
-4.700000000e-03	1.896527220e-01	-4.336017748e-04	1.464368762e-11
-4.800000000e-03	1.896527250e-01	-4.316734781e-04	1.012390616e-11
-4.900000000e-03	1.896527278e-01	-4.297451814e-04	3.259849503e-11
-5.000000000e-03	1.896527307e-01	-4.278168845e-04	8.206175597e-12
-5.100000000e-03	1.896527334e-01	-4.258885876e-04	8.073259671e-12
-5.200000000e-03	1.896527361e-01	-4.239602906e-04	2.222125101e-11
-5.300000000e-03	1.896527388e-01	-4.220319935e-04	7.857901694e-12
-5.400000000e-03	1.896527413e-01	-4.201036963e-04	1.877528425e-11
-5.500000000e-03	1.896527439e-01	-4.181753991e-04	1.543428155e-11
-5.600000000e-03	1.896527463e-01	-4.162471017e-04	1.127716540e-11
-5.700000000e-03	1.896527487e-01	-4.143188043e-04	9.012144712e-12
-5.800000000e-03	1.896527511e-01	-4.123905068e-04	2.180118932e-11
-5.900000000e-03	1.896527534e-01	-4.104622093e-04	1.263660808e-11
-6.000000000e-03	1.896527556e-01	-4.085339117e-04	4.641425452e-12
-6.100000000e-03	1.896527578e-01	-4.066056140e-04	4.698960384e-11
-6.200000000e-03	1.896527599e-01	-4.046773163e-04	2.107617627e-11
-6.300000000e-03	1.896527619e-01	-4.027490185e-04	1.559133449e-11
-6.400000000e-03	1.896527639e-01	-4.008207207e-04	1.096123311e-11
-6.500000000e-03	1.896527659e-01	-3.988924228e-04	1.019776046e-11
-6.600000000e-03	1.896527677e-01	-3.969641249e-04	2.117878251e-11
-6.700000000e-03	1.896527696e-01	-3.950358269e-04	7.186372029e-12
-6.800000000e-03	1.896527713e-01	-3.931075289e-04	1.779859243e-11
-6.900000000e-03	1.896527730e-01	-3.911792308e-04	7.282125866e-12
-7.000000000e-03	1.896527747e-01	-3.892509328e-04	2.084118260e-11
-7.100000000e-03	1.896527762e-01	-3.873226346e-04	1.349440484e-11
-7.200000000e-03	1.896527778e-01	-3.853943365e-04	1.259992349e-11
-7.300000000e-03	1.896527792e-01	-3.834660384e-04	1.572684852e-11
-7.400000000e-03	1.896527806e-01	-3.815377402e-04	2.424849547e-11
-7.500000000e-03	1.896527820e-01	-3.796094420e-04	1.139165882e-11
-7.600000000e-03	1.896527833e-01	-3.776811437e-04	1.501695048e-11
-7.700000000e-03	1.896527845e-01	-3.757528455e-04	2.148504325e-11
-7.800000000e-03	1.896527857e-01	-3.738245473e-04	1.872772249e-11
-7.900000000e-03	1.896527868e-01	-3.718962490e-04	5.918623004e-11
-8.000000000e-03	1.896527878e-01	-3.699679508e-04	1.579292935e-11
-8.100000000e-03	1.896527888e-01	-3.680396525e-04	8.200121625e-12
-8.200000000e-03	1.896527898e-01	-3.661113543e-04	1.449003818e-11
-8.300000000e-03	1.896527906e-01	-3.641830560e-04	1.624710073e-11
-8.400000000e-03	1.896527915e-01	-3.622547578e-04	1.014554915e-11
-8.500000000e-03	1.896527922e-01	-3.603264596e-04	1.640401959e-11
-8.600000000e-03	1.896527929e-01	-3.583981614e-04	1.074620776e-11
-8.700000000e-03	1.896527936e-01	-3.564698632e-04	9.356274276e-12
-8.800000000e-03	1.896527942e-01	-3.545415650e-04	3.773354852e-11
-8.900000000e-03	1.896527947e-01	-3.526132668e-04	6.968325849e-12
-9.000000000e-03	1.896527951e-01	-3.506849687e-04	7.666557673e-12
-9.100000000e-03	1.896527956e-01	-3.487566706e-04	8.511574581e-12
-9.200000000e-03	1.896527959e-01	-3.468283726e-04	5.259553877e-12
-9.300000000e-03	1.896527962e-01	-3.449000745e-04	2.086563329e-11
-9.400000000e-03	1.896527964e-01	-3.429717766e-04	2.893240286e-10
-9.500000000e-03	1.896527966e-01	-3.410434786e-04	5.196313298e-12
-9.600000000e-03	1.896527967e-01	-3.391151807e-04	1.901317192e-11
-9.700000000e-03	1.896527968e-01	-3.371868828e-04	1.243393950e-11
-9.800000000e-03	1.896527968e-01	-3.352585850e-04	1.584869219e-11
-9.900000000e-03	1.896527967e-01	-3.333302873e-04	1.172187684e-11
-1.000000000e-02	1.896527966e-01	-3.314019896e-04	1.183362582e-11
-1.010000000e-02	1.896527964e-01	-3.294736919e-04	1.344695758e-11
-1.020000000e-02	1.896527962e-01	-3.275453943e-04	6.510280140e-11
-1.030000000e-02	1.896527959e-01	-3.256170968e-04	8.989237512e-12
-1.040000000e-02	1.896527955e-01	-3.236887994e-04	6.434762518e-11
-1.050000000e-02	1.896527951e-01	-3.217605020e-04	8.438219077e-11
-1.060000000e-02	1.896527946e-01	-3.198322047e-04	8.030454676e-12
-1.070000000e-02	1.896527941e-01	-3.179039075e-04	1.955685639e-11
-1.080000000e-02	1.896527935e-01	-3.159756103e-04	2.354012161e-11
-1.090000000e-02	1.896527928e-01	-3.140473133e-04	1.604692861e-11
-1.100000000e-02	1.896527921e-01	-3.121190163e-04	8.770773248e-12
-1.110000000e-02	1.896527914e-01	-3.101907194e-04	5.967593280e-12
-1.120000000e-02	1.896527905e-01	-3.082624226e-04	6.211226831e-12
-1.130000000e-02	1.896527897e-01	-3.063341259e-04	1.352494410e-11
-1.140000000e-02	1.896527887e-01	-3.044058293e-04	7.409960966e-12
-1.150000000e-02	1.896527877e-01	-3.024775328e-04	6.260198064e-11
-1.160000000e-02	1.896527866e-01	-3.005492364e-04	2.585729473e-11
-1.170000000e-02	1.896527855e-01	-2.986209401e-04	2.004161164e-11
-1.180000000e-02	1.896527843e-01	-2.966926439e-04	2.088373999e-11
-1.190000000e-02	1.896527831e-01	-2.947643478e-04	8.046479612e-11
-1.200000000e-02	1.896527818e-01	-2.928360519e-04	1.136652132e-11
-1.210000000e-02	1.896527805e-01	-2.909077560e-04	1.495979310e-11
-1.220000000e-02	1.896527790e-01	-2.889794603e-04	1.092419467e-11
-1.230000000e-02	1.896527776e-01	-2.870511647e-04	1.735874881e-11
-1.240000000e-02	1.896527760e-01	-2.851228693e-04	8.330437076e-12
-1.250000000e-02	1.896527744e-01	-2.831945739e-04	1.780902372e-11
-1.260000000e-02	1.896527728e-01	-2.812662787e-04	2.567311432e-11
-1.270000000e-02	1.896527711e-01	-2.793379837e-04	8.336645928e-12
-1.280000000e-02	1.896527693e-01	-2.774096887e-04	1.509730230e-11
-1.290000000e-02	1.896527675e-01	-2.754813939e-04	1.069144042e-11
-1.300000000e-02	1.896527656e-01	-2.735530993e-04	7.785526851e-11
-1.310000000e-02	1.896527637e-01	-2.716248048e-04	3.632456528e-11
-1.320000000e-02	1.896527617e-01	-2.696965105e-04	1.015289846e-11
-1.330000000e-02	1.896527596e-01	-2.677682163e-04	1.329682869e-11
-1.340000000e-02	1.896527575e-01	-2.658399223e-04	1.154521466e-11
-1.350000000e-02	1.896527553e-01	-2.639116284e-04	1.126751329e-11
-1.360000000e-02	1.896527531e-01	-2.619833347e-04	1.340218402e-11
-1.370000000e-02	1.896527508e-01	-2.600550412e-04	1.101014456e-11
-1.380000000e-02	1.896527484e-01	-2.581267478e-04	1.912334378e-11
-1.390000000e-02	1.896527460e-01	-2.561984546e-04	1.112432174e-11
-1.400000000e-02	1.896527435e-01	-2.542701616e-04	9.904676329e-12
-1.410000000e-02	1.896527410e-01	-2.523418687e-04	1.203365493e-11
-1.420000000e-02	1.896527384e-01	-2.504135761e-04	1.678532364e-11
-1.430000000e-02	1.896527358e-01	-2.484852836e-04	8.270359112e-12
-1.440000000e-02	1.896527331e-01	-2.465569913e-04	1.332430059e-11
-1.450000000e-02	1.896527303e-01	-2.446286992e-04	8.955503109e-12
-1.460000000e-02	1.896527275e-01	-2.427004073e-04	9.003094427e-12
-1.470000000e-02	1.896527246e-01	-2.407721156e-04	9.121212045e-12
-1.480000000e-02	1.896527216e-01	-2.388438241e-04	1.847560816e-11
-1.490000000e-02	1.896527186e-01	-2.369155328e-04	5.238872181e-12
-1.500000000e-02	1.896527156e-01	-2.349872417e-04	6.223771995e-10
-1.510000000e-02	1.896527125e-01	-2.330589508e-04	1.238036863e-11
-1.520000000e-02	1.896527093e-01	-2.311306601e-04	3.527327928e-11
-1.530000000e-02	1.896527060e-01	-2.292023696e-04	1.970939265e-11
-1.540000000e-02	1.896527028e-01	-2.272740793e-04	1.003579435e-11
-1.550000000e-02	1.896526994e-01	-2.253457893e-04	7.937179715e-12
-1.560000000e-02	1.896526960e-01	-2.234174995e-04	1.774627626e-11
-1.570000000e-02	1.896526925e-01	-2.214892099e-04	1.522018708e-11
-1.580000000e-02	1.896526890e-01	-2.195609205e-04	2.188263691e-11
-1.590000000e-02	1.896526854e-01	-2.176326314e-04	5.209279117e-12
-1.600000000e-02	1.896526818e-01	-2.157043425e-04	6.315239882e-12
-1.610000000e-02	1.896526780e-01	-2.137760539e-04	2.102736292e-11
-1.620000000e-02	1.896526743e-01	-2.118477655e-04	1.098799337e-11
-1.630000000e-02	1.896526705e-01	-2.099194773e-04	1.293340413e-11
-1.640000000e-02	1.896526666e-01	-2.079911894e-04	4.802289729e-11
-1.650000000e-02	1.896526626e-01	-2.060629017e-04	1.435004781e-11
-1.660000000e-02	1.896526586e-01	-2.041346143e-04	7.668394236e-12
-1.670000000e-02	1.896526546e-01	-2.022063271e-04	1.807680281e-11
-1.680000000e-02	1.896526505e-01	-2.002780402e-04	1.412959246e-11
-1.690000000e-02	1.896526463e-01	-1.983497536e-04	3.206994861e-11
-1.700000000e-02	1.896526420e-01	-1.964214672e-04	8.953964413e-12
-1.710000000e-02	1.896526378e-01	-1.944931811e-04	9.251195543e-12
-1.720000000e-02	1.896526334e-01	-1.925648952e-04	7.856828833e-12
-1.730000000e-02	1.896526290e-01	-1.906366097e-04	4.169988110e-11
-1.740000000e-02	1.896526245e-01	-1.887083244e-04	8.165201023e-12
-1.750000000e-02	1.896526200e-01	-1.867800394e-04	1.892663516e-11
-1.760000000e-02	1.896526154e-01	-1.848517546e-04	1.431091792e-11
-1.770000000e-02	1.896526108e-01	-1.829234702e-04	1.298483299e-11
-1.780000000e-02	1.896526060e-01	-1.809951860e-04	1.701586475e-11
-1.790000000e-02	1.896526013e-01	-1.790669022e-04	2.020373782e-11
-1.800000000e-02	1.896525965e-01	-1.771386186e-04	8.203601798e-12
-1.810000000e-02	1.896525916e-01	-1.752103353e-04	8.698611370e-12
-1.820000000e-02	1.896525866e-01	-1.732820524e-04	4.397817654e-12
-1.830000000e-02	1.896525816e-01	-1.713537697e-04	1.946887145e-11
-1.840000000e-02	1.896525766e-01	-1.694254873e-04	7.645875181e-12
-1.850000000e-02	1.896525715e-01	-1.674972053e-04	8.135952230e-11
-1.860000000e-02	1.896525663e-01	-1.655689235e-04	8.456801974e-12
-1.870000000e-02	1.896525611e-01	-1.636406421e-04	9.969267838e-12
-1.880000000e-02	1.896525558e-01	-1.617123610e-04	6.301676066e-12
-1.890000000e-02	1.896525504e-01	-1.597840802e-04	1.069503690e-11
-1.900000000e-02	1.896525450e-01	-1.578557998e-04	2.419097800e-11
-1.910000000e-02	1.896525395e-01	-1.559275196e-04	1.458542071e-11
-1.920000000e-02	1.896525340e-01	-1.539992398e-04	2.770374493e-11
-1.930000000e-02	1.896525284e-01	-1.520709604e-04	2.038248734e-11
-1.940000000e-02	1.896525228e-01	-1.501426812e-04	2.413835399e-11
-1.950000000e-02	1.896525171e-01	-1.482144024e-04	1.305183426e-11
-1.960000000e-02	1.896525113e-01	-1.462861240e-04	1.332924111e-11
-1.970000000e-02	1.896525055e-01	-1.443578459e-04	1.620092347e-11
-1.980000000e-02	1.896524996e-01	-1.424295681e-04	6.959050934e-12
-1.990000000e-02	1.896524937e-01	-1.405012907e-04	1.214323407e-11
-2.000000000e-02	1.896524877e-01	-1.385730137e-04	1.178741168e-11
-2.010000000e-02	1.896524816e-01	-1.366447370e-04	1.384568007e-11
-2.020000000e-02	1.896524755e-01	-1.347164606e-04	6.434044118e-12
-2.030000000e-02	1.896524693e-01	-1.327881846e-04	9.342419141e-12
-2.040000000e-02	1.896524631e-01	-1.308599090e-04	1.890619385e-11
-2.050000000e-02	1.896524568e-01	-1.289316338e-04	1.920049853e-11
-2.060000000e-02	1.896524504e-01	-1.270033589e-04	7.768002582e-12
-2.070000000e-02	1.896524440e-01	-1.250750844e-04	6.649861322e-12
-2.080000000e-02	1.896524376e-01	-1.231468103e-04	1.564112762e-11
-2.090000000e-02	1.896524310e-01	-1.212185366e-04	9.340800525e-12
-2.100000000e-02	1.896524245e-01	-1.192902632e-04	9.209534786e-12
-2.110000000e-02	1.896524178e-01	-1.173619903e-04	1.152856985e-11
-2.120000000e-02	1.896524111e-01	-1.154337177e-04	3.833872000e-11
-2.130000000e-02	1.896524043e-01	-1.135054455e-04	8.791194862e-12
-2.140000000e-02	1.896523975e-01	-1.115771737e-04	1.185334111e-11
-2.150000000e-02	1.896523906e-01	-1.096489024e-04	5.298517723e-11
-2.160000000e-02	1.896523837e-01	-1.077206314e-04	8.481882687e-12
-2.170000000e-02	1.896523767e-01	-1.057923608e-04	2.735032305e-11
-2.180000000e-02	1.896523697e-01	-1.038640906e-04	1.897637522e-10
-2.190000000e-02	1.896523625e-01	-1.019358209e-04	1.153647368e-11
-2.200000000e-02	1.896523554e-01	-1.000075515e-04	1.150808647e-11
-2.210000000e-02	1.896523481e-01	-9.807928260e-05	5.705166554e-12
-2.220000000e-02	1.896523408e-01	-9.615101409e-05	6.677756181e-12
-2.230000000e-02	1.896523335e-01	-9.422274600e-05	1.012930750e-11
-2.240000000e-02	1.896523261e-01	-9.229447834e-05	9.954623194e-12
-2.250000000e-02	1.896523186e-01	-9.036621110e-05	2.421182539e-11
-2.260000000e-02	1.896523111e-01	-8.843794431e-05	3.950993982e-11
-2.270000000e-02	1.896523035e-01	-8.650967794e-05	9.599199739e-12
-2.280000000e-02	1.896522959e-01	-8.458141202e-05	4.046647167e-11
-2.290000000e-02	1.896522882e-01	-8.265314652e-05	1.378314177e-11
-2.300000000e-02	1.896522804e-01	-8.072488148e-05	1.469716043e-11
-2.310000000e-02	1.896522726e-01	-7.879661688e-05	8.107494627e-12
-2.320000000e-02	1.896522647e-01	-7.686835274e-05	6.473199659e-11
-2.330000000e-02	1.896522568e-01	-7.494008904e-05	7.943707514e-12
-2.340000000e-02	1.896522488e-01	-7.301182580e-05	9.921833143e-12
-2.350000000e-02	1.896522407e-01	-7.108356301e-05	1.345986378e-11
-2.360000000e-02	1.896522326e-01	-6.915530070e-05	2.842774522e-11
-2.370000000e-02	1.896522244e-01	-6.722703884e-05	2.151471305e-11
-2.380000000e-02	1.896522162e-01	-6.529877745e-05	1.252308616e-11
-2.390000000e-02	1.896522079e-01	-6.337051653e-05	8.978332572e-12
-2.400000000e-02	1.896521996e-01	-6.144225608e-05	1.954076399e-11
-2.410000000e-02	1.896521912e-01	-5.951399612e-05	1.119796076e-11
-2.420000000e-02	1.896521827e-01	-5.758573663e-05	2.083906232e-11
-2.430000000e-02	1.896521742e-01	-5.565747762e-05	1.740551852e-11
-2.440000000e-02	1.896521656e-01	-5.372921910e-05	1.936868553e-11
-2.450000000e-02	1.896521569e-01	-5.180096107e-05	1.060341081e-11
-2.460000000e-02	1.896521482e-01	-4.987270352e-05	3.516238735e-11
-2.470000000e-02	1.896521395e-01	-4.794444648e-05	9.827177375e-12
-2.480000000e-02	1.896521307e-01	-4.601618993e-05	1.613288839e-11
-2.490000000e-02	1.896521218e-01	-4.408793388e-05	8.610466249e-12
-2.500000000e-02	1.896521128e-01	-4.215967833e-05	2.015038128e-11
-2.510000000e-02	1.896521038e-01	-4.023142329e-05	9.928536555e-12
-2.520000000e-02	1.896520948e-01	-3.830316876e-05	1.434483150e-11
-2.530000000e-02	1.896520857e-01	-3.637491474e-05	1.988184075e-11
-2.540000000e-02	1.896520765e-01	-3.444666123e-05	1.651856374e-11
-2.550000000e-02	1.896520673e-01	-3.251840825e-05	8.243096595e-12
-2.560000000e-02	1.896520580e-01	-3.059015578e-05	4.516268380e-12
-2.570000000e-02	1.896520486e-01	-2.866190385e-05	3.884418852e-11
-2.580000000e-02	1.896520392e-01	-2.673365243e-05	1.473999323e-11
-2.590000000e-02	1.896520298e-01	-2.480540155e-05	1.647359541e-11
-2.600000000e-02	1.896520202e-01	-2.287715119e-05	1.409115378e-11
-2.610000000e-02	1.896520107e-01	-2.094890137e-05	2.249941814e-11
-2.620000000e-02	1.896520010e-01	-1.902065210e-05	1.924901450e-11
-2.630000000e-02	1.896519913e-01	-1.709240337e-05	8.832959698e-12
-2.640000000e-02	1.896519816e-01	-1.516415518e-05	1.027974151e-11
-2.650000000e-02	1.896519717e-01	-1.323590754e-05	9.189384035e-12
-2.660000000e-02	1.896519619e-01	-1.130766045e-05	1.595152638e-11
-2.670000000e-02	1.896519519e-01	-9.379413909e-06	4.364753749e-12
-2.680000000e-02	1.896519419e-01	-7.451167931e-06	8.545449160e-12
-2.690000000e-02	1.896519319e-01	-5.522922508e-06	1.368611424e-11
-2.700000000e-02	1.896519218e-01	-3.594677657e-06	2.035482683e-11
-2.710000000e-02	1.896519116e-01	-1.666433362e-06	9.734515707e-12
-2.720000000e-02	1.896519014e-01	2.618103575e-07	1.285036654e-11
-2.730000000e-02	1.896518911e-01	2.190053508e-06	1.318515761e-11
-2.740000000e-02	1.896518807e-01	4.118296085e-06	1.796090399e-11
-2.750000000e-02	1.896518703e-01	6.046538084e-06	1.082937343e-11
-2.760000000e-02	1.896518599e-01	7.974779501e-06	1.315211985e-11
-2.770000000e-02	1.896518494e-01	9.903020337e-06	1.672132535e-11
-2.780000000e-02	1.896518388e-01	1.183126057e-05	6.176149761e-11
-2.790000000e-02	1.896518281e-01	1.375950024e-05	2.877564047e-11
-2.800000000e-02	1.896518174e-01	1.568773930e-05	1.122351697e-11
-2.810000000e-02	1.896518067e-01	1.761597777e-05	8.631751544e-12
-2.820000000e-02	1.896517959e-01	1.954421564e-05	1.241592266e-11
-2.830000000e-02	1.896517850e-01	2.147245291e-05	8.842373637e-12
-2.840000000e-02	1.896517740e-01	2.340068957e-05	9.396613110e-12
-2.850000000e-02	1.896517631e-01	2.532892563e-05	1.014983744e-11
-2.860000000e-02	1.896517520e-01	2.725716107e-05	1.677195023e-11
-2.870000000e-02	1.896517409e-01	2.918539591e-05	7.864639907e-12
-2.880000000e-02	1.896517297e-01	3.111363012e-05	1.243040560e-11
-2.890000000e-02	1.896517185e-01	3.304186372e-05	6.523258013e-12
-2.900000000e-02	1.896517072e-01	3.497009670e-05	1.084353492e-11
-2.910000000e-02	1.896516959e-01	3.689832904e-05	1.059417957e-11
-2.920000000e-02	1.896516845e-01	3.882656076e-05	7.986776494e-12
-2.930000000e-02	1.896516730e-01	4.075479185e-05	2.764648780e-11
-2.940000000e-02	1.896516615e-01	4.268302231e-05	1.426949075e-11
-2.950000000e-02	1.896516499e-01	4.461125212e-05	2.372077647e-11
-2.960000000e-02	1.896516383e-01	4.653948130e-05	8.439996007e-12
-2.970000000e-02	1.896516266e-01	4.846770983e-05	1.086077738e-11
-2.980000000e-02	1.896516148e-01	5.039593772e-05	1.506372547e-11
-2.990000000e-02	1.896516030e-01	5.232416496e-05	9.786301862e-12
-3.000000000e-02	1.896515911e-01	5.425239154e-05	1.676625718e-11
