# Im(epsi1)     Re(omega/c)      Im(omega/c)      Eq(det).Opt det CON kz, R=0.5 \mum, mu_c=0.3, Re(epsi1)=3.90solve_det_conkz_vs_kz.py
0.000000000e+00	1.896671817e-01	-5.242626602e-04	7.165079107e-12
-1.000000000e-04	1.896671874e-01	-5.223342994e-04	7.774667861e-11
-2.000000000e-04	1.896671930e-01	-5.204059385e-04	2.886733833e-11
-3.000000000e-04	1.896671986e-01	-5.184775773e-04	1.301153153e-11
-4.000000000e-04	1.896672041e-01	-5.165492159e-04	8.452621289e-12
-5.000000000e-04	1.896672096e-01	-5.146208542e-04	6.175618876e-11
-6.000000000e-04	1.896672150e-01	-5.126924923e-04	1.131743523e-11
-7.000000000e-04	1.896672203e-01	-5.107641302e-04	4.949485795e-12
-8.000000000e-04	1.896672256e-01	-5.088357679e-04	9.889972344e-12
-9.000000000e-04	1.896672308e-01	-5.069074054e-04	9.823292858e-12
-1.000000000e-03	1.896672360e-01	-5.049790427e-04	7.987833543e-12
-1.100000000e-03	1.896672411e-01	-5.030506797e-04	2.041533998e-11
-1.200000000e-03	1.896672462e-01	-5.011223165e-04	6.105151325e-12
-1.300000000e-03	1.896672512e-01	-4.991939532e-04	1.336019782e-11
-1.400000000e-03	1.896672561e-01	-4.972655896e-04	5.599642509e-11
-1.500000000e-03	1.896672610e-01	-4.953372259e-04	1.409697873e-11
-1.600000000e-03	1.896672658e-01	-4.934088619e-04	3.761761969e-11
-1.700000000e-03	1.896672705e-01	-4.914804978e-04	1.382060520e-11
-1.800000000e-03	1.896672752e-01	-4.895521334e-04	1.185333064e-11
-1.900000000e-03	1.896672799e-01	-4.876237689e-04	3.993569094e-11
-2.000000000e-03	1.896672845e-01	-4.856954042e-04	1.206646129e-11
-2.100000000e-03	1.896672890e-01	-4.837670393e-04	1.660080115e-11
-2.200000000e-03	1.896672934e-01	-4.818386743e-04	7.795550917e-12
-2.300000000e-03	1.896672978e-01	-4.799103090e-04	1.817354625e-11
-2.400000000e-03	1.896673022e-01	-4.779819436e-04	4.098366946e-11
-2.500000000e-03	1.896673065e-01	-4.760535780e-04	1.069286926e-11
-2.600000000e-03	1.896673107e-01	-4.741252123e-04	1.087112235e-11
-2.700000000e-03	1.896673149e-01	-4.721968464e-04	1.566078100e-11
-2.800000000e-03	1.896673190e-01	-4.702684804e-04	1.686789872e-11
-2.900000000e-03	1.896673230e-01	-4.683401141e-04	1.172313691e-11
-3.000000000e-03	1.896673270e-01	-4.664117478e-04	1.739533053e-11
-3.100000000e-03	1.896673310e-01	-4.644833812e-04	7.163686088e-12
-3.200000000e-03	1.896673348e-01	-4.625550146e-04	1.650649031e-11
-3.300000000e-03	1.896673387e-01	-4.606266478e-04	9.508125850e-12
-3.400000000e-03	1.896673424e-01	-4.586982808e-04	1.274776933e-11
-3.500000000e-03	1.896673461e-01	-4.567699137e-04	9.619887229e-12
-3.600000000e-03	1.896673498e-01	-4.548415465e-04	2.891026917e-11
-3.700000000e-03	1.896673533e-01	-4.529131792e-04	1.074890357e-11
-3.800000000e-03	1.896673569e-01	-4.509848117e-04	1.228748833e-11
-3.900000000e-03	1.896673603e-01	-4.490564441e-04	9.468756383e-12
-4.000000000e-03	1.896673637e-01	-4.471280763e-04	6.498157988e-12
-4.100000000e-03	1.896673671e-01	-4.451997085e-04	9.182197669e-12
-4.200000000e-03	1.896673704e-01	-4.432713405e-04	8.072650509e-12
-4.300000000e-03	1.896673736e-01	-4.413429724e-04	3.241035770e-11
-4.400000000e-03	1.896673768e-01	-4.394146042e-04	1.576073693e-11
-4.500000000e-03	1.896673799e-01	-4.374862359e-04	1.187004690e-11
-4.600000000e-03	1.896673829e-01	-4.355578675e-04	1.801343803e-11
-4.700000000e-03	1.896673859e-01	-4.336294990e-04	2.013005850e-11
-4.800000000e-03	1.896673888e-01	-4.317011304e-04	8.732064815e-12
-4.900000000e-03	1.896673917e-01	-4.297727617e-04	6.803115902e-12
-5.000000000e-03	1.896673945e-01	-4.278443929e-04	1.059545734e-11
-5.100000000e-03	1.896673973e-01	-4.259160240e-04	7.583012728e-12
-5.200000000e-03	1.896674000e-01	-4.239876550e-04	8.093951795e-12
-5.300000000e-03	1.896674026e-01	-4.220592860e-04	3.617187497e-11
-5.400000000e-03	1.896674052e-01	-4.201309168e-04	6.711141947e-12
-5.500000000e-03	1.896674077e-01	-4.182025476e-04	8.585434169e-12
-5.600000000e-03	1.896674102e-01	-4.162741783e-04	6.880897146e-12
-5.700000000e-03	1.896674126e-01	-4.143458089e-04	1.555896414e-11
-5.800000000e-03	1.896674150e-01	-4.124174395e-04	2.904563379e-11
-5.900000000e-03	1.896674173e-01	-4.104890700e-04	1.578567881e-11
-6.000000000e-03	1.896674195e-01	-4.085607004e-04	1.380660007e-11
-6.100000000e-03	1.896674217e-01	-4.066323308e-04	9.273053880e-12
-6.200000000e-03	1.896674238e-01	-4.047039611e-04	9.490363560e-12
-6.300000000e-03	1.896674258e-01	-4.027755914e-04	1.775754308e-11
-6.400000000e-03	1.896674278e-01	-4.008472216e-04	2.346766247e-11
-6.500000000e-03	1.896674297e-01	-3.989188517e-04	8.393419721e-12
-6.600000000e-03	1.896674316e-01	-3.969904819e-04	5.015251945e-11
-6.700000000e-03	1.896674334e-01	-3.950621119e-04	1.234137752e-11
-6.800000000e-03	1.896674352e-01	-3.931337420e-04	1.060761616e-11
-6.900000000e-03	1.896674369e-01	-3.912053720e-04	7.035997200e-12
-7.000000000e-03	1.896674385e-01	-3.892770019e-04	1.339146236e-11
-7.100000000e-03	1.896674401e-01	-3.873486318e-04	1.037313842e-11
-7.200000000e-03	1.896674417e-01	-3.854202618e-04	1.577520286e-11
-7.300000000e-03	1.896674431e-01	-3.834918916e-04	1.458544204e-11
-7.400000000e-03	1.896674445e-01	-3.815635215e-04	2.527470247e-11
-7.500000000e-03	1.896674459e-01	-3.796351513e-04	2.169259921e-11
-7.600000000e-03	1.896674472e-01	-3.777067811e-04	1.011045851e-11
-7.700000000e-03	1.896674484e-01	-3.757784110e-04	1.257039720e-11
-7.800000000e-03	1.896674496e-01	-3.738500408e-04	4.858154555e-11
-7.900000000e-03	1.896674507e-01	-3.719216705e-04	2.391363960e-11
-8.000000000e-03	1.896674517e-01	-3.699933003e-04	1.441488411e-11
-8.100000000e-03	1.896674527e-01	-3.680649301e-04	2.466876289e-11
-8.200000000e-03	1.896674537e-01	-3.661365599e-04	2.166986547e-11
-8.300000000e-03	1.896674545e-01	-3.642081897e-04	1.849872579e-11
-8.400000000e-03	1.896674554e-01	-3.622798195e-04	8.686120808e-12
-8.500000000e-03	1.896674561e-01	-3.603514493e-04	4.890739880e-11
-8.600000000e-03	1.896674568e-01	-3.584230792e-04	4.821544651e-11
-8.700000000e-03	1.896674575e-01	-3.564947090e-04	1.436294506e-11
-8.800000000e-03	1.896674581e-01	-3.545663389e-04	3.406585769e-11
-8.900000000e-03	1.896674586e-01	-3.526379688e-04	3.195570653e-11
-9.000000000e-03	1.896674590e-01	-3.507095987e-04	1.723587689e-11
-9.100000000e-03	1.896674595e-01	-3.487812286e-04	2.126239905e-11
-9.200000000e-03	1.896674598e-01	-3.468528586e-04	8.012049135e-12
-9.300000000e-03	1.896674601e-01	-3.449244886e-04	5.173623259e-11
-9.400000000e-03	1.896674603e-01	-3.429961187e-04	1.486275647e-11
-9.500000000e-03	1.896674605e-01	-3.410677487e-04	7.967360182e-12
-9.600000000e-03	1.896674606e-01	-3.391393789e-04	1.077239006e-10
-9.700000000e-03	1.896674607e-01	-3.372110091e-04	6.912788193e-12
-9.800000000e-03	1.896674607e-01	-3.352826393e-04	1.372309045e-11
-9.900000000e-03	1.896674606e-01	-3.333542696e-04	1.439197845e-11
-1.000000000e-02	1.896674605e-01	-3.314258999e-04	1.255077880e-11
-1.010000000e-02	1.896674603e-01	-3.294975303e-04	8.243747163e-12
-1.020000000e-02	1.896674601e-01	-3.275691608e-04	1.703892466e-11
-1.030000000e-02	1.896674598e-01	-3.256407913e-04	4.895387559e-11
-1.040000000e-02	1.896674594e-01	-3.237124219e-04	1.019471408e-11
-1.050000000e-02	1.896674590e-01	-3.217840526e-04	1.381418686e-11
-1.060000000e-02	1.896674585e-01	-3.198556833e-04	2.215809783e-11
-1.070000000e-02	1.896674580e-01	-3.179273141e-04	1.309680095e-11
-1.080000000e-02	1.896674574e-01	-3.159989450e-04	2.819711395e-11
-1.090000000e-02	1.896674567e-01	-3.140705760e-04	1.362567405e-11
-1.100000000e-02	1.896674560e-01	-3.121422070e-04	1.598683518e-11
-1.110000000e-02	1.896674553e-01	-3.102138382e-04	1.168439185e-11
-1.120000000e-02	1.896674544e-01	-3.082854694e-04	1.661467380e-11
-1.130000000e-02	1.896674536e-01	-3.063571008e-04	4.245775212e-11
-1.140000000e-02	1.896674526e-01	-3.044287322e-04	7.429103682e-12
-1.150000000e-02	1.896674516e-01	-3.025003637e-04	4.613395078e-11
-1.160000000e-02	1.896674506e-01	-3.005719954e-04	2.056487144e-11
-1.170000000e-02	1.896674494e-01	-2.986436271e-04	1.434888090e-11
-1.180000000e-02	1.896674483e-01	-2.967152590e-04	1.430474832e-11
-1.190000000e-02	1.896674470e-01	-2.947868909e-04	1.915268856e-11
-1.200000000e-02	1.896674457e-01	-2.928585230e-04	1.510036107e-11
-1.210000000e-02	1.896674444e-01	-2.909301552e-04	1.362535888e-11
-1.220000000e-02	1.896674429e-01	-2.890017875e-04	1.601371809e-11
-1.230000000e-02	1.896674415e-01	-2.870734200e-04	1.042479601e-11
-1.240000000e-02	1.896674399e-01	-2.851450526e-04	3.109756804e-11
-1.250000000e-02	1.896674384e-01	-2.832166853e-04	1.726565810e-11
-1.260000000e-02	1.896674367e-01	-2.812883181e-04	7.231363793e-12
-1.270000000e-02	1.896674350e-01	-2.793599511e-04	1.856777024e-11
-1.280000000e-02	1.896674332e-01	-2.774315842e-04	1.523591971e-11
-1.290000000e-02	1.896674314e-01	-2.755032175e-04	1.621071619e-11
-1.300000000e-02	1.896674295e-01	-2.735748509e-04	1.027338874e-11
-1.310000000e-02	1.896674276e-01	-2.716464844e-04	1.022061717e-11
-1.320000000e-02	1.896674256e-01	-2.697181181e-04	6.853725204e-12
-1.330000000e-02	1.896674235e-01	-2.677897520e-04	8.135808328e-12
-1.340000000e-02	1.896674214e-01	-2.658613860e-04	9.871046713e-12
-1.350000000e-02	1.896674192e-01	-2.639330201e-04	5.758525369e-12
-1.360000000e-02	1.896674170e-01	-2.620046545e-04	1.738172061e-11
-1.370000000e-02	1.896674147e-01	-2.600762890e-04	4.011570008e-11
-1.380000000e-02	1.896674123e-01	-2.581479237e-04	9.923462110e-12
-1.390000000e-02	1.896674099e-01	-2.562195585e-04	8.233019699e-12
-1.400000000e-02	1.896674074e-01	-2.542911935e-04	1.319619961e-11
-1.410000000e-02	1.896674049e-01	-2.523628287e-04	7.788182334e-12
-1.420000000e-02	1.896674023e-01	-2.504344641e-04	1.480151346e-11
-1.430000000e-02	1.896673997e-01	-2.485060997e-04	4.717893329e-12
-1.440000000e-02	1.896673970e-01	-2.465777354e-04	1.152137127e-11
-1.450000000e-02	1.896673942e-01	-2.446493713e-04	8.068101229e-12
-1.460000000e-02	1.896673914e-01	-2.427210075e-04	7.948975671e-12
-1.470000000e-02	1.896673885e-01	-2.407926438e-04	1.250029473e-11
-1.480000000e-02	1.896673856e-01	-2.388642803e-04	1.488830301e-11
-1.490000000e-02	1.896673826e-01	-2.369359171e-04	2.063638325e-11
-1.500000000e-02	1.896673795e-01	-2.350075540e-04	2.281432327e-11
-1.510000000e-02	1.896673764e-01	-2.330791911e-04	1.736828307e-11
-1.520000000e-02	1.896673732e-01	-2.311508285e-04	1.800516503e-11
-1.530000000e-02	1.896673700e-01	-2.292224661e-04	1.829744055e-11
-1.540000000e-02	1.896673667e-01	-2.272941038e-04	7.243674013e-12
-1.550000000e-02	1.896673633e-01	-2.253657418e-04	1.718928247e-11
-1.560000000e-02	1.896673599e-01	-2.234373801e-04	7.631760913e-12
-1.570000000e-02	1.896673564e-01	-2.215090185e-04	5.453510837e-11
-1.580000000e-02	1.896673529e-01	-2.195806572e-04	1.850696252e-11
-1.590000000e-02	1.896673493e-01	-2.176522961e-04	8.461565077e-12
-1.600000000e-02	1.896673457e-01	-2.157239353e-04	1.108106868e-11
-1.610000000e-02	1.896673420e-01	-2.137955746e-04	4.743342806e-11
-1.620000000e-02	1.896673382e-01	-2.118672143e-04	5.054069478e-11
-1.630000000e-02	1.896673344e-01	-2.099388541e-04	1.033367251e-11
-1.640000000e-02	1.896673305e-01	-2.080104943e-04	9.364747004e-12
-1.650000000e-02	1.896673266e-01	-2.060821346e-04	1.074323940e-11
-1.660000000e-02	1.896673226e-01	-2.041537752e-04	1.836446943e-11
-1.670000000e-02	1.896673185e-01	-2.022254161e-04	1.000587953e-11
-1.680000000e-02	1.896673144e-01	-2.002970572e-04	1.718843270e-11
-1.690000000e-02	1.896673102e-01	-1.983686986e-04	1.514708817e-11
-1.700000000e-02	1.896673060e-01	-1.964403403e-04	8.162199992e-11
-1.710000000e-02	1.896673017e-01	-1.945119822e-04	3.793898621e-11
-1.720000000e-02	1.896672973e-01	-1.925836244e-04	1.855809521e-11
-1.730000000e-02	1.896672929e-01	-1.906552669e-04	2.515510949e-11
-1.740000000e-02	1.896672884e-01	-1.887269096e-04	1.122051494e-11
-1.750000000e-02	1.896672839e-01	-1.867985527e-04	1.595532946e-11
-1.760000000e-02	1.896672793e-01	-1.848701960e-04	2.295156467e-11
-1.770000000e-02	1.896672747e-01	-1.829418396e-04	1.735852372e-11
-1.780000000e-02	1.896672700e-01	-1.810134835e-04	1.044305521e-11
-1.790000000e-02	1.896672652e-01	-1.790851276e-04	9.858099322e-12
-1.800000000e-02	1.896672604e-01	-1.771567721e-04	1.262443840e-11
-1.810000000e-02	1.896672555e-01	-1.752284169e-04	1.853105637e-11
-1.820000000e-02	1.896672506e-01	-1.733000619e-04	9.920264736e-12
-1.830000000e-02	1.896672456e-01	-1.713717073e-04	1.358068975e-11
-1.840000000e-02	1.896672405e-01	-1.694433530e-04	9.371787179e-12
-1.850000000e-02	1.896672354e-01	-1.675149990e-04	1.201566353e-11
-1.860000000e-02	1.896672302e-01	-1.655866453e-04	4.458291447e-11
-1.870000000e-02	1.896672250e-01	-1.636582919e-04	2.230223041e-11
-1.880000000e-02	1.896672197e-01	-1.617299388e-04	1.283500139e-11
-1.890000000e-02	1.896672143e-01	-1.598015861e-04	1.537073544e-11
-1.900000000e-02	1.896672089e-01	-1.578732336e-04	6.081423794e-12
-1.910000000e-02	1.896672035e-01	-1.559448816e-04	9.766345904e-12
-1.920000000e-02	1.896671979e-01	-1.540165298e-04	6.656737645e-11
-1.930000000e-02	1.896671924e-01	-1.520881784e-04	1.080323279e-11
-1.940000000e-02	1.896671867e-01	-1.501598273e-04	2.028258782e-11
-1.950000000e-02	1.896671810e-01	-1.482314765e-04	2.082296686e-11
-1.960000000e-02	1.896671752e-01	-1.463031261e-04	9.350543382e-12
-1.970000000e-02	1.896671694e-01	-1.443747760e-04	1.949446389e-11
-1.980000000e-02	1.896671635e-01	-1.424464263e-04	1.985299345e-11
-1.990000000e-02	1.896671576e-01	-1.405180769e-04	2.811264769e-11
-2.000000000e-02	1.896671516e-01	-1.385897279e-04	1.873651348e-11
-2.010000000e-02	1.896671455e-01	-1.366613793e-04	2.243365011e-11
-2.020000000e-02	1.896671394e-01	-1.347330310e-04	1.570270601e-11
-2.030000000e-02	1.896671333e-01	-1.328046830e-04	7.812857133e-12
-2.040000000e-02	1.896671270e-01	-1.308763354e-04	2.126483949e-11
-2.050000000e-02	1.896671207e-01	-1.289479882e-04	7.630844591e-12
-2.060000000e-02	1.896671144e-01	-1.270196414e-04	1.157692830e-11
-2.070000000e-02	1.896671080e-01	-1.250912950e-04	8.450175373e-12
-2.080000000e-02	1.896671015e-01	-1.231629489e-04	5.942069739e-11
-2.090000000e-02	1.896670950e-01	-1.212346032e-04	1.598105960e-11
-2.100000000e-02	1.896670884e-01	-1.193062579e-04	1.543626177e-11
-2.110000000e-02	1.896670818e-01	-1.173779130e-04	2.394299537e-11
-2.120000000e-02	1.896670751e-01	-1.154495684e-04	1.040980468e-11
-2.130000000e-02	1.896670683e-01	-1.135212243e-04	6.997367197e-12
-2.140000000e-02	1.896670615e-01	-1.115928805e-04	1.732793242e-11
-2.150000000e-02	1.896670546e-01	-1.096645372e-04	5.216956112e-11
-2.160000000e-02	1.896670477e-01	-1.077361942e-04	4.715747552e-12
-2.170000000e-02	1.896670407e-01	-1.058078517e-04	1.696585462e-11
-2.180000000e-02	1.896670336e-01	-1.038795096e-04	8.542365610e-12
-2.190000000e-02	1.896670265e-01	-1.019511678e-04	1.755011480e-11
-2.200000000e-02	1.896670193e-01	-1.000228265e-04	8.188439152e-12
-2.210000000e-02	1.896670121e-01	-9.809448565e-05	8.018840136e-12
-2.220000000e-02	1.896670048e-01	-9.616614517e-05	1.649312189e-11
-2.230000000e-02	1.896669974e-01	-9.423780512e-05	1.166789027e-11
-2.240000000e-02	1.896669900e-01	-9.230946550e-05	9.722581944e-12
-2.250000000e-02	1.896669826e-01	-9.038112631e-05	9.379964874e-12
-2.260000000e-02	1.896669750e-01	-8.845278754e-05	8.202822029e-12
-2.270000000e-02	1.896669675e-01	-8.652444921e-05	4.725369303e-11
-2.280000000e-02	1.896669598e-01	-8.459611132e-05	2.715828091e-11
-2.290000000e-02	1.896669521e-01	-8.266777387e-05	1.924056645e-11
-2.300000000e-02	1.896669444e-01	-8.073943686e-05	1.071540034e-11
-2.310000000e-02	1.896669365e-01	-7.881110030e-05	1.133710571e-11
-2.320000000e-02	1.896669287e-01	-7.688276419e-05	7.659011974e-12
-2.330000000e-02	1.896669207e-01	-7.495442853e-05	9.021264463e-12
-2.340000000e-02	1.896669127e-01	-7.302609333e-05	6.326075351e-12
-2.350000000e-02	1.896669047e-01	-7.109775858e-05	3.300428358e-12
-2.360000000e-02	1.896668966e-01	-6.916942430e-05	3.423507087e-11
-2.370000000e-02	1.896668884e-01	-6.724109048e-05	2.132702915e-11
-2.380000000e-02	1.896668802e-01	-6.531275713e-05	2.893349869e-11
-2.390000000e-02	1.896668719e-01	-6.338442425e-05	1.177368377e-11
-2.400000000e-02	1.896668635e-01	-6.145609183e-05	3.355664444e-11
-2.410000000e-02	1.896668551e-01	-5.952775991e-05	1.792457022e-11
-2.420000000e-02	1.896668466e-01	-5.759942845e-05	8.416615972e-12
-2.430000000e-02	1.896668381e-01	-5.567109748e-05	1.250565674e-11
-2.440000000e-02	1.896668295e-01	-5.374276700e-05	1.162949007e-11
-2.450000000e-02	1.896668209e-01	-5.181443700e-05	8.895195271e-12
-2.460000000e-02	1.896668122e-01	-4.988610750e-05	5.706946981e-12
-2.470000000e-02	1.896668034e-01	-4.795777848e-05	2.529958191e-11
-2.480000000e-02	1.896667946e-01	-4.602944997e-05	1.240722717e-11
-2.490000000e-02	1.896667857e-01	-4.410112196e-05	8.444985969e-12
-2.500000000e-02	1.896667768e-01	-4.217279445e-05	2.449633895e-11
-2.510000000e-02	1.896667678e-01	-4.024446744e-05	7.291580131e-12
-2.520000000e-02	1.896667588e-01	-3.831614095e-05	1.851037380e-11
-2.530000000e-02	1.896667496e-01	-3.638781496e-05	8.691799518e-12
-2.540000000e-02	1.896667405e-01	-3.445948950e-05	1.998186263e-11
-2.550000000e-02	1.896667312e-01	-3.253116455e-05	5.790119281e-12
-2.560000000e-02	1.896667219e-01	-3.060284012e-05	8.746599208e-12
-2.570000000e-02	1.896667126e-01	-2.867451621e-05	2.796408997e-11
-2.580000000e-02	1.896667032e-01	-2.674619283e-05	1.207027600e-11
-2.590000000e-02	1.896666937e-01	-2.481786998e-05	1.680520204e-11
-2.600000000e-02	1.896666842e-01	-2.288954767e-05	1.237410145e-11
-2.610000000e-02	1.896666746e-01	-2.096122589e-05	1.018616398e-11
-2.620000000e-02	1.896666650e-01	-1.903290465e-05	5.900166081e-12
-2.630000000e-02	1.896666553e-01	-1.710458395e-05	1.958932661e-11
-2.640000000e-02	1.896666455e-01	-1.517626379e-05	9.187268679e-11
-2.650000000e-02	1.896666357e-01	-1.324794419e-05	5.982077426e-12
-2.660000000e-02	1.896666258e-01	-1.131962514e-05	2.315056357e-11
-2.670000000e-02	1.896666159e-01	-9.391306639e-06	2.713050941e-11
-2.680000000e-02	1.896666059e-01	-7.462988697e-06	1.971381278e-11
-2.690000000e-02	1.896665959e-01	-5.534671310e-06	1.372576303e-11
-2.700000000e-02	1.896665857e-01	-3.606354491e-06	9.703984097e-12
-2.710000000e-02	1.896665756e-01	-1.678038235e-06	7.137114489e-12
-2.720000000e-02	1.896665653e-01	2.502774508e-07	2.717043632e-11
-2.730000000e-02	1.896665551e-01	2.178592563e-06	3.088720713e-11
-2.740000000e-02	1.896665447e-01	4.106907108e-06	1.021259849e-11
-2.750000000e-02	1.896665343e-01	6.035221071e-06	1.448187115e-11
-2.760000000e-02	1.896665238e-01	7.963534450e-06	5.770873620e-12
-2.770000000e-02	1.896665133e-01	9.891847248e-06	1.075557629e-11
-2.780000000e-02	1.896665027e-01	1.182015946e-05	4.438117439e-11
-2.790000000e-02	1.896664921e-01	1.374847108e-05	1.645519473e-11
-2.800000000e-02	1.896664814e-01	1.567678211e-05	1.704078413e-11
-2.810000000e-02	1.896664706e-01	1.760509254e-05	1.158993317e-11
-2.820000000e-02	1.896664598e-01	1.953340238e-05	1.064127343e-11
-2.830000000e-02	1.896664489e-01	2.146171162e-05	9.394507949e-11
-2.840000000e-02	1.896664380e-01	2.339002024e-05	1.111152891e-11
-2.850000000e-02	1.896664270e-01	2.531832827e-05	3.572466366e-11
-2.860000000e-02	1.896664160e-01	2.724663567e-05	1.547180633e-11
-2.870000000e-02	1.896664049e-01	2.917494247e-05	1.571237264e-11
-2.880000000e-02	1.896663937e-01	3.110324866e-05	5.266064748e-11
-2.890000000e-02	1.896663825e-01	3.303155421e-05	1.409436684e-11
-2.900000000e-02	1.896663712e-01	3.495985915e-05	7.685796117e-12
-2.910000000e-02	1.896663598e-01	3.688816346e-05	1.297589721e-11
-2.920000000e-02	1.896663484e-01	3.881646715e-05	1.191188434e-11
-2.930000000e-02	1.896663370e-01	4.074477020e-05	5.799962594e-12
-2.940000000e-02	1.896663254e-01	4.267307262e-05	3.772034229e-11
-2.950000000e-02	1.896663139e-01	4.460137440e-05	8.559505773e-12
-2.960000000e-02	1.896663022e-01	4.652967555e-05	7.515161246e-12
-2.970000000e-02	1.896662905e-01	4.845797605e-05	3.138005297e-11
-2.980000000e-02	1.896662788e-01	5.038627590e-05	1.307534869e-11
-2.990000000e-02	1.896662670e-01	5.231457510e-05	7.000116991e-12
-3.000000000e-02	1.896662551e-01	5.424287365e-05	1.939465569e-11
