# Im(epsi1)     Re(omega/c)      Im(omega/c)      Eq(det).Opt det CON kz, R=0.5 \mum, mu_c=0.3, Re(epsi1)=3.90solve_det_conkz_vs_kz.py
0.000000000e+00	1.896444465e-01	-5.242100811e-04	1.929684043e-11
-1.000000000e-04	1.896444522e-01	-5.222818318e-04	5.627254621e-12
-2.000000000e-04	1.896444578e-01	-5.203535823e-04	6.110863022e-12
-3.000000000e-04	1.896444634e-01	-5.184253326e-04	1.786526397e-11
-4.000000000e-04	1.896444689e-01	-5.164970826e-04	2.776232870e-11
-5.000000000e-04	1.896444744e-01	-5.145688324e-04	2.702476225e-11
-6.000000000e-04	1.896444798e-01	-5.126405820e-04	9.455030187e-12
-7.000000000e-04	1.896444851e-01	-5.107123313e-04	1.845708686e-11
-8.000000000e-04	1.896444904e-01	-5.087840805e-04	1.589820570e-11
-9.000000000e-04	1.896444956e-01	-5.068558294e-04	1.457186474e-11
-1.000000000e-03	1.896445008e-01	-5.049275781e-04	4.526986979e-12
-1.100000000e-03	1.896445059e-01	-5.029993266e-04	3.517423191e-11
-1.200000000e-03	1.896445109e-01	-5.010710749e-04	1.231259635e-11
-1.300000000e-03	1.896445159e-01	-4.991428229e-04	5.868242763e-12
-1.400000000e-03	1.896445209e-01	-4.972145708e-04	9.853843378e-12
-1.500000000e-03	1.896445257e-01	-4.952863185e-04	1.133373083e-11
-1.600000000e-03	1.896445305e-01	-4.933580660e-04	6.131767683e-11
-1.700000000e-03	1.896445353e-01	-4.914298133e-04	2.930093767e-11
-1.800000000e-03	1.896445400e-01	-4.895015604e-04	1.836727048e-11
-1.900000000e-03	1.896445446e-01	-4.875733073e-04	8.725530627e-12
-2.000000000e-03	1.896445492e-01	-4.856450541e-04	1.090650066e-11
-2.100000000e-03	1.896445537e-01	-4.837168006e-04	3.889404094e-11
-2.200000000e-03	1.896445582e-01	-4.817885470e-04	5.887073451e-11
-2.300000000e-03	1.896445626e-01	-4.798602932e-04	1.195908507e-11
-2.400000000e-03	1.896445670e-01	-4.779320393e-04	1.217492990e-11
-2.500000000e-03	1.896445712e-01	-4.760037851e-04	1.358990557e-11
-2.600000000e-03	1.896445755e-01	-4.740755309e-04	6.291019110e-12
-2.700000000e-03	1.896445796e-01	-4.721472764e-04	1.170325949e-11
-2.800000000e-03	1.896445837e-01	-4.702190218e-04	2.256265123e-11
-2.900000000e-03	1.896445878e-01	-4.682907670e-04	1.111120845e-11
-3.000000000e-03	1.896445918e-01	-4.663625121e-04	1.574135127e-11
-3.100000000e-03	1.896445957e-01	-4.644342570e-04	1.196683573e-11
-3.200000000e-03	1.896445996e-01	-4.625060018e-04	1.986677679e-11
-3.300000000e-03	1.896446034e-01	-4.605777464e-04	7.257745035e-12
-3.400000000e-03	1.896446072e-01	-4.586494909e-04	1.193973330e-11
-3.500000000e-03	1.896446109e-01	-4.567212353e-04	1.355054012e-11
-3.600000000e-03	1.896446145e-01	-4.547929795e-04	8.781799738e-12
-3.700000000e-03	1.896446181e-01	-4.528647236e-04	3.435192060e-11
-3.800000000e-03	1.896446216e-01	-4.509364676e-04	2.084796742e-11
-3.900000000e-03	1.896446251e-01	-4.490082114e-04	8.276666461e-12
-4.000000000e-03	1.896446285e-01	-4.470799551e-04	1.314994500e-11
-4.100000000e-03	1.896446318e-01	-4.451516987e-04	1.660849983e-11
-4.200000000e-03	1.896446351e-01	-4.432234422e-04	1.806262542e-11
-4.300000000e-03	1.896446383e-01	-4.412951856e-04	1.597535315e-11
-4.400000000e-03	1.896446415e-01	-4.393669288e-04	1.695488966e-11
-4.500000000e-03	1.896446446e-01	-4.374386720e-04	1.765600793e-11
-4.600000000e-03	1.896446477e-01	-4.355104150e-04	1.213237605e-11
-4.700000000e-03	1.896446507e-01	-4.335821579e-04	1.704325032e-11
-4.800000000e-03	1.896446536e-01	-4.316539008e-04	9.386004784e-12
-4.900000000e-03	1.896446565e-01	-4.297256435e-04	4.513333122e-12
-5.000000000e-03	1.896446593e-01	-4.277973861e-04	3.113164903e-11
-5.100000000e-03	1.896446620e-01	-4.258691287e-04	1.797950286e-11
-5.200000000e-03	1.896446647e-01	-4.239408712e-04	9.238385099e-12
-5.300000000e-03	1.896446674e-01	-4.220126136e-04	1.214706557e-11
-5.400000000e-03	1.896446700e-01	-4.200843559e-04	1.204730358e-11
-5.500000000e-03	1.896446725e-01	-4.181560981e-04	1.983704498e-11
-5.600000000e-03	1.896446750e-01	-4.162278402e-04	7.469414555e-12
-5.700000000e-03	1.896446774e-01	-4.142995823e-04	8.541263688e-12
-5.800000000e-03	1.896446797e-01	-4.123713243e-04	2.036936344e-11
-5.900000000e-03	1.896446820e-01	-4.104430663e-04	8.420277080e-12
-6.000000000e-03	1.896446842e-01	-4.085148081e-04	1.385441405e-11
-6.100000000e-03	1.896446864e-01	-4.065865500e-04	1.149054897e-11
-6.200000000e-03	1.896446885e-01	-4.046582917e-04	5.995093163e-12
-6.300000000e-03	1.896446906e-01	-4.027300334e-04	8.356600134e-12
-6.400000000e-03	1.896446925e-01	-4.008017751e-04	9.742473844e-12
-6.500000000e-03	1.896446945e-01	-3.988735167e-04	1.578283672e-11
-6.600000000e-03	1.896446964e-01	-3.969452582e-04	1.516463036e-10
-6.700000000e-03	1.896446982e-01	-3.950169998e-04	1.129973261e-11
-6.800000000e-03	1.896446999e-01	-3.930887412e-04	1.193602687e-11
-6.900000000e-03	1.896447016e-01	-3.911604827e-04	1.723362073e-11
-7.000000000e-03	1.896447033e-01	-3.892322241e-04	1.668458748e-11
-7.100000000e-03	1.896447049e-01	-3.873039655e-04	1.865930839e-11
-7.200000000e-03	1.896447064e-01	-3.853757068e-04	1.182220155e-11
-7.300000000e-03	1.896447078e-01	-3.834474481e-04	8.177229797e-12
-7.400000000e-03	1.896447093e-01	-3.815191894e-04	1.344335663e-11
-7.500000000e-03	1.896447106e-01	-3.795909307e-04	1.503113452e-11
-7.600000000e-03	1.896447119e-01	-3.776626720e-04	1.025691644e-10
-7.700000000e-03	1.896447131e-01	-3.757344132e-04	3.421854560e-11
-7.800000000e-03	1.896447143e-01	-3.738061545e-04	7.692935312e-12
-7.900000000e-03	1.896447154e-01	-3.718778957e-04	1.345240992e-11
-8.000000000e-03	1.896447165e-01	-3.699496370e-04	1.777479795e-11
-8.100000000e-03	1.896447175e-01	-3.680213782e-04	9.806170386e-12
-8.200000000e-03	1.896447184e-01	-3.660931195e-04	3.681003225e-11
-8.300000000e-03	1.896447193e-01	-3.641648607e-04	2.891563315e-11
-8.400000000e-03	1.896447201e-01	-3.622366019e-04	8.778475124e-12
-8.500000000e-03	1.896447208e-01	-3.603083432e-04	1.013147942e-11
-8.600000000e-03	1.896447215e-01	-3.583800845e-04	1.956080197e-11
-8.700000000e-03	1.896447222e-01	-3.564518258e-04	1.186147394e-11
-8.800000000e-03	1.896447228e-01	-3.545235671e-04	1.099572516e-11
-8.900000000e-03	1.896447233e-01	-3.525953084e-04	9.904886549e-12
-9.000000000e-03	1.896447238e-01	-3.506670498e-04	1.135975460e-11
-9.100000000e-03	1.896447242e-01	-3.487387912e-04	2.527230767e-11
-9.200000000e-03	1.896447245e-01	-3.468105326e-04	2.277350010e-11
-9.300000000e-03	1.896447248e-01	-3.448822741e-04	1.157348770e-11
-9.400000000e-03	1.896447250e-01	-3.429540155e-04	7.299834056e-12
-9.500000000e-03	1.896447252e-01	-3.410257571e-04	1.754625226e-11
-9.600000000e-03	1.896447253e-01	-3.390974987e-04	8.695093974e-12
-9.700000000e-03	1.896447254e-01	-3.371692403e-04	3.188734698e-11
-9.800000000e-03	1.896447254e-01	-3.352409820e-04	1.341020757e-11
-9.900000000e-03	1.896447253e-01	-3.333127237e-04	9.413213992e-12
-1.000000000e-02	1.896447252e-01	-3.313844655e-04	9.867677176e-12
-1.010000000e-02	1.896447250e-01	-3.294562073e-04	1.069260025e-11
-1.020000000e-02	1.896447248e-01	-3.275279492e-04	8.647838690e-12
-1.030000000e-02	1.896447245e-01	-3.255996912e-04	2.389855657e-11
-1.040000000e-02	1.896447241e-01	-3.236714333e-04	8.609317796e-12
-1.050000000e-02	1.896447237e-01	-3.217431754e-04	3.006222726e-11
-1.060000000e-02	1.896447232e-01	-3.198149176e-04	2.339565378e-11
-1.070000000e-02	1.896447227e-01	-3.178866598e-04	5.994087506e-12
-1.080000000e-02	1.896447221e-01	-3.159584021e-04	3.012583726e-11
-1.090000000e-02	1.896447214e-01	-3.140301446e-04	1.160825522e-11
-1.100000000e-02	1.896447207e-01	-3.121018871e-04	8.669689742e-12
-1.110000000e-02	1.896447200e-01	-3.101736297e-04	1.014992486e-11
-1.120000000e-02	1.896447191e-01	-3.082453724e-04	1.650870592e-11
-1.130000000e-02	1.896447183e-01	-3.063171152e-04	6.491275121e-12
-1.140000000e-02	1.896447173e-01	-3.043888580e-04	1.512799662e-11
-1.150000000e-02	1.896447163e-01	-3.024606010e-04	3.291872646e-11
-1.160000000e-02	1.896447153e-01	-3.005323441e-04	6.461858796e-12
-1.170000000e-02	1.896447141e-01	-2.986040873e-04	1.613430011e-11
-1.180000000e-02	1.896447130e-01	-2.966758306e-04	6.858244677e-12
-1.190000000e-02	1.896447117e-01	-2.947475740e-04	7.261672668e-12
-1.200000000e-02	1.896447104e-01	-2.928193175e-04	6.916802115e-12
-1.210000000e-02	1.896447091e-01	-2.908910612e-04	2.093303408e-11
-1.220000000e-02	1.896447076e-01	-2.889628050e-04	4.464383472e-11
-1.230000000e-02	1.896447062e-01	-2.870345489e-04	1.592901724e-11
-1.240000000e-02	1.896447046e-01	-2.851062929e-04	1.901324112e-11
-1.250000000e-02	1.896447030e-01	-2.831780370e-04	5.428014818e-12
-1.260000000e-02	1.896447014e-01	-2.812497813e-04	2.138119208e-11
-1.270000000e-02	1.896446997e-01	-2.793215257e-04	1.395601188e-11
-1.280000000e-02	1.896446979e-01	-2.773932703e-04	1.464741765e-11
-1.290000000e-02	1.896446961e-01	-2.754650150e-04	8.838970487e-12
-1.300000000e-02	1.896446942e-01	-2.735367599e-04	1.152748946e-11
-1.310000000e-02	1.896446923e-01	-2.716085049e-04	2.285306177e-11
-1.320000000e-02	1.896446903e-01	-2.696802500e-04	2.337785058e-11
-1.330000000e-02	1.896446882e-01	-2.677519953e-04	1.428425769e-11
-1.340000000e-02	1.896446861e-01	-2.658237408e-04	2.965114944e-11
-1.350000000e-02	1.896446839e-01	-2.638954864e-04	1.290185025e-11
-1.360000000e-02	1.896446817e-01	-2.619672322e-04	1.816744896e-11
-1.370000000e-02	1.896446794e-01	-2.600389781e-04	1.662500966e-11
-1.380000000e-02	1.896446770e-01	-2.581107242e-04	8.978461226e-12
-1.390000000e-02	1.896446746e-01	-2.561824705e-04	1.506395446e-11
-1.400000000e-02	1.896446721e-01	-2.542542170e-04	2.536457448e-11
-1.410000000e-02	1.896446696e-01	-2.523259637e-04	2.977687326e-11
-1.420000000e-02	1.896446670e-01	-2.503977105e-04	3.079116657e-11
-1.430000000e-02	1.896446644e-01	-2.484694575e-04	9.913332806e-12
-1.440000000e-02	1.896446617e-01	-2.465412047e-04	9.251127175e-12
-1.450000000e-02	1.896446589e-01	-2.446129521e-04	9.137732514e-12
-1.460000000e-02	1.896446561e-01	-2.426846997e-04	8.516200508e-12
-1.470000000e-02	1.896446532e-01	-2.407564474e-04	1.434501381e-11
-1.480000000e-02	1.896446502e-01	-2.388281954e-04	1.025395837e-11
-1.490000000e-02	1.896446472e-01	-2.368999436e-04	2.590732510e-11
-1.500000000e-02	1.896446442e-01	-2.349716920e-04	2.433029026e-11
-1.510000000e-02	1.896446411e-01	-2.330434406e-04	4.011409795e-11
-1.520000000e-02	1.896446379e-01	-2.311151894e-04	9.299796723e-12
-1.530000000e-02	1.896446346e-01	-2.291869384e-04	8.708805372e-12
-1.540000000e-02	1.896446313e-01	-2.272586876e-04	1.412462188e-11
-1.550000000e-02	1.896446280e-01	-2.253304371e-04	1.990122103e-11
-1.560000000e-02	1.896446246e-01	-2.234021867e-04	1.248831925e-11
-1.570000000e-02	1.896446211e-01	-2.214739366e-04	3.055909521e-11
-1.580000000e-02	1.896446176e-01	-2.195456868e-04	3.146500353e-11
-1.590000000e-02	1.896446140e-01	-2.176174371e-04	1.544674177e-11
-1.600000000e-02	1.896446103e-01	-2.156891877e-04	1.244210896e-11
-1.610000000e-02	1.896446066e-01	-2.137609386e-04	7.409384412e-12
-1.620000000e-02	1.896446029e-01	-2.118326896e-04	1.093402573e-11
-1.630000000e-02	1.896445990e-01	-2.099044410e-04	2.645076928e-11
-1.640000000e-02	1.896445952e-01	-2.079761925e-04	1.802494521e-11
-1.650000000e-02	1.896445912e-01	-2.060479443e-04	1.648285066e-11
-1.660000000e-02	1.896445872e-01	-2.041196964e-04	1.374716882e-11
-1.670000000e-02	1.896445832e-01	-2.021914487e-04	8.194388780e-11
-1.680000000e-02	1.896445790e-01	-2.002632013e-04	1.628240339e-11
-1.690000000e-02	1.896445749e-01	-1.983349542e-04	2.247885081e-11
-1.700000000e-02	1.896445706e-01	-1.964067073e-04	3.822113667e-11
-1.710000000e-02	1.896445663e-01	-1.944784606e-04	2.414954522e-11
-1.720000000e-02	1.896445620e-01	-1.925502143e-04	2.453054270e-11
-1.730000000e-02	1.896445576e-01	-1.906219682e-04	9.192529595e-12
-1.740000000e-02	1.896445531e-01	-1.886937224e-04	2.033458574e-11
-1.750000000e-02	1.896445486e-01	-1.867654769e-04	2.595624094e-11
-1.760000000e-02	1.896445440e-01	-1.848372316e-04	8.637906745e-12
-1.770000000e-02	1.896445393e-01	-1.829089867e-04	1.593862003e-11
-1.780000000e-02	1.896445346e-01	-1.809807420e-04	9.559295669e-12
-1.790000000e-02	1.896445299e-01	-1.790524976e-04	8.210246234e-12
-1.800000000e-02	1.896445250e-01	-1.771242536e-04	1.481112582e-11
-1.810000000e-02	1.896445202e-01	-1.751960098e-04	1.551077868e-11
-1.820000000e-02	1.896445152e-01	-1.732677663e-04	1.327507135e-11
-1.830000000e-02	1.896445102e-01	-1.713395231e-04	9.774251975e-11
-1.840000000e-02	1.896445052e-01	-1.694112802e-04	1.031329255e-11
-1.850000000e-02	1.896445001e-01	-1.674830377e-04	1.979515467e-11
-1.860000000e-02	1.896444949e-01	-1.655547954e-04	1.222882328e-11
-1.870000000e-02	1.896444896e-01	-1.636265535e-04	1.665128832e-11
-1.880000000e-02	1.896444844e-01	-1.616983119e-04	7.387957828e-11
-1.890000000e-02	1.896444790e-01	-1.597700706e-04	1.712098368e-11
-1.900000000e-02	1.896444736e-01	-1.578418296e-04	1.077401544e-11
-1.910000000e-02	1.896444681e-01	-1.559135890e-04	2.139391948e-11
-1.920000000e-02	1.896444626e-01	-1.539853487e-04	6.697346140e-12
-1.930000000e-02	1.896444570e-01	-1.520571087e-04	1.601279878e-11
-1.940000000e-02	1.896444514e-01	-1.501288690e-04	9.715383244e-12
-1.950000000e-02	1.896444457e-01	-1.482006297e-04	1.223216524e-11
-1.960000000e-02	1.896444399e-01	-1.462723908e-04	1.375022250e-11
-1.970000000e-02	1.896444341e-01	-1.443441521e-04	9.938235736e-12
-1.980000000e-02	1.896444282e-01	-1.424159139e-04	2.978597824e-11
-1.990000000e-02	1.896444222e-01	-1.404876760e-04	6.951598195e-11
-2.000000000e-02	1.896444162e-01	-1.385594384e-04	1.329656801e-11
-2.010000000e-02	1.896444102e-01	-1.366312012e-04	3.569142984e-11
-2.020000000e-02	1.896444041e-01	-1.347029643e-04	7.760893116e-12
-2.030000000e-02	1.896443979e-01	-1.327747278e-04	2.847369502e-11
-2.040000000e-02	1.896443917e-01	-1.308464917e-04	2.569734595e-11
-2.050000000e-02	1.896443854e-01	-1.289182560e-04	8.898306210e-12
-2.060000000e-02	1.896443790e-01	-1.269900206e-04	3.322189595e-11
-2.070000000e-02	1.896443726e-01	-1.250617856e-04	1.929770391e-11
-2.080000000e-02	1.896443661e-01	-1.231335510e-04	4.079840874e-11
-2.090000000e-02	1.896443596e-01	-1.212053167e-04	7.908740981e-12
-2.100000000e-02	1.896443530e-01	-1.192770829e-04	2.805109051e-11
-2.110000000e-02	1.896443464e-01	-1.173488494e-04	3.614786514e-11
-2.120000000e-02	1.896443397e-01	-1.154206163e-04	5.297086689e-11
-2.130000000e-02	1.896443329e-01	-1.134923836e-04	1.409508442e-11
-2.140000000e-02	1.896443261e-01	-1.115641513e-04	1.230392280e-11
-2.150000000e-02	1.896443192e-01	-1.096359194e-04	6.947155865e-12
-2.160000000e-02	1.896443123e-01	-1.077076879e-04	1.260912230e-11
-2.170000000e-02	1.896443053e-01	-1.057794568e-04	2.184725108e-11
-2.180000000e-02	1.896442982e-01	-1.038512262e-04	1.297408837e-11
-2.190000000e-02	1.896442911e-01	-1.019229959e-04	1.112051780e-11
-2.200000000e-02	1.896442839e-01	-9.999476604e-05	5.987025074e-12
-2.210000000e-02	1.896442767e-01	-9.806653660e-05	9.627253370e-12
-2.220000000e-02	1.896442694e-01	-9.613830758e-05	8.389290665e-11
-2.230000000e-02	1.896442621e-01	-9.421007898e-05	9.615811972e-12
-2.240000000e-02	1.896442547e-01	-9.228185081e-05	1.150658725e-11
-2.250000000e-02	1.896442472e-01	-9.035362307e-05	2.144800714e-11
-2.260000000e-02	1.896442397e-01	-8.842539576e-05	1.664571825e-11
-2.270000000e-02	1.896442321e-01	-8.649716889e-05	2.463424712e-11
-2.280000000e-02	1.896442244e-01	-8.456894244e-05	1.757760662e-11
-2.290000000e-02	1.896442167e-01	-8.264071644e-05	2.147869025e-11
-2.300000000e-02	1.896442090e-01	-8.071249089e-05	8.732300381e-12
-2.310000000e-02	1.896442012e-01	-7.878426578e-05	1.378772665e-11
-2.320000000e-02	1.896441933e-01	-7.685604112e-05	9.356723608e-12
-2.330000000e-02	1.896441853e-01	-7.492781692e-05	2.135592080e-11
-2.340000000e-02	1.896441773e-01	-7.299959316e-05	1.730378562e-11
-2.350000000e-02	1.896441693e-01	-7.107136987e-05	3.315917447e-11
-2.360000000e-02	1.896441612e-01	-6.914314704e-05	5.298823140e-12
-2.370000000e-02	1.896441530e-01	-6.721492468e-05	9.117003441e-12
-2.380000000e-02	1.896441448e-01	-6.528670278e-05	7.043093205e-12
-2.390000000e-02	1.896441365e-01	-6.335848135e-05	2.244681905e-11
-2.400000000e-02	1.896441281e-01	-6.143026039e-05	4.468917440e-12
-2.410000000e-02	1.896441197e-01	-5.950203992e-05	7.553425986e-12
-2.420000000e-02	1.896441113e-01	-5.757381992e-05	9.496787019e-12
-2.430000000e-02	1.896441027e-01	-5.564560040e-05	2.042849925e-11
-2.440000000e-02	1.896440941e-01	-5.371738137e-05	7.240393773e-12
-2.450000000e-02	1.896440855e-01	-5.178916283e-05	9.397202893e-12
-2.460000000e-02	1.896440768e-01	-4.986094477e-05	1.140691646e-11
-2.470000000e-02	1.896440680e-01	-4.793272721e-05	1.249041661e-11
-2.480000000e-02	1.896440592e-01	-4.600451016e-05	1.157706726e-11
-2.490000000e-02	1.896440503e-01	-4.407629360e-05	1.339550787e-11
-2.500000000e-02	1.896440414e-01	-4.214807754e-05	1.089729615e-11
-2.510000000e-02	1.896440324e-01	-4.021986199e-05	1.148757823e-11
-2.520000000e-02	1.896440234e-01	-3.829164695e-05	7.820387436e-12
-2.530000000e-02	1.896440142e-01	-3.636343241e-05	1.403541731e-11
-2.540000000e-02	1.896440051e-01	-3.443521840e-05	1.099067008e-11
-2.550000000e-02	1.896439958e-01	-3.250700488e-05	1.806357104e-10
-2.560000000e-02	1.896439866e-01	-3.057879193e-05	1.041283546e-11
-2.570000000e-02	1.896439772e-01	-2.865057948e-05	2.133651654e-11
-2.580000000e-02	1.896439678e-01	-2.672236756e-05	1.487557752e-11
-2.590000000e-02	1.896439583e-01	-2.479415616e-05	2.211992814e-11
-2.600000000e-02	1.896439488e-01	-2.286594530e-05	5.832288003e-12
-2.610000000e-02	1.896439392e-01	-2.093773498e-05	1.635926643e-11
-2.620000000e-02	1.896439296e-01	-1.900952519e-05	5.535383423e-12
-2.630000000e-02	1.896439199e-01	-1.708131595e-05	1.200824999e-11
-2.640000000e-02	1.896439101e-01	-1.515310725e-05	8.195050654e-12
-2.650000000e-02	1.896439003e-01	-1.322489910e-05	8.500039404e-12
-2.660000000e-02	1.896438904e-01	-1.129669150e-05	7.454486107e-12
-2.670000000e-02	1.896438805e-01	-9.368484451e-06	6.302716861e-12
-2.680000000e-02	1.896438705e-01	-7.440277970e-06	3.888199926e-11
-2.690000000e-02	1.896438604e-01	-5.512072038e-06	1.844493759e-11
-2.700000000e-02	1.896438503e-01	-3.583866670e-06	7.851081339e-12
-2.710000000e-02	1.896438402e-01	-1.655661869e-06	1.188297711e-11
-2.720000000e-02	1.896438299e-01	2.725423646e-07	1.524556551e-11
-2.730000000e-02	1.896438196e-01	2.200746011e-06	8.890692296e-11
-2.740000000e-02	1.896438093e-01	4.128949111e-06	1.498047338e-11
-2.750000000e-02	1.896437989e-01	6.057151608e-06	4.413038691e-11
-2.760000000e-02	1.896437884e-01	7.985353541e-06	1.204168110e-11
-2.770000000e-02	1.896437779e-01	9.913554891e-06	3.938164059e-11
-2.780000000e-02	1.896437673e-01	1.184175565e-05	3.273138535e-11
-2.790000000e-02	1.896437567e-01	1.376995581e-05	1.436973831e-11
-2.800000000e-02	1.896437460e-01	1.569815538e-05	6.235465754e-12
-2.810000000e-02	1.896437352e-01	1.762635436e-05	8.126720392e-12
-2.820000000e-02	1.896437244e-01	1.955455274e-05	1.361497972e-11
-2.830000000e-02	1.896437135e-01	2.148275051e-05	1.427813850e-11
-2.840000000e-02	1.896437026e-01	2.341094769e-05	1.371290712e-11
-2.850000000e-02	1.896436916e-01	2.533914425e-05	1.523338130e-11
-2.860000000e-02	1.896436806e-01	2.726734021e-05	1.392459364e-11
-2.870000000e-02	1.896436694e-01	2.919553555e-05	1.914181662e-11
-2.880000000e-02	1.896436583e-01	3.112373027e-05	2.036579570e-11
-2.890000000e-02	1.896436470e-01	3.305192438e-05	9.500391577e-12
-2.900000000e-02	1.896436358e-01	3.498011786e-05	5.179504850e-12
-2.910000000e-02	1.896436244e-01	3.690831072e-05	1.840082001e-11
-2.920000000e-02	1.896436130e-01	3.883650295e-05	1.276181962e-11
-2.930000000e-02	1.896436015e-01	4.076469454e-05	1.477269971e-11
-2.940000000e-02	1.896435900e-01	4.269288550e-05	3.268789845e-11
-2.950000000e-02	1.896435784e-01	4.462107584e-05	1.274781935e-11
-2.960000000e-02	1.896435668e-01	4.654926552e-05	3.225280607e-11
-2.970000000e-02	1.896435551e-01	4.847745456e-05	1.458284758e-11
-2.980000000e-02	1.896435433e-01	5.040564295e-05	9.161582406e-12
-2.990000000e-02	1.896435315e-01	5.233383070e-05	1.351121543e-11
-3.000000000e-02	1.896435197e-01	5.426201780e-05	2.188294851e-11
