# Im(epsi1)     Re(omega/c)      Im(omega/c)      Eq(det).Opt det CON kz, R=0.5 \mum, mu_c=0.3, Re(epsi1)=3.90solve_det_conkz_vs_kz.py
0.000000000e+00	1.896882939e-01	-5.242895349e-04	4.576093137e-11
-1.000000000e-04	1.896882996e-01	-5.223610700e-04	1.606293241e-11
-2.000000000e-04	1.896883052e-01	-5.204326050e-04	1.132911911e-11
-3.000000000e-04	1.896883108e-01	-5.185041397e-04	1.322625825e-11
-4.000000000e-04	1.896883163e-01	-5.165756742e-04	8.097269377e-12
-5.000000000e-04	1.896883218e-01	-5.146472084e-04	1.059152542e-11
-6.000000000e-04	1.896883272e-01	-5.127187425e-04	2.290977316e-11
-7.000000000e-04	1.896883325e-01	-5.107902763e-04	1.170843522e-11
-8.000000000e-04	1.896883378e-01	-5.088618098e-04	9.075008947e-12
-9.000000000e-04	1.896883431e-01	-5.069333432e-04	8.052304129e-12
-1.000000000e-03	1.896883482e-01	-5.050048764e-04	2.245286576e-11
-1.100000000e-03	1.896883533e-01	-5.030764093e-04	4.697502214e-12
-1.200000000e-03	1.896883584e-01	-5.011479421e-04	6.007922640e-12
-1.300000000e-03	1.896883634e-01	-4.992194746e-04	1.789392890e-11
-1.400000000e-03	1.896883683e-01	-4.972910069e-04	2.009971689e-11
-1.500000000e-03	1.896883732e-01	-4.953625391e-04	5.305877804e-12
-1.600000000e-03	1.896883780e-01	-4.934340710e-04	1.710366234e-11
-1.700000000e-03	1.896883828e-01	-4.915056028e-04	2.196239729e-11
-1.800000000e-03	1.896883874e-01	-4.895771343e-04	1.658618438e-11
-1.900000000e-03	1.896883921e-01	-4.876486657e-04	7.198949831e-12
-2.000000000e-03	1.896883967e-01	-4.857201969e-04	3.133180611e-11
-2.100000000e-03	1.896884012e-01	-4.837917279e-04	1.951882782e-11
-2.200000000e-03	1.896884057e-01	-4.818632588e-04	2.108255583e-11
-2.300000000e-03	1.896884101e-01	-4.799347894e-04	1.959119197e-11
-2.400000000e-03	1.896884144e-01	-4.780063199e-04	1.399996615e-11
-2.500000000e-03	1.896884187e-01	-4.760778503e-04	2.157401865e-11
-2.600000000e-03	1.896884229e-01	-4.741493804e-04	7.495264853e-12
-2.700000000e-03	1.896884271e-01	-4.722209104e-04	1.152014243e-11
-2.800000000e-03	1.896884312e-01	-4.702924403e-04	8.416213455e-12
-2.900000000e-03	1.896884352e-01	-4.683639699e-04	1.643166403e-11
-3.000000000e-03	1.896884392e-01	-4.664354995e-04	3.210514235e-11
-3.100000000e-03	1.896884432e-01	-4.645070289e-04	1.336285313e-11
-3.200000000e-03	1.896884470e-01	-4.625785581e-04	1.536593349e-11
-3.300000000e-03	1.896884509e-01	-4.606500872e-04	3.113187108e-11
-3.400000000e-03	1.896884546e-01	-4.587216161e-04	1.129666780e-11
-3.500000000e-03	1.896884583e-01	-4.567931450e-04	1.213454257e-11
-3.600000000e-03	1.896884620e-01	-4.548646736e-04	1.440211765e-11
-3.700000000e-03	1.896884655e-01	-4.529362022e-04	4.007722881e-11
-3.800000000e-03	1.896884691e-01	-4.510077306e-04	8.202950677e-12
-3.900000000e-03	1.896884725e-01	-4.490792589e-04	5.164195294e-12
-4.000000000e-03	1.896884759e-01	-4.471507871e-04	2.464084241e-11
-4.100000000e-03	1.896884793e-01	-4.452223151e-04	1.379209328e-11
-4.200000000e-03	1.896884826e-01	-4.432938430e-04	2.197242523e-11
-4.300000000e-03	1.896884858e-01	-4.413653709e-04	8.632554373e-12
-4.400000000e-03	1.896884890e-01	-4.394368986e-04	4.487844572e-11
-4.500000000e-03	1.896884921e-01	-4.375084262e-04	1.695412961e-11
-4.600000000e-03	1.896884951e-01	-4.355799536e-04	8.945212054e-12
-4.700000000e-03	1.896884981e-01	-4.336514810e-04	1.500471702e-11
-4.800000000e-03	1.896885011e-01	-4.317230083e-04	3.122029236e-11
-4.900000000e-03	1.896885039e-01	-4.297945355e-04	1.384539545e-11
-5.000000000e-03	1.896885067e-01	-4.278660626e-04	1.670801713e-11
-5.100000000e-03	1.896885095e-01	-4.259375896e-04	1.977458428e-11
-5.200000000e-03	1.896885122e-01	-4.240091166e-04	2.525018379e-11
-5.300000000e-03	1.896885148e-01	-4.220806434e-04	1.020994571e-11
-5.400000000e-03	1.896885174e-01	-4.201521702e-04	1.987099974e-11
-5.500000000e-03	1.896885200e-01	-4.182236968e-04	1.578245117e-11
-5.600000000e-03	1.896885224e-01	-4.162952234e-04	1.141266676e-11
-5.700000000e-03	1.896885248e-01	-4.143667500e-04	1.115518669e-11
-5.800000000e-03	1.896885272e-01	-4.124382764e-04	2.625364086e-11
-5.900000000e-03	1.896885295e-01	-4.105098028e-04	7.131914600e-12
-6.000000000e-03	1.896885317e-01	-4.085813292e-04	6.378581062e-12
-6.100000000e-03	1.896885339e-01	-4.066528554e-04	5.802934332e-12
-6.200000000e-03	1.896885360e-01	-4.047243817e-04	1.343824810e-11
-6.300000000e-03	1.896885380e-01	-4.027959078e-04	8.164124583e-12
-6.400000000e-03	1.896885400e-01	-4.008674339e-04	2.493264399e-11
-6.500000000e-03	1.896885420e-01	-3.989389600e-04	2.672256291e-11
-6.600000000e-03	1.896885438e-01	-3.970104860e-04	8.574443615e-12
-6.700000000e-03	1.896885457e-01	-3.950820120e-04	9.526203436e-12
-6.800000000e-03	1.896885474e-01	-3.931535379e-04	4.317668789e-12
-6.900000000e-03	1.896885491e-01	-3.912250638e-04	1.232720865e-11
-7.000000000e-03	1.896885508e-01	-3.892965897e-04	8.649365425e-12
-7.100000000e-03	1.896885523e-01	-3.873681155e-04	5.678074837e-11
-7.200000000e-03	1.896885539e-01	-3.854396413e-04	6.957356408e-12
-7.300000000e-03	1.896885553e-01	-3.835111671e-04	6.713190539e-12
-7.400000000e-03	1.896885567e-01	-3.815826928e-04	1.688068511e-11
-7.500000000e-03	1.896885581e-01	-3.796542186e-04	1.286927030e-11
-7.600000000e-03	1.896885594e-01	-3.777257443e-04	2.334160599e-10
-7.700000000e-03	1.896885606e-01	-3.757972700e-04	6.774518401e-12
-7.800000000e-03	1.896885618e-01	-3.738687957e-04	1.387129492e-11
-7.900000000e-03	1.896885629e-01	-3.719403214e-04	2.661086410e-11
-8.000000000e-03	1.896885639e-01	-3.700118471e-04	1.293152853e-11
-8.100000000e-03	1.896885649e-01	-3.680833728e-04	1.080996483e-11
-8.200000000e-03	1.896885659e-01	-3.661548985e-04	1.637451345e-11
-8.300000000e-03	1.896885668e-01	-3.642264242e-04	1.682496295e-11
-8.400000000e-03	1.896885676e-01	-3.622979499e-04	9.580970379e-12
-8.500000000e-03	1.896885683e-01	-3.603694756e-04	1.031785215e-11
-8.600000000e-03	1.896885690e-01	-3.584410013e-04	1.276809767e-11
-8.700000000e-03	1.896885697e-01	-3.565125271e-04	2.286023238e-11
-8.800000000e-03	1.896885703e-01	-3.545840528e-04	3.833247633e-11
-8.900000000e-03	1.896885708e-01	-3.526555786e-04	1.991945690e-11
-9.000000000e-03	1.896885713e-01	-3.507271044e-04	5.660956250e-12
-9.100000000e-03	1.896885717e-01	-3.487986303e-04	2.516367231e-11
-9.200000000e-03	1.896885720e-01	-3.468701562e-04	1.618725676e-11
-9.300000000e-03	1.896885723e-01	-3.449416821e-04	1.338421472e-11
-9.400000000e-03	1.896885725e-01	-3.430132080e-04	1.986978365e-11
-9.500000000e-03	1.896885727e-01	-3.410847340e-04	8.039295154e-12
-9.600000000e-03	1.896885728e-01	-3.391562601e-04	2.294907027e-11
-9.700000000e-03	1.896885729e-01	-3.372277861e-04	1.544010604e-11
-9.800000000e-03	1.896885729e-01	-3.352993123e-04	4.719278119e-11
-9.900000000e-03	1.896885728e-01	-3.333708385e-04	4.419699989e-12
-1.000000000e-02	1.896885727e-01	-3.314423647e-04	1.600136005e-11
-1.010000000e-02	1.896885725e-01	-3.295138910e-04	6.380017948e-12
-1.020000000e-02	1.896885723e-01	-3.275854174e-04	1.621742233e-11
-1.030000000e-02	1.896885720e-01	-3.256569438e-04	3.810044234e-11
-1.040000000e-02	1.896885716e-01	-3.237284703e-04	1.354746474e-11
-1.050000000e-02	1.896885712e-01	-3.217999968e-04	9.493888547e-12
-1.060000000e-02	1.896885707e-01	-3.198715235e-04	1.050007092e-11
-1.070000000e-02	1.896885702e-01	-3.179430502e-04	7.185509142e-12
-1.080000000e-02	1.896885696e-01	-3.160145770e-04	3.008297961e-11
-1.090000000e-02	1.896885689e-01	-3.140861039e-04	1.186355408e-11
-1.100000000e-02	1.896885682e-01	-3.121576308e-04	6.215777003e-12
-1.110000000e-02	1.896885675e-01	-3.102291579e-04	1.364487652e-11
-1.120000000e-02	1.896885666e-01	-3.083006850e-04	9.522712943e-12
-1.130000000e-02	1.896885658e-01	-3.063722123e-04	7.398757333e-11
-1.140000000e-02	1.896885648e-01	-3.044437396e-04	1.246592035e-11
-1.150000000e-02	1.896885638e-01	-3.025152670e-04	1.484697165e-11
-1.160000000e-02	1.896885628e-01	-3.005867946e-04	7.990657113e-12
-1.170000000e-02	1.896885616e-01	-2.986583222e-04	3.071820758e-11
-1.180000000e-02	1.896885605e-01	-2.967298500e-04	1.039887424e-11
-1.190000000e-02	1.896885592e-01	-2.948013779e-04	3.715374990e-11
-1.200000000e-02	1.896885579e-01	-2.928729058e-04	1.276743493e-11
-1.210000000e-02	1.896885566e-01	-2.909444339e-04	1.161421498e-11
-1.220000000e-02	1.896885552e-01	-2.890159622e-04	3.260882990e-11
-1.230000000e-02	1.896885537e-01	-2.870874905e-04	1.268152754e-11
-1.240000000e-02	1.896885521e-01	-2.851590190e-04	1.125049608e-11
-1.250000000e-02	1.896885506e-01	-2.832305476e-04	2.195082399e-11
-1.260000000e-02	1.896885489e-01	-2.813020763e-04	2.331900973e-11
-1.270000000e-02	1.896885472e-01	-2.793736052e-04	2.299076429e-11
-1.280000000e-02	1.896885454e-01	-2.774451342e-04	2.603180719e-11
-1.290000000e-02	1.896885436e-01	-2.755166634e-04	1.179959030e-11
-1.300000000e-02	1.896885417e-01	-2.735881927e-04	9.685297784e-12
-1.310000000e-02	1.896885398e-01	-2.716597221e-04	1.107163713e-11
-1.320000000e-02	1.896885378e-01	-2.697312517e-04	6.674287071e-11
-1.330000000e-02	1.896885357e-01	-2.678027815e-04	7.651945446e-12
-1.340000000e-02	1.896885336e-01	-2.658743114e-04	9.977318568e-12
-1.350000000e-02	1.896885314e-01	-2.639458415e-04	1.419189770e-11
-1.360000000e-02	1.896885292e-01	-2.620173717e-04	1.094325084e-11
-1.370000000e-02	1.896885269e-01	-2.600889021e-04	2.988509733e-11
-1.380000000e-02	1.896885245e-01	-2.581604327e-04	6.802968050e-12
-1.390000000e-02	1.896885221e-01	-2.562319634e-04	1.382437458e-11
-1.400000000e-02	1.896885197e-01	-2.543034944e-04	1.010592860e-11
-1.410000000e-02	1.896885171e-01	-2.523750255e-04	9.274483017e-12
-1.420000000e-02	1.896885145e-01	-2.504465567e-04	1.677522600e-11
-1.430000000e-02	1.896885119e-01	-2.485180882e-04	2.758968909e-11
-1.440000000e-02	1.896885092e-01	-2.465896199e-04	6.911701032e-12
-1.450000000e-02	1.896885064e-01	-2.446611517e-04	1.105355403e-11
-1.460000000e-02	1.896885036e-01	-2.427326837e-04	1.006826013e-11
-1.470000000e-02	1.896885007e-01	-2.408042160e-04	1.858577160e-11
-1.480000000e-02	1.896884978e-01	-2.388757484e-04	1.621639512e-11
-1.490000000e-02	1.896884948e-01	-2.369472810e-04	1.477204564e-11
-1.500000000e-02	1.896884917e-01	-2.350188139e-04	1.513359503e-11
-1.510000000e-02	1.896884886e-01	-2.330903469e-04	3.211334511e-11
-1.520000000e-02	1.896884854e-01	-2.311618802e-04	1.117810763e-11
-1.530000000e-02	1.896884822e-01	-2.292334136e-04	1.652937879e-11
-1.540000000e-02	1.896884789e-01	-2.273049473e-04	4.019573695e-11
-1.550000000e-02	1.896884755e-01	-2.253764812e-04	1.337441564e-11
-1.560000000e-02	1.896884721e-01	-2.234480153e-04	2.885331648e-11
-1.570000000e-02	1.896884686e-01	-2.215195497e-04	2.881569003e-11
-1.580000000e-02	1.896884651e-01	-2.195910843e-04	8.077825917e-12
-1.590000000e-02	1.896884615e-01	-2.176626191e-04	1.288808223e-11
-1.600000000e-02	1.896884579e-01	-2.157341541e-04	8.696503043e-12
-1.610000000e-02	1.896884542e-01	-2.138056894e-04	1.005204267e-11
-1.620000000e-02	1.896884504e-01	-2.118772250e-04	5.595087401e-12
-1.630000000e-02	1.896884466e-01	-2.099487607e-04	1.193067676e-11
-1.640000000e-02	1.896884427e-01	-2.080202967e-04	1.572126509e-11
-1.650000000e-02	1.896884388e-01	-2.060918330e-04	2.218435706e-11
-1.660000000e-02	1.896884348e-01	-2.041633695e-04	8.421077990e-12
-1.670000000e-02	1.896884307e-01	-2.022349063e-04	9.764602679e-12
-1.680000000e-02	1.896884266e-01	-2.003064433e-04	1.665426043e-11
-1.690000000e-02	1.896884224e-01	-1.983779806e-04	5.983271180e-11
-1.700000000e-02	1.896884182e-01	-1.964495182e-04	3.499971638e-11
-1.710000000e-02	1.896884139e-01	-1.945210560e-04	2.254015033e-11
-1.720000000e-02	1.896884095e-01	-1.925925941e-04	4.753223957e-11
-1.730000000e-02	1.896884051e-01	-1.906641325e-04	3.565835331e-11
-1.740000000e-02	1.896884006e-01	-1.887356711e-04	6.288964405e-12
-1.750000000e-02	1.896883961e-01	-1.868072101e-04	1.604041177e-11
-1.760000000e-02	1.896883915e-01	-1.848787493e-04	9.798644472e-12
-1.770000000e-02	1.896883869e-01	-1.829502888e-04	3.324863707e-11
-1.780000000e-02	1.896883822e-01	-1.810218286e-04	1.188906362e-11
-1.790000000e-02	1.896883774e-01	-1.790933686e-04	1.906979898e-11
-1.800000000e-02	1.896883726e-01	-1.771649090e-04	1.347857018e-11
-1.810000000e-02	1.896883677e-01	-1.752364497e-04	1.142612181e-11
-1.820000000e-02	1.896883628e-01	-1.733079906e-04	1.128235754e-11
-1.830000000e-02	1.896883578e-01	-1.713795319e-04	1.013236474e-11
-1.840000000e-02	1.896883527e-01	-1.694510735e-04	4.672148493e-12
-1.850000000e-02	1.896883476e-01	-1.675226154e-04	1.112590052e-11
-1.860000000e-02	1.896883424e-01	-1.655941576e-04	2.516899104e-11
-1.870000000e-02	1.896883372e-01	-1.636657001e-04	4.682540212e-11
-1.880000000e-02	1.896883319e-01	-1.617372429e-04	9.539593735e-12
-1.890000000e-02	1.896883265e-01	-1.598087861e-04	4.490000226e-11
-1.900000000e-02	1.896883211e-01	-1.578803296e-04	1.296271811e-11
-1.910000000e-02	1.896883157e-01	-1.559518734e-04	6.672946489e-12
-1.920000000e-02	1.896883101e-01	-1.540234175e-04	5.610067405e-12
-1.930000000e-02	1.896883046e-01	-1.520949620e-04	4.663109949e-11
-1.940000000e-02	1.896882989e-01	-1.501665068e-04	1.520361755e-11
-1.950000000e-02	1.896882932e-01	-1.482380519e-04	2.566126295e-11
-1.960000000e-02	1.896882874e-01	-1.463095974e-04	5.208476301e-12
-1.970000000e-02	1.896882816e-01	-1.443811433e-04	2.679368554e-11
-1.980000000e-02	1.896882757e-01	-1.424526894e-04	1.251704963e-11
-1.990000000e-02	1.896882698e-01	-1.405242360e-04	1.396795964e-11
-2.000000000e-02	1.896882638e-01	-1.385957828e-04	3.213875183e-11
-2.010000000e-02	1.896882577e-01	-1.366673301e-04	1.092241760e-11
-2.020000000e-02	1.896882516e-01	-1.347388777e-04	4.304196294e-11
-2.030000000e-02	1.896882455e-01	-1.328104257e-04	1.352937448e-11
-2.040000000e-02	1.896882392e-01	-1.308819740e-04	7.788540216e-12
-2.050000000e-02	1.896882329e-01	-1.289535227e-04	1.923933073e-11
-2.060000000e-02	1.896882266e-01	-1.270250718e-04	1.834632709e-11
-2.070000000e-02	1.896882202e-01	-1.250966212e-04	4.085492605e-11
-2.080000000e-02	1.896882137e-01	-1.231681710e-04	1.844916600e-11
-2.090000000e-02	1.896882072e-01	-1.212397212e-04	3.943876539e-11
-2.100000000e-02	1.896882006e-01	-1.193112718e-04	8.531528331e-12
-2.110000000e-02	1.896881940e-01	-1.173828228e-04	2.025180318e-11
-2.120000000e-02	1.896881873e-01	-1.154543742e-04	1.453468088e-11
-2.130000000e-02	1.896881805e-01	-1.135259259e-04	7.240912445e-12
-2.140000000e-02	1.896881737e-01	-1.115974781e-04	1.322819072e-11
-2.150000000e-02	1.896881668e-01	-1.096690306e-04	1.126117176e-11
-2.160000000e-02	1.896881599e-01	-1.077405836e-04	1.394041141e-11
-2.170000000e-02	1.896881529e-01	-1.058121370e-04	8.931584979e-12
-2.180000000e-02	1.896881458e-01	-1.038836907e-04	9.408192114e-12
-2.190000000e-02	1.896881387e-01	-1.019552449e-04	2.384718840e-11
-2.200000000e-02	1.896881315e-01	-1.000267995e-04	3.033823504e-11
-2.210000000e-02	1.896881243e-01	-9.809835450e-05	7.241784068e-12
-2.220000000e-02	1.896881170e-01	-9.616990993e-05	7.913485243e-12
-2.230000000e-02	1.896881096e-01	-9.424146578e-05	1.019704175e-11
-2.240000000e-02	1.896881022e-01	-9.231302206e-05	3.000094526e-11
-2.250000000e-02	1.896880948e-01	-9.038457877e-05	8.704469541e-12
-2.260000000e-02	1.896880872e-01	-8.845613590e-05	1.528099758e-11
-2.270000000e-02	1.896880797e-01	-8.652769348e-05	1.585774241e-11
-2.280000000e-02	1.896880720e-01	-8.459925149e-05	9.675597001e-12
-2.290000000e-02	1.896880643e-01	-8.267080994e-05	1.329258748e-11
-2.300000000e-02	1.896880565e-01	-8.074236883e-05	5.770803897e-12
-2.310000000e-02	1.896880487e-01	-7.881392817e-05	2.569520171e-11
-2.320000000e-02	1.896880409e-01	-7.688548796e-05	7.356061404e-12
-2.330000000e-02	1.896880329e-01	-7.495704820e-05	1.157512492e-11
-2.340000000e-02	1.896880249e-01	-7.302860890e-05	3.456657506e-11
-2.350000000e-02	1.896880169e-01	-7.110017005e-05	6.482189271e-11
-2.360000000e-02	1.896880088e-01	-6.917173167e-05	1.162240659e-11
-2.370000000e-02	1.896880006e-01	-6.724329375e-05	1.385247526e-11
-2.380000000e-02	1.896879923e-01	-6.531485630e-05	6.913432759e-12
-2.390000000e-02	1.896879841e-01	-6.338641932e-05	1.168096174e-11
-2.400000000e-02	1.896879757e-01	-6.145798281e-05	1.119586736e-11
-2.410000000e-02	1.896879673e-01	-5.952954678e-05	1.230441816e-10
-2.420000000e-02	1.896879588e-01	-5.760111123e-05	8.817968478e-12
-2.430000000e-02	1.896879503e-01	-5.567267616e-05	7.902382985e-12
-2.440000000e-02	1.896879417e-01	-5.374424158e-05	1.456617172e-11
-2.450000000e-02	1.896879331e-01	-5.181580748e-05	2.875243699e-11
-2.460000000e-02	1.896879244e-01	-4.988737388e-05	1.052722623e-11
-2.470000000e-02	1.896879156e-01	-4.795894077e-05	9.581057308e-12
-2.480000000e-02	1.896879068e-01	-4.603050815e-05	1.043332059e-11
-2.490000000e-02	1.896878979e-01	-4.410207604e-05	1.675229352e-11
-2.500000000e-02	1.896878890e-01	-4.217364443e-05	1.246847797e-11
-2.510000000e-02	1.896878800e-01	-4.024521332e-05	2.208614687e-11
-2.520000000e-02	1.896878709e-01	-3.831678273e-05	1.180149120e-11
-2.530000000e-02	1.896878618e-01	-3.638835265e-05	1.031385610e-11
-2.540000000e-02	1.896878527e-01	-3.445992308e-05	9.650531906e-12
-2.550000000e-02	1.896878434e-01	-3.253149403e-05	7.244502245e-12
-2.560000000e-02	1.896878341e-01	-3.060306550e-05	1.613366078e-11
-2.570000000e-02	1.896878248e-01	-2.867463750e-05	7.659509717e-12
-2.580000000e-02	1.896878154e-01	-2.674621002e-05	1.085466616e-11
-2.590000000e-02	1.896878059e-01	-2.481778307e-05	2.530218437e-11
-2.600000000e-02	1.896877964e-01	-2.288935666e-05	1.686693665e-11
-2.610000000e-02	1.896877868e-01	-2.096093078e-05	1.135008734e-11
-2.620000000e-02	1.896877772e-01	-1.903250544e-05	1.355588458e-11
-2.630000000e-02	1.896877675e-01	-1.710408064e-05	2.210507664e-11
-2.640000000e-02	1.896877577e-01	-1.517565639e-05	3.027090149e-11
-2.650000000e-02	1.896877479e-01	-1.324723268e-05	2.207108483e-11
-2.660000000e-02	1.896877380e-01	-1.131880953e-05	9.085268766e-12
-2.670000000e-02	1.896877281e-01	-9.390386926e-06	1.657239575e-11
-2.680000000e-02	1.896877181e-01	-7.461964881e-06	2.295596262e-11
-2.690000000e-02	1.896877081e-01	-5.533543399e-06	6.607229055e-12
-2.700000000e-02	1.896876979e-01	-3.605122479e-06	3.698571699e-11
-2.710000000e-02	1.896876878e-01	-1.676702121e-06	2.167327991e-11
-2.720000000e-02	1.896876775e-01	2.517176630e-07	2.831416179e-11
-2.730000000e-02	1.896876673e-01	2.180136879e-06	1.219918964e-11
-2.740000000e-02	1.896876569e-01	4.108555520e-06	1.235198581e-11
-2.750000000e-02	1.896876465e-01	6.036973579e-06	6.276580057e-11
-2.760000000e-02	1.896876360e-01	7.965391064e-06	2.857994638e-11
-2.770000000e-02	1.896876255e-01	9.893807961e-06	1.202001012e-11
-2.780000000e-02	1.896876149e-01	1.182222427e-05	1.256336677e-11
-2.790000000e-02	1.896876043e-01	1.375063999e-05	1.171806295e-11
-2.800000000e-02	1.896875936e-01	1.567905512e-05	5.973261757e-12
-2.810000000e-02	1.896875828e-01	1.760746966e-05	1.325663711e-11
-2.820000000e-02	1.896875720e-01	1.953588359e-05	1.503211811e-11
-2.830000000e-02	1.896875611e-01	2.146429693e-05	9.476029490e-12
-2.840000000e-02	1.896875502e-01	2.339270965e-05	2.582681457e-11
-2.850000000e-02	1.896875392e-01	2.532112178e-05	5.793976313e-12
-2.860000000e-02	1.896875282e-01	2.724953329e-05	8.914836941e-12
-2.870000000e-02	1.896875171e-01	2.917794419e-05	6.057132124e-12
-2.880000000e-02	1.896875059e-01	3.110635447e-05	1.968921700e-11
-2.890000000e-02	1.896874947e-01	3.303476413e-05	3.032551989e-11
-2.900000000e-02	1.896874834e-01	3.496317317e-05	7.016285840e-12
-2.910000000e-02	1.896874720e-01	3.689158158e-05	1.976502059e-11
-2.920000000e-02	1.896874606e-01	3.881998937e-05	9.921855562e-12
-2.930000000e-02	1.896874492e-01	4.074839652e-05	1.319471233e-11
-2.940000000e-02	1.896874376e-01	4.267680304e-05	2.268705530e-11
-2.950000000e-02	1.896874261e-01	4.460520892e-05	7.276142659e-12
-2.960000000e-02	1.896874144e-01	4.653361417e-05	1.799550880e-11
-2.970000000e-02	1.896874027e-01	4.846201876e-05	8.689107909e-12
-2.980000000e-02	1.896873910e-01	5.039042272e-05	6.282542513e-12
-2.990000000e-02	1.896873792e-01	5.231882602e-05	1.128817928e-11
-3.000000000e-02	1.896873673e-01	5.424722867e-05	2.574069207e-11
