# Im(epsi1)     Re(omega/c)      Im(omega/c)      Eq(det).Opt det CON kz, R=0.5 \mum, mu_c=0.3, Re(epsi1)=3.90solve_det_conkz_vs_kz.py
0.000000000e+00	1.896838431e-01	-5.242856279e-04	1.894938783e-11
-1.000000000e-04	1.896838488e-01	-5.223571850e-04	3.459478428e-11
-2.000000000e-04	1.896838544e-01	-5.204287420e-04	1.755981467e-11
-3.000000000e-04	1.896838600e-01	-5.185002987e-04	8.862781368e-12
-4.000000000e-04	1.896838655e-01	-5.165718552e-04	7.571601541e-12
-5.000000000e-04	1.896838710e-01	-5.146434114e-04	1.502608001e-11
-6.000000000e-04	1.896838764e-01	-5.127149674e-04	3.457325736e-11
-7.000000000e-04	1.896838817e-01	-5.107865232e-04	1.074047967e-11
-8.000000000e-04	1.896838870e-01	-5.088580788e-04	1.892511729e-11
-9.000000000e-04	1.896838922e-01	-5.069296342e-04	1.444713081e-11
-1.000000000e-03	1.896838974e-01	-5.050011893e-04	1.518547612e-11
-1.100000000e-03	1.896839025e-01	-5.030727442e-04	1.560604536e-11
-1.200000000e-03	1.896839076e-01	-5.011442990e-04	1.272811311e-11
-1.300000000e-03	1.896839126e-01	-4.992158535e-04	1.107012526e-11
-1.400000000e-03	1.896839175e-01	-4.972874078e-04	1.609415954e-11
-1.500000000e-03	1.896839224e-01	-4.953589620e-04	5.399654609e-12
-1.600000000e-03	1.896839272e-01	-4.934305159e-04	2.343568678e-11
-1.700000000e-03	1.896839319e-01	-4.915020697e-04	1.500498390e-11
-1.800000000e-03	1.896839366e-01	-4.895736232e-04	8.739695756e-12
-1.900000000e-03	1.896839413e-01	-4.876451766e-04	7.348036423e-12
-2.000000000e-03	1.896839459e-01	-4.857167298e-04	2.706384458e-11
-2.100000000e-03	1.896839504e-01	-4.837882828e-04	3.395097046e-11
-2.200000000e-03	1.896839548e-01	-4.818598356e-04	8.684164359e-12
-2.300000000e-03	1.896839592e-01	-4.799313883e-04	2.786005847e-11
-2.400000000e-03	1.896839636e-01	-4.780029408e-04	2.172671349e-11
-2.500000000e-03	1.896839679e-01	-4.760744931e-04	2.420849021e-11
-2.600000000e-03	1.896839721e-01	-4.741460453e-04	4.841161486e-12
-2.700000000e-03	1.896839763e-01	-4.722175972e-04	1.049676246e-11
-2.800000000e-03	1.896839804e-01	-4.702891491e-04	1.162943781e-11
-2.900000000e-03	1.896839844e-01	-4.683607008e-04	5.307592138e-12
-3.000000000e-03	1.896839884e-01	-4.664322523e-04	9.264575194e-12
-3.100000000e-03	1.896839924e-01	-4.645038037e-04	1.750855222e-11
-3.200000000e-03	1.896839962e-01	-4.625753549e-04	1.035082515e-11
-3.300000000e-03	1.896840001e-01	-4.606469060e-04	1.766878625e-11
-3.400000000e-03	1.896840038e-01	-4.587184569e-04	9.182055406e-12
-3.500000000e-03	1.896840075e-01	-4.567900077e-04	7.609634747e-12
-3.600000000e-03	1.896840111e-01	-4.548615584e-04	1.926668543e-11
-3.700000000e-03	1.896840147e-01	-4.529331089e-04	9.006843014e-12
-3.800000000e-03	1.896840183e-01	-4.510046594e-04	1.356901635e-11
-3.900000000e-03	1.896840217e-01	-4.490762096e-04	1.105301571e-11
-4.000000000e-03	1.896840251e-01	-4.471477598e-04	5.035986554e-11
-4.100000000e-03	1.896840285e-01	-4.452193098e-04	7.744753543e-12
-4.200000000e-03	1.896840318e-01	-4.432908598e-04	3.049290309e-11
-4.300000000e-03	1.896840350e-01	-4.413624096e-04	3.064273294e-11
-4.400000000e-03	1.896840382e-01	-4.394339593e-04	1.565199884e-11
-4.500000000e-03	1.896840413e-01	-4.375055089e-04	1.152345423e-11
-4.600000000e-03	1.896840443e-01	-4.355770583e-04	1.309686512e-11
-4.700000000e-03	1.896840473e-01	-4.336486077e-04	9.322270808e-12
-4.800000000e-03	1.896840502e-01	-4.317201570e-04	6.574877301e-12
-4.900000000e-03	1.896840531e-01	-4.297917062e-04	2.273525730e-11
-5.000000000e-03	1.896840559e-01	-4.278632553e-04	2.286734229e-11
-5.100000000e-03	1.896840587e-01	-4.259348043e-04	1.350407699e-11
-5.200000000e-03	1.896840614e-01	-4.240063532e-04	5.194615436e-12
-5.300000000e-03	1.896840640e-01	-4.220779021e-04	9.641665108e-12
-5.400000000e-03	1.896840666e-01	-4.201494508e-04	6.045049502e-12
-5.500000000e-03	1.896840691e-01	-4.182209995e-04	1.042825108e-11
-5.600000000e-03	1.896840716e-01	-4.162925481e-04	4.710919804e-11
-5.700000000e-03	1.896840740e-01	-4.143640966e-04	1.118195023e-11
-5.800000000e-03	1.896840764e-01	-4.124356451e-04	4.286742922e-12
-5.900000000e-03	1.896840786e-01	-4.105071934e-04	1.054243174e-11
-6.000000000e-03	1.896840809e-01	-4.085787418e-04	1.170529405e-11
-6.100000000e-03	1.896840831e-01	-4.066502900e-04	5.802023642e-12
-6.200000000e-03	1.896840852e-01	-4.047218382e-04	2.936974327e-11
-6.300000000e-03	1.896840872e-01	-4.027933864e-04	9.836436874e-12
-6.400000000e-03	1.896840892e-01	-4.008649345e-04	5.584161447e-12
-6.500000000e-03	1.896840911e-01	-3.989364826e-04	3.245039813e-11
-6.600000000e-03	1.896840930e-01	-3.970080306e-04	1.012767382e-11
-6.700000000e-03	1.896840948e-01	-3.950795785e-04	3.772501599e-11
-6.800000000e-03	1.896840966e-01	-3.931511265e-04	2.146654686e-11
-6.900000000e-03	1.896840983e-01	-3.912226743e-04	2.320990354e-11
-7.000000000e-03	1.896840999e-01	-3.892942222e-04	1.970143888e-11
-7.100000000e-03	1.896841015e-01	-3.873657700e-04	1.616326631e-11
-7.200000000e-03	1.896841031e-01	-3.854373178e-04	1.098620253e-11
-7.300000000e-03	1.896841045e-01	-3.835088656e-04	7.084010170e-12
-7.400000000e-03	1.896841059e-01	-3.815804133e-04	1.350528965e-11
-7.500000000e-03	1.896841073e-01	-3.796519611e-04	1.198411330e-11
-7.600000000e-03	1.896841086e-01	-3.777235088e-04	6.161891915e-11
-7.700000000e-03	1.896841098e-01	-3.757950565e-04	1.529474219e-11
-7.800000000e-03	1.896841110e-01	-3.738666042e-04	2.143591713e-11
-7.900000000e-03	1.896841121e-01	-3.719381519e-04	8.534937776e-12
-8.000000000e-03	1.896841131e-01	-3.700096996e-04	1.271063239e-11
-8.100000000e-03	1.896841141e-01	-3.680812472e-04	4.636823881e-11
-8.200000000e-03	1.896841151e-01	-3.661527949e-04	4.481070615e-11
-8.300000000e-03	1.896841159e-01	-3.642243426e-04	1.258324365e-11
-8.400000000e-03	1.896841168e-01	-3.622958903e-04	1.543251372e-11
-8.500000000e-03	1.896841175e-01	-3.603674380e-04	1.260969231e-11
-8.600000000e-03	1.896841182e-01	-3.584389857e-04	6.331992813e-11
-8.700000000e-03	1.896841189e-01	-3.565105335e-04	1.348708647e-11
-8.800000000e-03	1.896841195e-01	-3.545820813e-04	1.318812527e-11
-8.900000000e-03	1.896841200e-01	-3.526536290e-04	1.887332424e-11
-9.000000000e-03	1.896841204e-01	-3.507251768e-04	2.475247165e-11
-9.100000000e-03	1.896841208e-01	-3.487967247e-04	1.284905214e-11
-9.200000000e-03	1.896841212e-01	-3.468682726e-04	4.119234702e-11
-9.300000000e-03	1.896841215e-01	-3.449398205e-04	7.496014846e-12
-9.400000000e-03	1.896841217e-01	-3.430113684e-04	1.175070129e-11
-9.500000000e-03	1.896841219e-01	-3.410829164e-04	9.661653295e-12
-9.600000000e-03	1.896841220e-01	-3.391544644e-04	1.048819418e-11
-9.700000000e-03	1.896841221e-01	-3.372260125e-04	4.423607129e-11
-9.800000000e-03	1.896841221e-01	-3.352975606e-04	1.472135766e-11
-9.900000000e-03	1.896841220e-01	-3.333691088e-04	1.015032697e-11
-1.000000000e-02	1.896841219e-01	-3.314406570e-04	1.324361736e-11
-1.010000000e-02	1.896841217e-01	-3.295122053e-04	1.192217383e-11
-1.020000000e-02	1.896841215e-01	-3.275837537e-04	2.249718526e-11
-1.030000000e-02	1.896841212e-01	-3.256553021e-04	4.345296589e-12
-1.040000000e-02	1.896841208e-01	-3.237268506e-04	1.782274895e-11
-1.050000000e-02	1.896841204e-01	-3.217983991e-04	1.528659269e-11
-1.060000000e-02	1.896841199e-01	-3.198699478e-04	1.064386875e-11
-1.070000000e-02	1.896841194e-01	-3.179414965e-04	1.507937122e-11
-1.080000000e-02	1.896841188e-01	-3.160130453e-04	5.966630308e-12
-1.090000000e-02	1.896841181e-01	-3.140845941e-04	1.268591508e-11
-1.100000000e-02	1.896841174e-01	-3.121561431e-04	6.832185676e-12
-1.110000000e-02	1.896841167e-01	-3.102276921e-04	1.963852595e-11
-1.120000000e-02	1.896841158e-01	-3.082992413e-04	1.520052810e-11
-1.130000000e-02	1.896841150e-01	-3.063707905e-04	8.240095155e-12
-1.140000000e-02	1.896841140e-01	-3.044423398e-04	1.867104308e-11
-1.150000000e-02	1.896841130e-01	-3.025138893e-04	1.936765891e-11
-1.160000000e-02	1.896841119e-01	-3.005854388e-04	2.322782457e-11
-1.170000000e-02	1.896841108e-01	-2.986569884e-04	2.010547210e-11
-1.180000000e-02	1.896841096e-01	-2.967285382e-04	3.839807401e-11
-1.190000000e-02	1.896841084e-01	-2.948000880e-04	6.935854977e-12
-1.200000000e-02	1.896841071e-01	-2.928716380e-04	8.623023230e-12
-1.210000000e-02	1.896841058e-01	-2.909431881e-04	7.502229095e-11
-1.220000000e-02	1.896841043e-01	-2.890147383e-04	5.236737813e-11
-1.230000000e-02	1.896841029e-01	-2.870862887e-04	2.662743576e-11
-1.240000000e-02	1.896841013e-01	-2.851578391e-04	5.259443745e-11
-1.250000000e-02	1.896840998e-01	-2.832293897e-04	1.030276000e-11
-1.260000000e-02	1.896840981e-01	-2.813009405e-04	7.990048542e-12
-1.270000000e-02	1.896840964e-01	-2.793724913e-04	6.041211883e-11
-1.280000000e-02	1.896840946e-01	-2.774440424e-04	1.253150929e-11
-1.290000000e-02	1.896840928e-01	-2.755155935e-04	1.958981298e-11
-1.300000000e-02	1.896840909e-01	-2.735871448e-04	9.837478975e-12
-1.310000000e-02	1.896840890e-01	-2.716586962e-04	1.657801731e-11
-1.320000000e-02	1.896840870e-01	-2.697302478e-04	2.096911740e-11
-1.330000000e-02	1.896840849e-01	-2.678017996e-04	2.120228424e-11
-1.340000000e-02	1.896840828e-01	-2.658733515e-04	8.750882079e-12
-1.350000000e-02	1.896840806e-01	-2.639449036e-04	1.285474856e-11
-1.360000000e-02	1.896840784e-01	-2.620164558e-04	1.156149096e-11
-1.370000000e-02	1.896840761e-01	-2.600880082e-04	7.077058219e-12
-1.380000000e-02	1.896840737e-01	-2.581595608e-04	1.339987026e-11
-1.390000000e-02	1.896840713e-01	-2.562311135e-04	1.015494386e-10
-1.400000000e-02	1.896840688e-01	-2.543026664e-04	4.756507775e-12
-1.410000000e-02	1.896840663e-01	-2.523742195e-04	8.933764094e-12
-1.420000000e-02	1.896840637e-01	-2.504457728e-04	1.253537216e-11
-1.430000000e-02	1.896840611e-01	-2.485173262e-04	9.820876228e-11
-1.440000000e-02	1.896840584e-01	-2.465888799e-04	2.291075413e-11
-1.450000000e-02	1.896840556e-01	-2.446604337e-04	1.359722544e-11
-1.460000000e-02	1.896840528e-01	-2.427319877e-04	2.273589834e-11
-1.470000000e-02	1.896840499e-01	-2.408035420e-04	5.403871191e-11
-1.480000000e-02	1.896840470e-01	-2.388750964e-04	4.961033506e-12
-1.490000000e-02	1.896840440e-01	-2.369466510e-04	9.150292939e-12
-1.500000000e-02	1.896840409e-01	-2.350182058e-04	2.637749694e-11
-1.510000000e-02	1.896840378e-01	-2.330897609e-04	1.343133052e-11
-1.520000000e-02	1.896840346e-01	-2.311613161e-04	3.368509794e-11
-1.530000000e-02	1.896840314e-01	-2.292328716e-04	1.110566886e-11
-1.540000000e-02	1.896840281e-01	-2.273044273e-04	4.063271540e-11
-1.550000000e-02	1.896840247e-01	-2.253759831e-04	1.527100357e-11
-1.560000000e-02	1.896840213e-01	-2.234475393e-04	9.734121066e-12
-1.570000000e-02	1.896840178e-01	-2.215190956e-04	1.779093780e-11
-1.580000000e-02	1.896840143e-01	-2.195906522e-04	1.219823673e-11
-1.590000000e-02	1.896840107e-01	-2.176622090e-04	9.551973064e-12
-1.600000000e-02	1.896840071e-01	-2.157337660e-04	1.399873709e-11
-1.610000000e-02	1.896840034e-01	-2.138053233e-04	6.829636145e-11
-1.620000000e-02	1.896839996e-01	-2.118768808e-04	6.247034172e-11
-1.630000000e-02	1.896839958e-01	-2.099484386e-04	2.245439571e-11
-1.640000000e-02	1.896839919e-01	-2.080199966e-04	1.942180465e-11
-1.650000000e-02	1.896839880e-01	-2.060915549e-04	1.482218826e-11
-1.660000000e-02	1.896839840e-01	-2.041631134e-04	1.613793764e-11
-1.670000000e-02	1.896839799e-01	-2.022346722e-04	6.812448913e-12
-1.680000000e-02	1.896839758e-01	-2.003062312e-04	1.254948679e-11
-1.690000000e-02	1.896839716e-01	-1.983777905e-04	1.406339865e-11
-1.700000000e-02	1.896839674e-01	-1.964493500e-04	1.956469391e-11
-1.710000000e-02	1.896839631e-01	-1.945209098e-04	1.461308923e-11
-1.720000000e-02	1.896839587e-01	-1.925924699e-04	1.859332432e-11
-1.730000000e-02	1.896839543e-01	-1.906640303e-04	1.347138443e-11
-1.740000000e-02	1.896839498e-01	-1.887355909e-04	1.039459427e-11
-1.750000000e-02	1.896839453e-01	-1.868071519e-04	1.281251354e-11
-1.760000000e-02	1.896839407e-01	-1.848787131e-04	2.321881674e-11
-1.770000000e-02	1.896839361e-01	-1.829502746e-04	2.324806627e-11
-1.780000000e-02	1.896839314e-01	-1.810218363e-04	1.028051664e-11
-1.790000000e-02	1.896839266e-01	-1.790933984e-04	1.827942285e-11
-1.800000000e-02	1.896839218e-01	-1.771649608e-04	5.234131014e-11
-1.810000000e-02	1.896839169e-01	-1.752365234e-04	6.446470408e-12
-1.820000000e-02	1.896839120e-01	-1.733080864e-04	1.150616524e-10
-1.830000000e-02	1.896839070e-01	-1.713796497e-04	2.076154832e-11
-1.840000000e-02	1.896839019e-01	-1.694512132e-04	2.890746050e-11
-1.850000000e-02	1.896838968e-01	-1.675227771e-04	1.105723383e-11
-1.860000000e-02	1.896838916e-01	-1.655943413e-04	8.363259345e-12
-1.870000000e-02	1.896838864e-01	-1.636659058e-04	1.806424088e-11
-1.880000000e-02	1.896838811e-01	-1.617374706e-04	7.092645055e-12
-1.890000000e-02	1.896838757e-01	-1.598090358e-04	5.058460874e-12
-1.900000000e-02	1.896838703e-01	-1.578806013e-04	1.749665461e-11
-1.910000000e-02	1.896838649e-01	-1.559521671e-04	8.076393684e-12
-1.920000000e-02	1.896838593e-01	-1.540237332e-04	1.281364777e-10
-1.930000000e-02	1.896838538e-01	-1.520952996e-04	9.964102515e-12
-1.940000000e-02	1.896838481e-01	-1.501668664e-04	8.114037646e-12
-1.950000000e-02	1.896838424e-01	-1.482384336e-04	2.515537856e-11
-1.960000000e-02	1.896838366e-01	-1.463100011e-04	2.633000961e-11
-1.970000000e-02	1.896838308e-01	-1.443815689e-04	3.898240721e-12
-1.980000000e-02	1.896838249e-01	-1.424531371e-04	9.407491113e-12
-1.990000000e-02	1.896838190e-01	-1.405247056e-04	2.375455484e-11
-2.000000000e-02	1.896838130e-01	-1.385962745e-04	3.743405556e-11
-2.010000000e-02	1.896838069e-01	-1.366678437e-04	1.067663764e-11
-2.020000000e-02	1.896838008e-01	-1.347394133e-04	1.214327026e-11
-2.030000000e-02	1.896837947e-01	-1.328109833e-04	3.934980571e-11
-2.040000000e-02	1.896837884e-01	-1.308825536e-04	1.491660484e-11
-2.050000000e-02	1.896837821e-01	-1.289541243e-04	2.358833311e-11
-2.060000000e-02	1.896837758e-01	-1.270256953e-04	1.018304447e-10
-2.070000000e-02	1.896837694e-01	-1.250972668e-04	2.512641997e-11
-2.080000000e-02	1.896837629e-01	-1.231688386e-04	1.062120603e-11
-2.090000000e-02	1.896837564e-01	-1.212404108e-04	1.207465506e-11
-2.100000000e-02	1.896837498e-01	-1.193119834e-04	8.983159309e-12
-2.110000000e-02	1.896837432e-01	-1.173835563e-04	1.122525472e-11
-2.120000000e-02	1.896837364e-01	-1.154551297e-04	5.184436061e-12
-2.130000000e-02	1.896837297e-01	-1.135267035e-04	1.366067345e-11
-2.140000000e-02	1.896837229e-01	-1.115982776e-04	9.140529005e-12
-2.150000000e-02	1.896837160e-01	-1.096698521e-04	9.425949581e-12
-2.160000000e-02	1.896837091e-01	-1.077414271e-04	8.185090090e-12
-2.170000000e-02	1.896837021e-01	-1.058130024e-04	9.318346019e-11
-2.180000000e-02	1.896836950e-01	-1.038845782e-04	1.192913396e-11
-2.190000000e-02	1.896836879e-01	-1.019561544e-04	7.852138035e-12
-2.200000000e-02	1.896836807e-01	-1.000277310e-04	2.763248546e-11
-2.210000000e-02	1.896836735e-01	-9.809930797e-05	2.327970384e-11
-2.220000000e-02	1.896836662e-01	-9.617088539e-05	9.165560980e-12
-2.230000000e-02	1.896836588e-01	-9.424246323e-05	7.388720842e-12
-2.240000000e-02	1.896836514e-01	-9.231404150e-05	7.522174537e-12
-2.250000000e-02	1.896836440e-01	-9.038562020e-05	2.623475755e-11
-2.260000000e-02	1.896836364e-01	-8.845719933e-05	1.480710786e-11
-2.270000000e-02	1.896836289e-01	-8.652877890e-05	1.545319070e-11
-2.280000000e-02	1.896836212e-01	-8.460035890e-05	2.456808867e-11
-2.290000000e-02	1.896836135e-01	-8.267193934e-05	8.185872797e-12
-2.300000000e-02	1.896836058e-01	-8.074352023e-05	9.903773820e-12
-2.310000000e-02	1.896835979e-01	-7.881510156e-05	9.838807923e-12
-2.320000000e-02	1.896835901e-01	-7.688668334e-05	2.231954118e-11
-2.330000000e-02	1.896835821e-01	-7.495826558e-05	9.267262445e-12
-2.340000000e-02	1.896835741e-01	-7.302984827e-05	2.627881422e-11
-2.350000000e-02	1.896835661e-01	-7.110143142e-05	1.732080417e-11
-2.360000000e-02	1.896835580e-01	-6.917301503e-05	7.194791638e-12
-2.370000000e-02	1.896835498e-01	-6.724459910e-05	1.766799031e-11
-2.380000000e-02	1.896835416e-01	-6.531618364e-05	1.429929005e-11
-2.390000000e-02	1.896835333e-01	-6.338776865e-05	7.481810976e-12
-2.400000000e-02	1.896835249e-01	-6.145935414e-05	1.597165486e-11
-2.410000000e-02	1.896835165e-01	-5.953094010e-05	6.951978771e-12
-2.420000000e-02	1.896835080e-01	-5.760252654e-05	6.717819736e-12
-2.430000000e-02	1.896834995e-01	-5.567411347e-05	3.494127044e-11
-2.440000000e-02	1.896834909e-01	-5.374570088e-05	2.788399981e-11
-2.450000000e-02	1.896834823e-01	-5.181728877e-05	7.230252255e-12
-2.460000000e-02	1.896834736e-01	-4.988887716e-05	1.507919124e-11
-2.470000000e-02	1.896834648e-01	-4.796046604e-05	1.352077438e-11
-2.480000000e-02	1.896834560e-01	-4.603205542e-05	1.736724127e-11
-2.490000000e-02	1.896834471e-01	-4.410364530e-05	9.332956751e-12
-2.500000000e-02	1.896834382e-01	-4.217523568e-05	1.651256006e-11
-2.510000000e-02	1.896834292e-01	-4.024682657e-05	5.677077187e-11
-2.520000000e-02	1.896834202e-01	-3.831841797e-05	2.883022904e-11
-2.530000000e-02	1.896834110e-01	-3.639000988e-05	8.976827893e-12
-2.540000000e-02	1.896834019e-01	-3.446160230e-05	1.805138925e-11
-2.550000000e-02	1.896833926e-01	-3.253319525e-05	1.109554715e-11
-2.560000000e-02	1.896833833e-01	-3.060478871e-05	1.419989344e-11
-2.570000000e-02	1.896833740e-01	-2.867638270e-05	3.267841931e-12
-2.580000000e-02	1.896833646e-01	-2.674797721e-05	2.547414603e-11
-2.590000000e-02	1.896833551e-01	-2.481957226e-05	1.019332291e-11
-2.600000000e-02	1.896833456e-01	-2.289116784e-05	9.164607167e-12
-2.610000000e-02	1.896833360e-01	-2.096276395e-05	1.264980182e-11
-2.620000000e-02	1.896833264e-01	-1.903436061e-05	2.092359883e-11
-2.630000000e-02	1.896833167e-01	-1.710595780e-05	2.549954191e-11
-2.640000000e-02	1.896833069e-01	-1.517755554e-05	2.475198590e-11
-2.650000000e-02	1.896832971e-01	-1.324915383e-05	2.120407373e-11
-2.660000000e-02	1.896832872e-01	-1.132075268e-05	2.213125059e-10
-2.670000000e-02	1.896832773e-01	-9.392352058e-06	2.334937203e-11
-2.680000000e-02	1.896832673e-01	-7.463952009e-06	1.353393709e-11
-2.690000000e-02	1.896832573e-01	-5.535552518e-06	1.902509880e-11
-2.700000000e-02	1.896832471e-01	-3.607153588e-06	1.206104449e-11
-2.710000000e-02	1.896832370e-01	-1.678755226e-06	1.197068855e-11
-2.720000000e-02	1.896832267e-01	2.496425667e-07	1.557193480e-11
-2.730000000e-02	1.896832165e-01	2.178039788e-06	2.684266473e-11
-2.740000000e-02	1.896832061e-01	4.106436437e-06	5.250752212e-12
-2.750000000e-02	1.896831957e-01	6.034832507e-06	1.554501364e-11
-2.760000000e-02	1.896831852e-01	7.963227995e-06	7.695353117e-12
-2.770000000e-02	1.896831747e-01	9.891622900e-06	1.076090385e-11
-2.780000000e-02	1.896831641e-01	1.182001722e-05	1.469048987e-11
-2.790000000e-02	1.896831535e-01	1.374841095e-05	8.125935776e-12
-2.800000000e-02	1.896831428e-01	1.567680408e-05	2.292339546e-11
-2.810000000e-02	1.896831320e-01	1.760519663e-05	1.614932578e-11
-2.820000000e-02	1.896831212e-01	1.953358857e-05	3.462343532e-11
-2.830000000e-02	1.896831104e-01	2.146197991e-05	9.716283905e-12
-2.840000000e-02	1.896830994e-01	2.339037064e-05	6.040855314e-12
-2.850000000e-02	1.896830884e-01	2.531876077e-05	1.899197768e-11
-2.860000000e-02	1.896830774e-01	2.724715029e-05	1.520598334e-11
-2.870000000e-02	1.896830663e-01	2.917553920e-05	4.951713417e-11
-2.880000000e-02	1.896830551e-01	3.110392749e-05	2.511027997e-11
-2.890000000e-02	1.896830439e-01	3.303231515e-05	1.174538229e-11
-2.900000000e-02	1.896830326e-01	3.496070220e-05	1.572582903e-11
-2.910000000e-02	1.896830212e-01	3.688908862e-05	8.034277502e-12
-2.920000000e-02	1.896830098e-01	3.881747441e-05	1.144431939e-11
-2.930000000e-02	1.896829984e-01	4.074585957e-05	1.036995620e-11
-2.940000000e-02	1.896829868e-01	4.267424410e-05	1.418926975e-11
-2.950000000e-02	1.896829753e-01	4.460262799e-05	6.214371001e-11
-2.960000000e-02	1.896829636e-01	4.653101124e-05	5.819031553e-11
-2.970000000e-02	1.896829519e-01	4.845939385e-05	1.429733740e-11
-2.980000000e-02	1.896829402e-01	5.038777580e-05	1.414806959e-11
-2.990000000e-02	1.896829284e-01	5.231615712e-05	1.200934851e-11
-3.000000000e-02	1.896829165e-01	5.424453777e-05	1.764638057e-11
