# Im(epsi1)     Re(omega/c)      Im(omega/c)      Eq(det).Opt det CON kz, R=0.5 \mum, mu_c=0.3, Re(epsi1)=3.90solve_det_conkz_vs_kz.py
0.000000000e+00	1.896473447e-01	-5.242181468e-04	1.307112432e-11
-1.000000000e-04	1.896473503e-01	-5.222898834e-04	1.209652277e-11
-2.000000000e-04	1.896473560e-01	-5.203616197e-04	1.042954227e-11
-3.000000000e-04	1.896473616e-01	-5.184333558e-04	1.394206012e-11
-4.000000000e-04	1.896473671e-01	-5.165050916e-04	1.371667033e-11
-5.000000000e-04	1.896473725e-01	-5.145768273e-04	4.126328311e-11
-6.000000000e-04	1.896473779e-01	-5.126485627e-04	1.688711529e-11
-7.000000000e-04	1.896473833e-01	-5.107202979e-04	1.217756930e-11
-8.000000000e-04	1.896473886e-01	-5.087920328e-04	2.065033555e-11
-9.000000000e-04	1.896473938e-01	-5.068637676e-04	1.439433193e-11
-1.000000000e-03	1.896473990e-01	-5.049355021e-04	2.036979638e-11
-1.100000000e-03	1.896474041e-01	-5.030072364e-04	1.121031181e-11
-1.200000000e-03	1.896474091e-01	-5.010789705e-04	1.160762826e-11
-1.300000000e-03	1.896474141e-01	-4.991507045e-04	9.846177234e-12
-1.400000000e-03	1.896474191e-01	-4.972224382e-04	1.584968480e-11
-1.500000000e-03	1.896474239e-01	-4.952941717e-04	4.809435780e-11
-1.600000000e-03	1.896474287e-01	-4.933659050e-04	8.695708708e-12
-1.700000000e-03	1.896474335e-01	-4.914376381e-04	6.924198707e-12
-1.800000000e-03	1.896474382e-01	-4.895093711e-04	2.119529709e-11
-1.900000000e-03	1.896474428e-01	-4.875811038e-04	2.400677777e-11
-2.000000000e-03	1.896474474e-01	-4.856528364e-04	1.260276848e-11
-2.100000000e-03	1.896474519e-01	-4.837245688e-04	8.506242101e-12
-2.200000000e-03	1.896474564e-01	-4.817963010e-04	3.221507532e-11
-2.300000000e-03	1.896474608e-01	-4.798680331e-04	3.784169593e-11
-2.400000000e-03	1.896474651e-01	-4.779397649e-04	1.087771206e-11
-2.500000000e-03	1.896474694e-01	-4.760114966e-04	1.028276604e-11
-2.600000000e-03	1.896474737e-01	-4.740832282e-04	6.486734928e-12
-2.700000000e-03	1.896474778e-01	-4.721549596e-04	5.010436842e-12
-2.800000000e-03	1.896474819e-01	-4.702266908e-04	1.053966257e-11
-2.900000000e-03	1.896474860e-01	-4.682984218e-04	3.276039621e-11
-3.000000000e-03	1.896474900e-01	-4.663701528e-04	1.166603614e-11
-3.100000000e-03	1.896474939e-01	-4.644418835e-04	1.401751160e-11
-3.200000000e-03	1.896474978e-01	-4.625136141e-04	2.077903085e-11
-3.300000000e-03	1.896475016e-01	-4.605853446e-04	3.594211439e-11
-3.400000000e-03	1.896475054e-01	-4.586570749e-04	1.941756586e-11
-3.500000000e-03	1.896475091e-01	-4.567288051e-04	6.031962093e-12
-3.600000000e-03	1.896475127e-01	-4.548005352e-04	1.987007895e-11
-3.700000000e-03	1.896475163e-01	-4.528722651e-04	2.081030768e-11
-3.800000000e-03	1.896475198e-01	-4.509439949e-04	6.264452145e-12
-3.900000000e-03	1.896475233e-01	-4.490157245e-04	2.694146179e-11
-4.000000000e-03	1.896475267e-01	-4.470874541e-04	3.117127460e-11
-4.100000000e-03	1.896475300e-01	-4.451591835e-04	1.192042995e-11
-4.200000000e-03	1.896475333e-01	-4.432309128e-04	2.556391689e-11
-4.300000000e-03	1.896475365e-01	-4.413026420e-04	1.325740121e-11
-4.400000000e-03	1.896475397e-01	-4.393743711e-04	7.838263031e-12
-4.500000000e-03	1.896475428e-01	-4.374461001e-04	1.882418478e-11
-4.600000000e-03	1.896475459e-01	-4.355178290e-04	6.823019713e-12
-4.700000000e-03	1.896475489e-01	-4.335895577e-04	2.625510734e-11
-4.800000000e-03	1.896475518e-01	-4.316612864e-04	1.562670291e-11
-4.900000000e-03	1.896475547e-01	-4.297330150e-04	1.394950467e-11
-5.000000000e-03	1.896475575e-01	-4.278047434e-04	7.280752146e-12
-5.100000000e-03	1.896475602e-01	-4.258764718e-04	1.776741718e-11
-5.200000000e-03	1.896475629e-01	-4.239482001e-04	2.996859382e-11
-5.300000000e-03	1.896475656e-01	-4.220199283e-04	1.638671726e-11
-5.400000000e-03	1.896475682e-01	-4.200916565e-04	4.102669562e-11
-5.500000000e-03	1.896475707e-01	-4.181633845e-04	9.802229770e-12
-5.600000000e-03	1.896475731e-01	-4.162351125e-04	3.573960586e-11
-5.700000000e-03	1.896475756e-01	-4.143068404e-04	2.385213729e-11
-5.800000000e-03	1.896475779e-01	-4.123785683e-04	1.456644833e-11
-5.900000000e-03	1.896475802e-01	-4.104502960e-04	1.260684431e-11
-6.000000000e-03	1.896475824e-01	-4.085220237e-04	1.065887747e-11
-6.100000000e-03	1.896475846e-01	-4.065937514e-04	9.871721285e-12
-6.200000000e-03	1.896475867e-01	-4.046654790e-04	4.347607535e-11
-6.300000000e-03	1.896475887e-01	-4.027372065e-04	1.011118717e-11
-6.400000000e-03	1.896475907e-01	-4.008089340e-04	1.072785450e-11
-6.500000000e-03	1.896475927e-01	-3.988806614e-04	2.838594818e-11
-6.600000000e-03	1.896475946e-01	-3.969523888e-04	8.351420217e-12
-6.700000000e-03	1.896475964e-01	-3.950241162e-04	5.739849098e-12
-6.800000000e-03	1.896475981e-01	-3.930958435e-04	3.861452101e-11
-6.900000000e-03	1.896475998e-01	-3.911675708e-04	7.929762910e-12
-7.000000000e-03	1.896476015e-01	-3.892392980e-04	9.954952987e-12
-7.100000000e-03	1.896476031e-01	-3.873110252e-04	1.162854362e-11
-7.200000000e-03	1.896476046e-01	-3.853827524e-04	1.847241560e-11
-7.300000000e-03	1.896476060e-01	-3.834544795e-04	2.124066615e-11
-7.400000000e-03	1.896476075e-01	-3.815262067e-04	1.967654083e-11
-7.500000000e-03	1.896476088e-01	-3.795979338e-04	1.857645084e-11
-7.600000000e-03	1.896476101e-01	-3.776696609e-04	8.095923023e-12
-7.700000000e-03	1.896476113e-01	-3.757413880e-04	1.314668823e-11
-7.800000000e-03	1.896476125e-01	-3.738131151e-04	1.319592961e-11
-7.900000000e-03	1.896476136e-01	-3.718848421e-04	7.060158727e-12
-8.000000000e-03	1.896476147e-01	-3.699565692e-04	1.457409666e-11
-8.100000000e-03	1.896476157e-01	-3.680282963e-04	1.557494401e-11
-8.200000000e-03	1.896476166e-01	-3.661000233e-04	1.583599429e-11
-8.300000000e-03	1.896476175e-01	-3.641717504e-04	1.141951276e-11
-8.400000000e-03	1.896476183e-01	-3.622434775e-04	3.425083654e-11
-8.500000000e-03	1.896476190e-01	-3.603152046e-04	9.915240688e-12
-8.600000000e-03	1.896476197e-01	-3.583869317e-04	1.037417941e-11
-8.700000000e-03	1.896476204e-01	-3.564586588e-04	5.710230546e-12
-8.800000000e-03	1.896476210e-01	-3.545303860e-04	1.553329923e-11
-8.900000000e-03	1.896476215e-01	-3.526021131e-04	9.214332156e-12
-9.000000000e-03	1.896476220e-01	-3.506738403e-04	7.424765646e-12
-9.100000000e-03	1.896476224e-01	-3.487455675e-04	1.905881855e-11
-9.200000000e-03	1.896476227e-01	-3.468172948e-04	3.699280253e-11
-9.300000000e-03	1.896476230e-01	-3.448890221e-04	5.438311736e-11
-9.400000000e-03	1.896476232e-01	-3.429607494e-04	2.594786785e-11
-9.500000000e-03	1.896476234e-01	-3.410324768e-04	7.449622362e-12
-9.600000000e-03	1.896476235e-01	-3.391042041e-04	1.256289698e-09
-9.700000000e-03	1.896476236e-01	-3.371759317e-04	9.831106968e-12
-9.800000000e-03	1.896476236e-01	-3.352476592e-04	7.988636819e-11
-9.900000000e-03	1.896476235e-01	-3.333193867e-04	4.568043356e-12
-1.000000000e-02	1.896476234e-01	-3.313911143e-04	7.930167917e-12
-1.010000000e-02	1.896476232e-01	-3.294628420e-04	2.079514470e-11
-1.020000000e-02	1.896476230e-01	-3.275345698e-04	2.391637943e-11
-1.030000000e-02	1.896476227e-01	-3.256062976e-04	1.252987645e-11
-1.040000000e-02	1.896476223e-01	-3.236780254e-04	1.025296865e-11
-1.050000000e-02	1.896476219e-01	-3.217497534e-04	7.069840443e-12
-1.060000000e-02	1.896476214e-01	-3.198214814e-04	1.894355515e-11
-1.070000000e-02	1.896476209e-01	-3.178932095e-04	9.435229187e-12
-1.080000000e-02	1.896476203e-01	-3.159649377e-04	1.217406024e-11
-1.090000000e-02	1.896476197e-01	-3.140366659e-04	1.128851650e-11
-1.100000000e-02	1.896476189e-01	-3.121083943e-04	2.314477763e-11
-1.110000000e-02	1.896476182e-01	-3.101801227e-04	1.400769122e-10
-1.120000000e-02	1.896476173e-01	-3.082518513e-04	3.050079233e-10
-1.130000000e-02	1.896476165e-01	-3.063235798e-04	1.679922152e-11
-1.140000000e-02	1.896476155e-01	-3.043953085e-04	1.812402963e-11
-1.150000000e-02	1.896476145e-01	-3.024670373e-04	1.039420574e-11
-1.160000000e-02	1.896476135e-01	-3.005387663e-04	5.601275867e-12
-1.170000000e-02	1.896476123e-01	-2.986104953e-04	2.249435869e-11
-1.180000000e-02	1.896476112e-01	-2.966822244e-04	1.240040443e-11
-1.190000000e-02	1.896476099e-01	-2.947539537e-04	1.467587498e-11
-1.200000000e-02	1.896476086e-01	-2.928256830e-04	1.256670402e-11
-1.210000000e-02	1.896476073e-01	-2.908974125e-04	8.663721435e-12
-1.220000000e-02	1.896476058e-01	-2.889691421e-04	2.852675266e-11
-1.230000000e-02	1.896476044e-01	-2.870408718e-04	1.127130884e-11
-1.240000000e-02	1.896476028e-01	-2.851126017e-04	9.890070316e-12
-1.250000000e-02	1.896476013e-01	-2.831843317e-04	8.173795485e-12
-1.260000000e-02	1.896475996e-01	-2.812560618e-04	1.577038586e-11
-1.270000000e-02	1.896475979e-01	-2.793277920e-04	3.407852993e-11
-1.280000000e-02	1.896475961e-01	-2.773995224e-04	1.642374484e-11
-1.290000000e-02	1.896475943e-01	-2.754712530e-04	6.434170492e-12
-1.300000000e-02	1.896475924e-01	-2.735429836e-04	1.622586162e-11
-1.310000000e-02	1.896475905e-01	-2.716147145e-04	2.385812809e-11
-1.320000000e-02	1.896475885e-01	-2.696864455e-04	2.158253250e-11
-1.330000000e-02	1.896475864e-01	-2.677581766e-04	4.560513219e-11
-1.340000000e-02	1.896475843e-01	-2.658299079e-04	4.379027133e-11
-1.350000000e-02	1.896475821e-01	-2.639016393e-04	3.093981728e-11
-1.360000000e-02	1.896475799e-01	-2.619733710e-04	2.449447246e-11
-1.370000000e-02	1.896475776e-01	-2.600451027e-04	8.974157048e-12
-1.380000000e-02	1.896475752e-01	-2.581168347e-04	2.262818564e-11
-1.390000000e-02	1.896475728e-01	-2.561885668e-04	2.436078311e-11
-1.400000000e-02	1.896475703e-01	-2.542602991e-04	1.370964649e-11
-1.410000000e-02	1.896475678e-01	-2.523320316e-04	1.014356237e-11
-1.420000000e-02	1.896475652e-01	-2.504037643e-04	1.696257558e-10
-1.430000000e-02	1.896475626e-01	-2.484754971e-04	1.402280978e-11
-1.440000000e-02	1.896475599e-01	-2.465472301e-04	7.819781036e-12
-1.450000000e-02	1.896475571e-01	-2.446189633e-04	2.792008639e-11
-1.460000000e-02	1.896475543e-01	-2.426906967e-04	1.060096230e-11
-1.470000000e-02	1.896475514e-01	-2.407624303e-04	9.389978927e-12
-1.480000000e-02	1.896475484e-01	-2.388341642e-04	1.394017032e-11
-1.490000000e-02	1.896475454e-01	-2.369058982e-04	1.704827526e-11
-1.500000000e-02	1.896475424e-01	-2.349776324e-04	2.260021735e-11
-1.510000000e-02	1.896475393e-01	-2.330493668e-04	4.024935173e-11
-1.520000000e-02	1.896475361e-01	-2.311211014e-04	1.258803746e-11
-1.530000000e-02	1.896475329e-01	-2.291928363e-04	9.054811415e-12
-1.540000000e-02	1.896475296e-01	-2.272645713e-04	1.500736590e-11
-1.550000000e-02	1.896475262e-01	-2.253363066e-04	7.356821046e-12
-1.560000000e-02	1.896475228e-01	-2.234080421e-04	1.020789929e-11
-1.570000000e-02	1.896475193e-01	-2.214797779e-04	8.032468063e-12
-1.580000000e-02	1.896475158e-01	-2.195515138e-04	7.658050042e-12
-1.590000000e-02	1.896475122e-01	-2.176232500e-04	1.659655540e-11
-1.600000000e-02	1.896475086e-01	-2.156949864e-04	1.852854024e-11
-1.610000000e-02	1.896475048e-01	-2.137667231e-04	1.606374608e-11
-1.620000000e-02	1.896475011e-01	-2.118384600e-04	1.412840434e-11
-1.630000000e-02	1.896474973e-01	-2.099101972e-04	1.204263678e-11
-1.640000000e-02	1.896474934e-01	-2.079819346e-04	6.344972881e-12
-1.650000000e-02	1.896474894e-01	-2.060536722e-04	1.468600280e-11
-1.660000000e-02	1.896474854e-01	-2.041254101e-04	1.851712296e-11
-1.670000000e-02	1.896474814e-01	-2.021971483e-04	1.419653270e-11
-1.680000000e-02	1.896474773e-01	-2.002688867e-04	2.450338697e-11
-1.690000000e-02	1.896474731e-01	-1.983406254e-04	2.822684655e-11
-1.700000000e-02	1.896474688e-01	-1.964123643e-04	1.234586104e-11
-1.710000000e-02	1.896474646e-01	-1.944841035e-04	3.648672217e-11
-1.720000000e-02	1.896474602e-01	-1.925558430e-04	5.407567714e-12
-1.730000000e-02	1.896474558e-01	-1.906275827e-04	7.325940635e-12
-1.740000000e-02	1.896474513e-01	-1.886993228e-04	1.999715660e-11
-1.750000000e-02	1.896474468e-01	-1.867710631e-04	5.578513027e-12
-1.760000000e-02	1.896474422e-01	-1.848428037e-04	1.289927452e-11
-1.770000000e-02	1.896474376e-01	-1.829145445e-04	2.904990334e-11
-1.780000000e-02	1.896474328e-01	-1.809862857e-04	1.499475827e-11
-1.790000000e-02	1.896474281e-01	-1.790580272e-04	3.778638892e-11
-1.800000000e-02	1.896474233e-01	-1.771297689e-04	1.174945276e-11
-1.810000000e-02	1.896474184e-01	-1.752015109e-04	8.822198315e-12
-1.820000000e-02	1.896474134e-01	-1.732732533e-04	5.910189140e-12
-1.830000000e-02	1.896474084e-01	-1.713449959e-04	2.398171989e-11
-1.840000000e-02	1.896474034e-01	-1.694167389e-04	2.149407863e-11
-1.850000000e-02	1.896473983e-01	-1.674884822e-04	1.685601853e-11
-1.860000000e-02	1.896473931e-01	-1.655602258e-04	7.006087159e-12
-1.870000000e-02	1.896473879e-01	-1.636319696e-04	7.246285217e-12
-1.880000000e-02	1.896473826e-01	-1.617037139e-04	6.548704625e-12
-1.890000000e-02	1.896473772e-01	-1.597754584e-04	1.350011349e-11
-1.900000000e-02	1.896473718e-01	-1.578472032e-04	1.096547446e-11
-1.910000000e-02	1.896473663e-01	-1.559189484e-04	1.925513133e-11
-1.920000000e-02	1.896473608e-01	-1.539906940e-04	1.536010554e-11
-1.930000000e-02	1.896473552e-01	-1.520624398e-04	1.623789539e-11
-1.940000000e-02	1.896473496e-01	-1.501341860e-04	1.511040741e-11
-1.950000000e-02	1.896473439e-01	-1.482059325e-04	1.816228661e-11
-1.960000000e-02	1.896473381e-01	-1.462776794e-04	5.946225779e-12
-1.970000000e-02	1.896473323e-01	-1.443494266e-04	6.860641545e-12
-1.980000000e-02	1.896473264e-01	-1.424211742e-04	9.075523547e-12
-1.990000000e-02	1.896473205e-01	-1.404929221e-04	1.682176894e-11
-2.000000000e-02	1.896473145e-01	-1.385646703e-04	2.229221471e-11
-2.010000000e-02	1.896473084e-01	-1.366364190e-04	1.109803306e-11
-2.020000000e-02	1.896473023e-01	-1.347081679e-04	1.135688011e-11
-2.030000000e-02	1.896472961e-01	-1.327799173e-04	2.414975311e-11
-2.040000000e-02	1.896472899e-01	-1.308516670e-04	1.905042477e-11
-2.050000000e-02	1.896472836e-01	-1.289234171e-04	1.906328726e-11
-2.060000000e-02	1.896472772e-01	-1.269951675e-04	2.111544534e-11
-2.070000000e-02	1.896472708e-01	-1.250669184e-04	1.532771313e-11
-2.080000000e-02	1.896472644e-01	-1.231386696e-04	9.329302726e-12
-2.090000000e-02	1.896472578e-01	-1.212104211e-04	9.490461925e-12
-2.100000000e-02	1.896472512e-01	-1.192821731e-04	1.357632500e-11
-2.110000000e-02	1.896472446e-01	-1.173539255e-04	1.885704609e-11
-2.120000000e-02	1.896472379e-01	-1.154256782e-04	6.886563173e-12
-2.130000000e-02	1.896472311e-01	-1.134974314e-04	6.093187436e-11
-2.140000000e-02	1.896472243e-01	-1.115691849e-04	1.615033957e-11
-2.150000000e-02	1.896472174e-01	-1.096409388e-04	6.859903407e-12
-2.160000000e-02	1.896472105e-01	-1.077126932e-04	9.093515545e-12
-2.170000000e-02	1.896472035e-01	-1.057844479e-04	1.578353692e-11
-2.180000000e-02	1.896471964e-01	-1.038562031e-04	1.842356517e-11
-2.190000000e-02	1.896471893e-01	-1.019279586e-04	1.074528005e-11
-2.200000000e-02	1.896471822e-01	-9.999971460e-05	1.327247511e-11
-2.210000000e-02	1.896471749e-01	-9.807147099e-05	1.668410047e-11
-2.220000000e-02	1.896471676e-01	-9.614322780e-05	1.796356460e-11
-2.230000000e-02	1.896471603e-01	-9.421498503e-05	7.994032486e-12
-2.240000000e-02	1.896471529e-01	-9.228674269e-05	3.677052679e-11
-2.250000000e-02	1.896471454e-01	-9.035850078e-05	2.592770606e-11
-2.260000000e-02	1.896471379e-01	-8.843025930e-05	1.681235661e-11
-2.270000000e-02	1.896471303e-01	-8.650201825e-05	1.217784813e-11
-2.280000000e-02	1.896471227e-01	-8.457377764e-05	1.909751785e-11
-2.290000000e-02	1.896471150e-01	-8.264553747e-05	1.339844046e-11
-2.300000000e-02	1.896471072e-01	-8.071729774e-05	2.760248921e-11
-2.310000000e-02	1.896470994e-01	-7.878905847e-05	1.471626011e-11
-2.320000000e-02	1.896470915e-01	-7.686081964e-05	2.260876130e-11
-2.330000000e-02	1.896470836e-01	-7.493258126e-05	1.949193249e-11
-2.340000000e-02	1.896470756e-01	-7.300434335e-05	2.374989255e-11
-2.350000000e-02	1.896470675e-01	-7.107610588e-05	5.604934474e-12
-2.360000000e-02	1.896470594e-01	-6.914786888e-05	1.175744522e-11
-2.370000000e-02	1.896470512e-01	-6.721963235e-05	8.483982874e-12
-2.380000000e-02	1.896470430e-01	-6.529139627e-05	3.248190339e-11
-2.390000000e-02	1.896470347e-01	-6.336316068e-05	1.295692281e-11
-2.400000000e-02	1.896470263e-01	-6.143492556e-05	2.069180711e-11
-2.410000000e-02	1.896470179e-01	-5.950669091e-05	6.711737350e-12
-2.420000000e-02	1.896470095e-01	-5.757845674e-05	8.508970114e-12
-2.430000000e-02	1.896470009e-01	-5.565022305e-05	1.326260159e-11
-2.440000000e-02	1.896469924e-01	-5.372198984e-05	3.582357037e-11
-2.450000000e-02	1.896469837e-01	-5.179375714e-05	1.142801428e-11
-2.460000000e-02	1.896469750e-01	-4.986552491e-05	2.660437773e-11
-2.470000000e-02	1.896469663e-01	-4.793729319e-05	9.899227112e-12
-2.480000000e-02	1.896469574e-01	-4.600906195e-05	1.611138206e-11
-2.490000000e-02	1.896469486e-01	-4.408083122e-05	1.267423887e-11
-2.500000000e-02	1.896469396e-01	-4.215260100e-05	5.498528179e-11
-2.510000000e-02	1.896469306e-01	-4.022437127e-05	1.846570854e-11
-2.520000000e-02	1.896469216e-01	-3.829614207e-05	5.855577482e-12
-2.530000000e-02	1.896469125e-01	-3.636791337e-05	5.502278311e-11
-2.540000000e-02	1.896469033e-01	-3.443968518e-05	9.076640284e-12
-2.550000000e-02	1.896468941e-01	-3.251145751e-05	1.405472202e-11
-2.560000000e-02	1.896468848e-01	-3.058323039e-05	9.314646421e-11
-2.570000000e-02	1.896468754e-01	-2.865500375e-05	8.800500165e-12
-2.580000000e-02	1.896468660e-01	-2.672677766e-05	1.382028152e-11
-2.590000000e-02	1.896468566e-01	-2.479855210e-05	2.224072918e-11
-2.600000000e-02	1.896468470e-01	-2.287032706e-05	1.859188225e-11
-2.610000000e-02	1.896468374e-01	-2.094210257e-05	1.154130775e-11
-2.620000000e-02	1.896468278e-01	-1.901387861e-05	2.599042061e-11
-2.630000000e-02	1.896468181e-01	-1.708565520e-05	1.638039279e-11
-2.640000000e-02	1.896468083e-01	-1.515743233e-05	1.207876837e-11
-2.650000000e-02	1.896467985e-01	-1.322921001e-05	1.069624994e-11
-2.660000000e-02	1.896467887e-01	-1.130098824e-05	2.421249556e-11
-2.670000000e-02	1.896467787e-01	-9.372767019e-06	1.850320355e-11
-2.680000000e-02	1.896467687e-01	-7.444546363e-06	6.069785990e-12
-2.690000000e-02	1.896467587e-01	-5.516326266e-06	2.000887542e-11
-2.700000000e-02	1.896467486e-01	-3.588106730e-06	7.976151710e-12
-2.710000000e-02	1.896467384e-01	-1.659887756e-06	1.335099884e-11
-2.720000000e-02	1.896467282e-01	2.683306421e-07	1.857295720e-11
-2.730000000e-02	1.896467179e-01	2.196548475e-06	8.982951192e-12
-2.740000000e-02	1.896467075e-01	4.124765728e-06	4.442036249e-12
-2.750000000e-02	1.896466971e-01	6.052982405e-06	6.923147487e-12
-2.760000000e-02	1.896466867e-01	7.981198502e-06	1.271393855e-11
-2.770000000e-02	1.896466761e-01	9.909414017e-06	1.246276048e-11
-2.780000000e-02	1.896466655e-01	1.183762894e-05	1.878208850e-11
-2.790000000e-02	1.896466549e-01	1.376584328e-05	3.732173648e-11
-2.800000000e-02	1.896466442e-01	1.569405702e-05	8.302688796e-12
-2.810000000e-02	1.896466335e-01	1.762227017e-05	8.671054196e-12
-2.820000000e-02	1.896466226e-01	1.955048272e-05	7.635002336e-12
-2.830000000e-02	1.896466118e-01	2.147869467e-05	1.179223080e-11
-2.840000000e-02	1.896466008e-01	2.340690601e-05	2.630695256e-11
-2.850000000e-02	1.896465898e-01	2.533511675e-05	1.138122482e-11
-2.860000000e-02	1.896465788e-01	2.726332687e-05	1.089447410e-11
-2.870000000e-02	1.896465677e-01	2.919153638e-05	3.115835146e-11
-2.880000000e-02	1.896465565e-01	3.111974528e-05	2.065011220e-11
-2.890000000e-02	1.896465453e-01	3.304795355e-05	1.223494082e-11
-2.900000000e-02	1.896465340e-01	3.497616121e-05	2.017526762e-11
-2.910000000e-02	1.896465226e-01	3.690436824e-05	1.862893763e-11
-2.920000000e-02	1.896465112e-01	3.883257463e-05	8.732129970e-12
-2.930000000e-02	1.896464998e-01	4.076078040e-05	7.875062595e-12
-2.940000000e-02	1.896464882e-01	4.268898553e-05	6.352423525e-12
-2.950000000e-02	1.896464767e-01	4.461719006e-05	2.664191174e-10
-2.960000000e-02	1.896464650e-01	4.654539389e-05	1.335721351e-11
-2.970000000e-02	1.896464533e-01	4.847359710e-05	1.718163655e-11
-2.980000000e-02	1.896464416e-01	5.040179966e-05	1.756680206e-11
-2.990000000e-02	1.896464298e-01	5.233000158e-05	1.357685344e-11
-3.000000000e-02	1.896464179e-01	5.425820284e-05	1.059415795e-11
