# Im(epsi1)     Re(omega/c)      Im(omega/c)      Eq(det).Opt det CON kz, R=0.5 \mum, mu_c=0.3, Re(epsi1)=3.90solve_det_conkz_vs_kz.py
0.000000000e+00	1.896455379e-01	-5.242131655e-04	1.958736840e-11
-1.000000000e-04	1.896455436e-01	-5.222849109e-04	9.994078585e-12
-2.000000000e-04	1.896455493e-01	-5.203566560e-04	1.654403966e-11
-3.000000000e-04	1.896455549e-01	-5.184284009e-04	8.382246789e-12
-4.000000000e-04	1.896455604e-01	-5.165001456e-04	6.859602221e-12
-5.000000000e-04	1.896455658e-01	-5.145718901e-04	9.243380273e-12
-6.000000000e-04	1.896455712e-01	-5.126436343e-04	9.284349822e-12
-7.000000000e-04	1.896455766e-01	-5.107153784e-04	8.308164243e-12
-8.000000000e-04	1.896455819e-01	-5.087871221e-04	1.107393086e-11
-9.000000000e-04	1.896455871e-01	-5.068588657e-04	1.201892290e-11
-1.000000000e-03	1.896455923e-01	-5.049306091e-04	2.142755163e-11
-1.100000000e-03	1.896455974e-01	-5.030023523e-04	2.381590505e-11
-1.200000000e-03	1.896456024e-01	-5.010740952e-04	9.134662689e-12
-1.300000000e-03	1.896456074e-01	-4.991458379e-04	8.652008620e-11
-1.400000000e-03	1.896456123e-01	-4.972175805e-04	1.890667018e-11
-1.500000000e-03	1.896456172e-01	-4.952893229e-04	1.441312752e-11
-1.600000000e-03	1.896456220e-01	-4.933610650e-04	1.580937114e-11
-1.700000000e-03	1.896456268e-01	-4.914328070e-04	1.180869558e-11
-1.800000000e-03	1.896456315e-01	-4.895045488e-04	7.926431738e-12
-1.900000000e-03	1.896456361e-01	-4.875762903e-04	2.159597758e-11
-2.000000000e-03	1.896456407e-01	-4.856480318e-04	3.526013740e-10
-2.100000000e-03	1.896456452e-01	-4.837197730e-04	1.135485232e-11
-2.200000000e-03	1.896456497e-01	-4.817915140e-04	1.119152496e-11
-2.300000000e-03	1.896456541e-01	-4.798632549e-04	3.340616571e-11
-2.400000000e-03	1.896456584e-01	-4.779349956e-04	1.099288831e-11
-2.500000000e-03	1.896456627e-01	-4.760067361e-04	1.305050180e-11
-2.600000000e-03	1.896456669e-01	-4.740784765e-04	8.557104554e-12
-2.700000000e-03	1.896456711e-01	-4.721502167e-04	2.976385880e-11
-2.800000000e-03	1.896456752e-01	-4.702219568e-04	4.886858714e-12
-2.900000000e-03	1.896456793e-01	-4.682936967e-04	6.280014998e-11
-3.000000000e-03	1.896456833e-01	-4.663654364e-04	2.028465565e-11
-3.100000000e-03	1.896456872e-01	-4.644371760e-04	2.165104658e-11
-3.200000000e-03	1.896456911e-01	-4.625089155e-04	6.961612806e-11
-3.300000000e-03	1.896456949e-01	-4.605806548e-04	1.238408852e-11
-3.400000000e-03	1.896456986e-01	-4.586523939e-04	1.415070730e-11
-3.500000000e-03	1.896457023e-01	-4.567241330e-04	6.911519667e-12
-3.600000000e-03	1.896457060e-01	-4.547958718e-04	1.526862703e-11
-3.700000000e-03	1.896457096e-01	-4.528676106e-04	1.524072965e-11
-3.800000000e-03	1.896457131e-01	-4.509393492e-04	1.401524567e-11
-3.900000000e-03	1.896457166e-01	-4.490110877e-04	1.222438730e-11
-4.000000000e-03	1.896457200e-01	-4.470828261e-04	1.305842491e-11
-4.100000000e-03	1.896457233e-01	-4.451545644e-04	1.057199383e-11
-4.200000000e-03	1.896457266e-01	-4.432263025e-04	1.072099790e-11
-4.300000000e-03	1.896457298e-01	-4.412980405e-04	1.284617055e-11
-4.400000000e-03	1.896457330e-01	-4.393697785e-04	1.961375551e-11
-4.500000000e-03	1.896457361e-01	-4.374415163e-04	7.795169846e-12
-4.600000000e-03	1.896457391e-01	-4.355132540e-04	2.225503762e-11
-4.700000000e-03	1.896457421e-01	-4.335849916e-04	3.190158271e-11
-4.800000000e-03	1.896457451e-01	-4.316567291e-04	2.111289408e-11
-4.900000000e-03	1.896457480e-01	-4.297284665e-04	5.572152668e-12
-5.000000000e-03	1.896457508e-01	-4.278002038e-04	1.754332325e-11
-5.100000000e-03	1.896457535e-01	-4.258719410e-04	2.455743762e-11
-5.200000000e-03	1.896457562e-01	-4.239436781e-04	1.044394879e-11
-5.300000000e-03	1.896457589e-01	-4.220154152e-04	1.890198865e-11
-5.400000000e-03	1.896457614e-01	-4.200871522e-04	1.926162788e-11
-5.500000000e-03	1.896457640e-01	-4.181588890e-04	1.494739976e-11
-5.600000000e-03	1.896457664e-01	-4.162306259e-04	9.432375451e-12
-5.700000000e-03	1.896457688e-01	-4.143023626e-04	2.197485249e-11
-5.800000000e-03	1.896457712e-01	-4.123740993e-04	9.588136299e-12
-5.900000000e-03	1.896457735e-01	-4.104458359e-04	1.735671447e-11
-6.000000000e-03	1.896457757e-01	-4.085175724e-04	1.043512252e-11
-6.100000000e-03	1.896457779e-01	-4.065893089e-04	5.334536861e-11
-6.200000000e-03	1.896457800e-01	-4.046610453e-04	3.587548364e-11
-6.300000000e-03	1.896457820e-01	-4.027327817e-04	9.183787227e-12
-6.400000000e-03	1.896457840e-01	-4.008045180e-04	1.346757153e-11
-6.500000000e-03	1.896457860e-01	-3.988762543e-04	1.619516729e-11
-6.600000000e-03	1.896457878e-01	-3.969479905e-04	1.692467633e-11
-6.700000000e-03	1.896457897e-01	-3.950197267e-04	1.482922866e-11
-6.800000000e-03	1.896457914e-01	-3.930914628e-04	1.311836096e-11
-6.900000000e-03	1.896457931e-01	-3.911631990e-04	2.037564976e-11
-7.000000000e-03	1.896457948e-01	-3.892349350e-04	4.149512687e-11
-7.100000000e-03	1.896457963e-01	-3.873066711e-04	1.140723552e-11
-7.200000000e-03	1.896457979e-01	-3.853784071e-04	9.832109456e-12
-7.300000000e-03	1.896457993e-01	-3.834501431e-04	1.747069131e-11
-7.400000000e-03	1.896458007e-01	-3.815218790e-04	3.150818807e-11
-7.500000000e-03	1.896458021e-01	-3.795936150e-04	8.249048071e-12
-7.600000000e-03	1.896458034e-01	-3.776653509e-04	7.839188988e-11
-7.700000000e-03	1.896458046e-01	-3.757370868e-04	1.587875308e-11
-7.800000000e-03	1.896458058e-01	-3.738088228e-04	7.139033205e-12
-7.900000000e-03	1.896458069e-01	-3.718805587e-04	1.041317603e-11
-8.000000000e-03	1.896458079e-01	-3.699522946e-04	6.167312668e-12
-8.100000000e-03	1.896458089e-01	-3.680240305e-04	6.851115420e-12
-8.200000000e-03	1.896458099e-01	-3.660957664e-04	1.767620786e-11
-8.300000000e-03	1.896458108e-01	-3.641675023e-04	8.734273124e-12
-8.400000000e-03	1.896458116e-01	-3.622392382e-04	8.045821872e-11
-8.500000000e-03	1.896458123e-01	-3.603109741e-04	1.093669996e-11
-8.600000000e-03	1.896458130e-01	-3.583827101e-04	2.867572872e-11
-8.700000000e-03	1.896458137e-01	-3.564544460e-04	9.631812304e-12
-8.800000000e-03	1.896458143e-01	-3.545261820e-04	1.303392941e-11
-8.900000000e-03	1.896458148e-01	-3.525979180e-04	1.149617204e-11
-9.000000000e-03	1.896458152e-01	-3.506696540e-04	1.118531056e-11
-9.100000000e-03	1.896458157e-01	-3.487413901e-04	1.465814513e-11
-9.200000000e-03	1.896458160e-01	-3.468131262e-04	1.809846885e-11
-9.300000000e-03	1.896458163e-01	-3.448848623e-04	8.262745449e-12
-9.400000000e-03	1.896458165e-01	-3.429565985e-04	1.063386487e-11
-9.500000000e-03	1.896458167e-01	-3.410283347e-04	1.357809734e-11
-9.600000000e-03	1.896458168e-01	-3.391000709e-04	1.458586117e-11
-9.700000000e-03	1.896458169e-01	-3.371718072e-04	8.699849987e-12
-9.800000000e-03	1.896458169e-01	-3.352435435e-04	1.142937142e-11
-9.900000000e-03	1.896458168e-01	-3.333152799e-04	1.560513588e-11
-1.000000000e-02	1.896458167e-01	-3.313870164e-04	2.376810097e-11
-1.010000000e-02	1.896458165e-01	-3.294587529e-04	4.614201557e-12
-1.020000000e-02	1.896458163e-01	-3.275304895e-04	3.973049469e-11
-1.030000000e-02	1.896458160e-01	-3.256022261e-04	7.603886833e-12
-1.040000000e-02	1.896458156e-01	-3.236739628e-04	1.297282633e-11
-1.050000000e-02	1.896458152e-01	-3.217456996e-04	6.095696629e-12
-1.060000000e-02	1.896458147e-01	-3.198174364e-04	9.613320713e-12
-1.070000000e-02	1.896458142e-01	-3.178891734e-04	6.937221772e-12
-1.080000000e-02	1.896458136e-01	-3.159609104e-04	9.320947504e-12
-1.090000000e-02	1.896458129e-01	-3.140326475e-04	1.270059704e-11
-1.100000000e-02	1.896458122e-01	-3.121043846e-04	7.590891373e-12
-1.110000000e-02	1.896458115e-01	-3.101761219e-04	1.961470533e-11
-1.120000000e-02	1.896458106e-01	-3.082478593e-04	1.349010288e-10
-1.130000000e-02	1.896458097e-01	-3.063195967e-04	2.118172389e-11
-1.140000000e-02	1.896458088e-01	-3.043913342e-04	1.169819338e-11
-1.150000000e-02	1.896458078e-01	-3.024630719e-04	8.891489452e-12
-1.160000000e-02	1.896458067e-01	-3.005348096e-04	8.248522491e-12
-1.170000000e-02	1.896458056e-01	-2.986065475e-04	1.302166170e-11
-1.180000000e-02	1.896458044e-01	-2.966782855e-04	1.483364462e-11
-1.190000000e-02	1.896458032e-01	-2.947500236e-04	1.069227433e-11
-1.200000000e-02	1.896458019e-01	-2.928217617e-04	6.377614904e-12
-1.210000000e-02	1.896458005e-01	-2.908935001e-04	1.001781282e-11
-1.220000000e-02	1.896457991e-01	-2.889652385e-04	1.049538337e-11
-1.230000000e-02	1.896457977e-01	-2.870369771e-04	7.856794404e-12
-1.240000000e-02	1.896457961e-01	-2.851087157e-04	2.971620474e-11
-1.250000000e-02	1.896457945e-01	-2.831804546e-04	4.131140037e-11
-1.260000000e-02	1.896457929e-01	-2.812521935e-04	1.351289733e-11
-1.270000000e-02	1.896457912e-01	-2.793239326e-04	1.054225662e-11
-1.280000000e-02	1.896457894e-01	-2.773956718e-04	7.757422386e-12
-1.290000000e-02	1.896457876e-01	-2.754674112e-04	1.602567981e-11
-1.300000000e-02	1.896457857e-01	-2.735391507e-04	1.175466602e-11
-1.310000000e-02	1.896457838e-01	-2.716108904e-04	3.318412222e-11
-1.320000000e-02	1.896457818e-01	-2.696826302e-04	1.180577569e-11
-1.330000000e-02	1.896457797e-01	-2.677543702e-04	1.912980199e-11
-1.340000000e-02	1.896457776e-01	-2.658261103e-04	1.189408368e-11
-1.350000000e-02	1.896457754e-01	-2.638978506e-04	1.156562205e-11
-1.360000000e-02	1.896457732e-01	-2.619695910e-04	1.881582610e-11
-1.370000000e-02	1.896457709e-01	-2.600413316e-04	1.664376484e-11
-1.380000000e-02	1.896457685e-01	-2.581130724e-04	1.880815407e-11
-1.390000000e-02	1.896457661e-01	-2.561848134e-04	8.565742699e-12
-1.400000000e-02	1.896457636e-01	-2.542565545e-04	3.317210882e-11
-1.410000000e-02	1.896457611e-01	-2.523282958e-04	2.876068914e-11
-1.420000000e-02	1.896457585e-01	-2.504000373e-04	1.519611898e-11
-1.430000000e-02	1.896457559e-01	-2.484717790e-04	9.683327827e-12
-1.440000000e-02	1.896457531e-01	-2.465435209e-04	7.667293012e-12
-1.450000000e-02	1.896457504e-01	-2.446152629e-04	2.191621669e-11
-1.460000000e-02	1.896457476e-01	-2.426870052e-04	9.093587527e-12
-1.470000000e-02	1.896457447e-01	-2.407587476e-04	1.464764789e-11
-1.480000000e-02	1.896457417e-01	-2.388304902e-04	1.373915746e-11
-1.490000000e-02	1.896457387e-01	-2.369022331e-04	2.688646061e-11
-1.500000000e-02	1.896457357e-01	-2.349739761e-04	1.135555138e-11
-1.510000000e-02	1.896457325e-01	-2.330457194e-04	9.714015860e-12
-1.520000000e-02	1.896457294e-01	-2.311174628e-04	1.725306550e-11
-1.530000000e-02	1.896457261e-01	-2.291892065e-04	6.802523629e-12
-1.540000000e-02	1.896457228e-01	-2.272609504e-04	1.296069719e-11
-1.550000000e-02	1.896457195e-01	-2.253326945e-04	7.281171509e-12
-1.560000000e-02	1.896457161e-01	-2.234044389e-04	1.620444329e-11
-1.570000000e-02	1.896457126e-01	-2.214761835e-04	2.319360586e-11
-1.580000000e-02	1.896457091e-01	-2.195479282e-04	1.325134723e-11
-1.590000000e-02	1.896457055e-01	-2.176196733e-04	1.230980554e-11
-1.600000000e-02	1.896457018e-01	-2.156914185e-04	1.335880187e-11
-1.610000000e-02	1.896456981e-01	-2.137631640e-04	3.854591290e-11
-1.620000000e-02	1.896456944e-01	-2.118349098e-04	1.915764196e-11
-1.630000000e-02	1.896456905e-01	-2.099066558e-04	1.660656976e-11
-1.640000000e-02	1.896456867e-01	-2.079784020e-04	2.324394021e-11
-1.650000000e-02	1.896456827e-01	-2.060501485e-04	9.443366199e-12
-1.660000000e-02	1.896456787e-01	-2.041218952e-04	1.957205254e-11
-1.670000000e-02	1.896456747e-01	-2.021936422e-04	1.944305418e-11
-1.680000000e-02	1.896456705e-01	-2.002653894e-04	1.006368025e-11
-1.690000000e-02	1.896456664e-01	-1.983371370e-04	6.170628838e-11
-1.700000000e-02	1.896456621e-01	-1.964088847e-04	1.531227238e-11
-1.710000000e-02	1.896456578e-01	-1.944806328e-04	1.558555573e-11
-1.720000000e-02	1.896456535e-01	-1.925523811e-04	2.109578011e-11
-1.730000000e-02	1.896456491e-01	-1.906241297e-04	8.616407658e-12
-1.740000000e-02	1.896456446e-01	-1.886958785e-04	3.483803869e-11
-1.750000000e-02	1.896456401e-01	-1.867676277e-04	2.031160642e-11
-1.760000000e-02	1.896456355e-01	-1.848393771e-04	1.077563429e-11
-1.770000000e-02	1.896456308e-01	-1.829111268e-04	1.888248648e-11
-1.780000000e-02	1.896456261e-01	-1.809828768e-04	1.811545631e-11
-1.790000000e-02	1.896456214e-01	-1.790546271e-04	1.235633405e-11
-1.800000000e-02	1.896456165e-01	-1.771263777e-04	7.819751035e-12
-1.810000000e-02	1.896456117e-01	-1.751981286e-04	7.683214384e-12
-1.820000000e-02	1.896456067e-01	-1.732698797e-04	3.383817892e-11
-1.830000000e-02	1.896456017e-01	-1.713416312e-04	1.034386211e-11
-1.840000000e-02	1.896455967e-01	-1.694133830e-04	1.857804921e-11
-1.850000000e-02	1.896455915e-01	-1.674851351e-04	6.250007922e-12
-1.860000000e-02	1.896455864e-01	-1.655568876e-04	1.515364225e-10
-1.870000000e-02	1.896455811e-01	-1.636286403e-04	1.100766823e-11
-1.880000000e-02	1.896455758e-01	-1.617003933e-04	2.771278470e-11
-1.890000000e-02	1.896455705e-01	-1.597721467e-04	2.448981236e-11
-1.900000000e-02	1.896455651e-01	-1.578439004e-04	1.210872545e-11
-1.910000000e-02	1.896455596e-01	-1.559156544e-04	1.114416285e-11
-1.920000000e-02	1.896455541e-01	-1.539874088e-04	9.930302943e-11
-1.930000000e-02	1.896455485e-01	-1.520591634e-04	1.252935005e-11
-1.940000000e-02	1.896455428e-01	-1.501309184e-04	3.257887036e-11
-1.950000000e-02	1.896455371e-01	-1.482026738e-04	5.926387965e-12
-1.960000000e-02	1.896455314e-01	-1.462744295e-04	1.814004262e-11
-1.970000000e-02	1.896455256e-01	-1.443461856e-04	5.382260898e-12
-1.980000000e-02	1.896455197e-01	-1.424179419e-04	1.514684582e-11
-1.990000000e-02	1.896455137e-01	-1.404896987e-04	1.785515119e-11
-2.000000000e-02	1.896455077e-01	-1.385614558e-04	1.950483155e-11
-2.010000000e-02	1.896455017e-01	-1.366332133e-04	1.006993345e-11
-2.020000000e-02	1.896454956e-01	-1.347049711e-04	2.241698608e-11
-2.030000000e-02	1.896454894e-01	-1.327767292e-04	2.893483771e-11
-2.040000000e-02	1.896454832e-01	-1.308484878e-04	1.160257387e-11
-2.050000000e-02	1.896454769e-01	-1.289202467e-04	4.643305131e-11
-2.060000000e-02	1.896454705e-01	-1.269920060e-04	1.128029722e-11
-2.070000000e-02	1.896454641e-01	-1.250637657e-04	7.076080444e-12
-2.080000000e-02	1.896454576e-01	-1.231355257e-04	1.592169948e-11
-2.090000000e-02	1.896454511e-01	-1.212072861e-04	1.184704402e-11
-2.100000000e-02	1.896454445e-01	-1.192790469e-04	1.691810379e-11
-2.110000000e-02	1.896454379e-01	-1.173508081e-04	8.767928113e-12
-2.120000000e-02	1.896454312e-01	-1.154225697e-04	1.203647484e-11
-2.130000000e-02	1.896454244e-01	-1.134943317e-04	1.305103134e-11
-2.140000000e-02	1.896454176e-01	-1.115660941e-04	1.156361602e-10
-2.150000000e-02	1.896454107e-01	-1.096378568e-04	1.075708828e-11
-2.160000000e-02	1.896454038e-01	-1.077096200e-04	1.014039173e-11
-2.170000000e-02	1.896453968e-01	-1.057813836e-04	2.177415019e-11
-2.180000000e-02	1.896453897e-01	-1.038531475e-04	1.457235176e-11
-2.190000000e-02	1.896453826e-01	-1.019249119e-04	3.267539300e-11
-2.200000000e-02	1.896453754e-01	-9.999667675e-05	7.679494177e-12
-2.210000000e-02	1.896453682e-01	-9.806844197e-05	6.927440061e-12
-2.220000000e-02	1.896453609e-01	-9.614020762e-05	2.220629521e-11
-2.230000000e-02	1.896453536e-01	-9.421197369e-05	4.828269850e-12
-2.240000000e-02	1.896453462e-01	-9.228374018e-05	2.341473410e-11
-2.250000000e-02	1.896453387e-01	-9.035550710e-05	1.213305462e-11
-2.260000000e-02	1.896453312e-01	-8.842727445e-05	1.251880224e-11
-2.270000000e-02	1.896453236e-01	-8.649904224e-05	1.208671287e-11
-2.280000000e-02	1.896453159e-01	-8.457081047e-05	7.440908189e-12
-2.290000000e-02	1.896453082e-01	-8.264257914e-05	1.017741430e-10
-2.300000000e-02	1.896453005e-01	-8.071434825e-05	8.794346434e-12
-2.310000000e-02	1.896452926e-01	-7.878611780e-05	3.432036155e-11
-2.320000000e-02	1.896452848e-01	-7.685788781e-05	1.876468839e-11
-2.330000000e-02	1.896452768e-01	-7.492965827e-05	9.680421273e-12
-2.340000000e-02	1.896452688e-01	-7.300142918e-05	6.394088116e-12
-2.350000000e-02	1.896452608e-01	-7.107320055e-05	2.369098255e-11
-2.360000000e-02	1.896452527e-01	-6.914497239e-05	8.614055248e-12
-2.370000000e-02	1.896452445e-01	-6.721674468e-05	1.581134834e-11
-2.380000000e-02	1.896452363e-01	-6.528851745e-05	1.247973818e-11
-2.390000000e-02	1.896452280e-01	-6.336029069e-05	1.285965066e-11
-2.400000000e-02	1.896452196e-01	-6.143206440e-05	8.886031167e-12
-2.410000000e-02	1.896452112e-01	-5.950383859e-05	8.542571637e-12
-2.420000000e-02	1.896452027e-01	-5.757561324e-05	5.540749357e-11
-2.430000000e-02	1.896451942e-01	-5.564738840e-05	1.071618426e-11
-2.440000000e-02	1.896451856e-01	-5.371916403e-05	9.164798933e-12
-2.450000000e-02	1.896451770e-01	-5.179094015e-05	9.114563898e-12
-2.460000000e-02	1.896451683e-01	-4.986271677e-05	1.214204375e-11
-2.470000000e-02	1.896451595e-01	-4.793449387e-05	9.099720874e-12
-2.480000000e-02	1.896451507e-01	-4.600627148e-05	1.763392994e-11
-2.490000000e-02	1.896451418e-01	-4.407804958e-05	1.220355279e-11
-2.500000000e-02	1.896451329e-01	-4.214982821e-05	2.574696412e-10
-2.510000000e-02	1.896451239e-01	-4.022160731e-05	1.782134832e-11
-2.520000000e-02	1.896451148e-01	-3.829338692e-05	1.074228542e-11
-2.530000000e-02	1.896451057e-01	-3.636516706e-05	1.394138503e-11
-2.540000000e-02	1.896450966e-01	-3.443694771e-05	8.425976715e-12
-2.550000000e-02	1.896450873e-01	-3.250872888e-05	1.525560180e-11
-2.560000000e-02	1.896450780e-01	-3.058051057e-05	1.085835936e-11
-2.570000000e-02	1.896450687e-01	-2.865229279e-05	4.941985991e-11
-2.580000000e-02	1.896450593e-01	-2.672407553e-05	5.435140347e-12
-2.590000000e-02	1.896450498e-01	-2.479585879e-05	2.094852275e-11
-2.600000000e-02	1.896450403e-01	-2.286764260e-05	9.849479212e-12
-2.610000000e-02	1.896450307e-01	-2.093942694e-05	1.375513447e-11
-2.620000000e-02	1.896450211e-01	-1.901121182e-05	8.636547292e-12
-2.630000000e-02	1.896450114e-01	-1.708299724e-05	6.050662405e-12
-2.640000000e-02	1.896450016e-01	-1.515478321e-05	2.791257107e-11
-2.650000000e-02	1.896449918e-01	-1.322656972e-05	7.915357990e-12
-2.660000000e-02	1.896449819e-01	-1.129835679e-05	9.718387479e-12
-2.670000000e-02	1.896449720e-01	-9.370144404e-06	1.001800424e-11
-2.680000000e-02	1.896449620e-01	-7.441932578e-06	1.510552590e-11
-2.690000000e-02	1.896449519e-01	-5.513721313e-06	1.272644807e-11
-2.700000000e-02	1.896449418e-01	-3.585510615e-06	1.556017840e-11
-2.710000000e-02	1.896449317e-01	-1.657300477e-06	1.314583314e-11
-2.720000000e-02	1.896449214e-01	2.709090914e-07	1.459220557e-11
-2.730000000e-02	1.896449111e-01	2.199118086e-06	2.094192064e-11
-2.740000000e-02	1.896449008e-01	4.127326505e-06	9.456044103e-12
-2.750000000e-02	1.896448904e-01	6.055534347e-06	8.081026388e-12
-2.760000000e-02	1.896448799e-01	7.983741606e-06	1.583991573e-11
-2.770000000e-02	1.896448694e-01	9.911948284e-06	8.656435819e-12
-2.780000000e-02	1.896448588e-01	1.184015437e-05	1.604310287e-11
-2.790000000e-02	1.896448482e-01	1.376835988e-05	1.883153514e-11
-2.800000000e-02	1.896448375e-01	1.569656479e-05	2.127287461e-11
-2.810000000e-02	1.896448267e-01	1.762476910e-05	2.440960187e-11
-2.820000000e-02	1.896448159e-01	1.955297281e-05	2.322789946e-11
-2.830000000e-02	1.896448050e-01	2.148117593e-05	3.008481228e-11
-2.840000000e-02	1.896447941e-01	2.340937843e-05	8.222580493e-12
-2.850000000e-02	1.896447831e-01	2.533758034e-05	1.173663162e-11
-2.860000000e-02	1.896447720e-01	2.726578163e-05	4.375520289e-11
-2.870000000e-02	1.896447609e-01	2.919398231e-05	7.966788788e-12
-2.880000000e-02	1.896447498e-01	3.112218236e-05	2.979721624e-11
-2.890000000e-02	1.896447385e-01	3.305038180e-05	1.084644366e-11
-2.900000000e-02	1.896447273e-01	3.497858062e-05	1.325577371e-11
-2.910000000e-02	1.896447159e-01	3.690677881e-05	5.501968816e-12
-2.920000000e-02	1.896447045e-01	3.883497638e-05	2.035344155e-11
-2.930000000e-02	1.896446930e-01	4.076317331e-05	1.701917413e-11
-2.940000000e-02	1.896446815e-01	4.269136961e-05	2.485008414e-11
-2.950000000e-02	1.896446699e-01	4.461956527e-05	5.765614090e-11
-2.960000000e-02	1.896446583e-01	4.654776029e-05	1.802895418e-11
-2.970000000e-02	1.896446466e-01	4.847595466e-05	2.007819511e-11
-2.980000000e-02	1.896446348e-01	5.040414840e-05	2.077808055e-11
-2.990000000e-02	1.896446230e-01	5.233234148e-05	1.016588400e-11
-3.000000000e-02	1.896446112e-01	5.426053391e-05	1.919775569e-11
