# Im(epsi1)     Re(omega/c)      Im(omega/c)      Eq(det).Opt det CON kz, R=0.5 \mum, mu_c=0.3, Re(epsi1)=3.90solve_det_conkz_vs_kz.py
0.000000000e+00	1.896853014e-01	-5.242870115e-04	2.176177184e-11
-1.000000000e-04	1.896853071e-01	-5.223585615e-04	1.142487121e-11
-2.000000000e-04	1.896853127e-01	-5.204301112e-04	9.662861261e-12
-3.000000000e-04	1.896853183e-01	-5.185016607e-04	6.942142596e-12
-4.000000000e-04	1.896853238e-01	-5.165732100e-04	2.612389268e-11
-5.000000000e-04	1.896853293e-01	-5.146447590e-04	6.496187544e-12
-6.000000000e-04	1.896853347e-01	-5.127163078e-04	1.184494980e-11
-7.000000000e-04	1.896853401e-01	-5.107878564e-04	2.495888106e-11
-8.000000000e-04	1.896853453e-01	-5.088594048e-04	8.864875160e-12
-9.000000000e-04	1.896853506e-01	-5.069309530e-04	8.618464836e-12
-1.000000000e-03	1.896853557e-01	-5.050025009e-04	1.536031732e-11
-1.100000000e-03	1.896853608e-01	-5.030740487e-04	3.896231619e-11
-1.200000000e-03	1.896853659e-01	-5.011455962e-04	1.124295224e-11
-1.300000000e-03	1.896853709e-01	-4.992171435e-04	8.922734637e-12
-1.400000000e-03	1.896853758e-01	-4.972886906e-04	7.628182384e-12
-1.500000000e-03	1.896853807e-01	-4.953602376e-04	6.316369188e-12
-1.600000000e-03	1.896853855e-01	-4.934317843e-04	7.072328568e-12
-1.700000000e-03	1.896853903e-01	-4.915033309e-04	1.127388025e-11
-1.800000000e-03	1.896853950e-01	-4.895748772e-04	1.497808331e-11
-1.900000000e-03	1.896853996e-01	-4.876464234e-04	2.553256372e-11
-2.000000000e-03	1.896854042e-01	-4.857179694e-04	6.730791773e-12
-2.100000000e-03	1.896854087e-01	-4.837895152e-04	1.157337588e-11
-2.200000000e-03	1.896854132e-01	-4.818610608e-04	1.206074238e-11
-2.300000000e-03	1.896854176e-01	-4.799326063e-04	7.578646627e-12
-2.400000000e-03	1.896854219e-01	-4.780041515e-04	1.730251434e-11
-2.500000000e-03	1.896854262e-01	-4.760756967e-04	1.294597979e-11
-2.600000000e-03	1.896854304e-01	-4.741472416e-04	2.599688090e-11
-2.700000000e-03	1.896854346e-01	-4.722187864e-04	2.220434702e-11
-2.800000000e-03	1.896854387e-01	-4.702903310e-04	1.069385188e-11
-2.900000000e-03	1.896854428e-01	-4.683618755e-04	7.573738897e-12
-3.000000000e-03	1.896854468e-01	-4.664334198e-04	1.349695227e-11
-3.100000000e-03	1.896854507e-01	-4.645049640e-04	5.317375829e-11
-3.200000000e-03	1.896854546e-01	-4.625765080e-04	1.109692986e-11
-3.300000000e-03	1.896854584e-01	-4.606480519e-04	1.020780781e-11
-3.400000000e-03	1.896854621e-01	-4.587195957e-04	1.800166641e-11
-3.500000000e-03	1.896854658e-01	-4.567911393e-04	5.933289804e-12
-3.600000000e-03	1.896854695e-01	-4.548626827e-04	5.623987376e-12
-3.700000000e-03	1.896854731e-01	-4.529342261e-04	8.111154207e-12
-3.800000000e-03	1.896854766e-01	-4.510057693e-04	9.633983413e-12
-3.900000000e-03	1.896854800e-01	-4.490773123e-04	1.412247292e-11
-4.000000000e-03	1.896854834e-01	-4.471488553e-04	9.961223667e-12
-4.100000000e-03	1.896854868e-01	-4.452203981e-04	5.196928347e-11
-4.200000000e-03	1.896854901e-01	-4.432919409e-04	7.913392736e-12
-4.300000000e-03	1.896854933e-01	-4.413634835e-04	5.839243540e-12
-4.400000000e-03	1.896854965e-01	-4.394350260e-04	7.776111224e-11
-4.500000000e-03	1.896854996e-01	-4.375065684e-04	1.105805980e-11
-4.600000000e-03	1.896855026e-01	-4.355781106e-04	5.201603876e-11
-4.700000000e-03	1.896855056e-01	-4.336496528e-04	1.325160158e-11
-4.800000000e-03	1.896855086e-01	-4.317211949e-04	1.339756324e-11
-4.900000000e-03	1.896855114e-01	-4.297927369e-04	4.879565008e-12
-5.000000000e-03	1.896855143e-01	-4.278642788e-04	1.104569167e-11
-5.100000000e-03	1.896855170e-01	-4.259358206e-04	6.967903972e-12
-5.200000000e-03	1.896855197e-01	-4.240073623e-04	5.716413348e-12
-5.300000000e-03	1.896855224e-01	-4.220789039e-04	2.318859774e-11
-5.400000000e-03	1.896855249e-01	-4.201504455e-04	8.155293963e-12
-5.500000000e-03	1.896855275e-01	-4.182219869e-04	6.588850452e-12
-5.600000000e-03	1.896855299e-01	-4.162935283e-04	3.738046352e-11
-5.700000000e-03	1.896855323e-01	-4.143650696e-04	1.646458699e-11
-5.800000000e-03	1.896855347e-01	-4.124366109e-04	1.639279379e-11
-5.900000000e-03	1.896855370e-01	-4.105081521e-04	2.001506204e-11
-6.000000000e-03	1.896855392e-01	-4.085796932e-04	9.168247609e-12
-6.100000000e-03	1.896855414e-01	-4.066512343e-04	3.708300921e-11
-6.200000000e-03	1.896855435e-01	-4.047227753e-04	2.376963595e-11
-6.300000000e-03	1.896855455e-01	-4.027943162e-04	7.922593974e-12
-6.400000000e-03	1.896855475e-01	-4.008658571e-04	1.492038343e-11
-6.500000000e-03	1.896855495e-01	-3.989373980e-04	1.312772225e-11
-6.600000000e-03	1.896855513e-01	-3.970089388e-04	1.241468699e-11
-6.700000000e-03	1.896855532e-01	-3.950804795e-04	1.802273067e-11
-6.800000000e-03	1.896855549e-01	-3.931520203e-04	1.696405528e-11
-6.900000000e-03	1.896855566e-01	-3.912235610e-04	1.985453020e-11
-7.000000000e-03	1.896855583e-01	-3.892951016e-04	1.299156156e-11
-7.100000000e-03	1.896855598e-01	-3.873666422e-04	8.626211365e-12
-7.200000000e-03	1.896855614e-01	-3.854381828e-04	1.445546885e-11
-7.300000000e-03	1.896855628e-01	-3.835097234e-04	1.756332949e-11
-7.400000000e-03	1.896855642e-01	-3.815812639e-04	9.439906194e-12
-7.500000000e-03	1.896855656e-01	-3.796528045e-04	1.045578199e-11
-7.600000000e-03	1.896855669e-01	-3.777243450e-04	1.524952431e-11
-7.700000000e-03	1.896855681e-01	-3.757958855e-04	1.848909328e-11
-7.800000000e-03	1.896855693e-01	-3.738674260e-04	1.369949928e-11
-7.900000000e-03	1.896855704e-01	-3.719389665e-04	2.225273928e-11
-8.000000000e-03	1.896855715e-01	-3.700105069e-04	1.215968377e-11
-8.100000000e-03	1.896855724e-01	-3.680820474e-04	6.444394544e-11
-8.200000000e-03	1.896855734e-01	-3.661535879e-04	1.875461822e-11
-8.300000000e-03	1.896855743e-01	-3.642251284e-04	1.257803643e-11
-8.400000000e-03	1.896855751e-01	-3.622966689e-04	1.091160594e-11
-8.500000000e-03	1.896855758e-01	-3.603682094e-04	2.257111702e-11
-8.600000000e-03	1.896855765e-01	-3.584397499e-04	8.975715108e-12
-8.700000000e-03	1.896855772e-01	-3.565112904e-04	3.213979493e-11
-8.800000000e-03	1.896855778e-01	-3.545828310e-04	3.529363661e-11
-8.900000000e-03	1.896855783e-01	-3.526543716e-04	2.270497513e-11
-9.000000000e-03	1.896855788e-01	-3.507259122e-04	4.806638952e-12
-9.100000000e-03	1.896855792e-01	-3.487974528e-04	7.587142053e-12
-9.200000000e-03	1.896855795e-01	-3.468689935e-04	1.376019294e-11
-9.300000000e-03	1.896855798e-01	-3.449405342e-04	1.061489750e-11
-9.400000000e-03	1.896855800e-01	-3.430120749e-04	1.042269807e-11
-9.500000000e-03	1.896855802e-01	-3.410836157e-04	1.484383626e-11
-9.600000000e-03	1.896855803e-01	-3.391551565e-04	9.821277317e-12
-9.700000000e-03	1.896855804e-01	-3.372266974e-04	1.657101543e-11
-9.800000000e-03	1.896855804e-01	-3.352982383e-04	1.636943404e-11
-9.900000000e-03	1.896855803e-01	-3.333697793e-04	1.360582662e-11
-1.000000000e-02	1.896855802e-01	-3.314413203e-04	1.446566428e-11
-1.010000000e-02	1.896855800e-01	-3.295128614e-04	1.024168807e-11
-1.020000000e-02	1.896855798e-01	-3.275844026e-04	2.070523204e-11
-1.030000000e-02	1.896855795e-01	-3.256559438e-04	5.919429990e-11
-1.040000000e-02	1.896855791e-01	-3.237274851e-04	6.531265145e-12
-1.050000000e-02	1.896855787e-01	-3.217990264e-04	1.359955502e-11
-1.060000000e-02	1.896855782e-01	-3.198705679e-04	9.931257224e-12
-1.070000000e-02	1.896855777e-01	-3.179421094e-04	9.787336742e-12
-1.080000000e-02	1.896855771e-01	-3.160136509e-04	1.350495530e-11
-1.090000000e-02	1.896855765e-01	-3.140851926e-04	2.856755319e-11
-1.100000000e-02	1.896855758e-01	-3.121567344e-04	7.708899233e-12
-1.110000000e-02	1.896855750e-01	-3.102282762e-04	2.500438648e-11
-1.120000000e-02	1.896855742e-01	-3.082998181e-04	1.123463647e-11
-1.130000000e-02	1.896855733e-01	-3.063713602e-04	8.842268910e-12
-1.140000000e-02	1.896855723e-01	-3.044429023e-04	1.552787317e-11
-1.150000000e-02	1.896855713e-01	-3.025144445e-04	1.958770571e-11
-1.160000000e-02	1.896855703e-01	-3.005859868e-04	8.504948014e-12
-1.170000000e-02	1.896855691e-01	-2.986575293e-04	1.738090666e-11
-1.180000000e-02	1.896855680e-01	-2.967290718e-04	3.302814593e-11
-1.190000000e-02	1.896855667e-01	-2.948006145e-04	3.211467655e-11
-1.200000000e-02	1.896855654e-01	-2.928721573e-04	1.278626791e-11
-1.210000000e-02	1.896855641e-01	-2.909437002e-04	1.026051953e-11
-1.220000000e-02	1.896855627e-01	-2.890152432e-04	1.146956962e-11
-1.230000000e-02	1.896855612e-01	-2.870867863e-04	4.501007164e-11
-1.240000000e-02	1.896855597e-01	-2.851583296e-04	1.047039331e-11
-1.250000000e-02	1.896855581e-01	-2.832298730e-04	9.036143941e-12
-1.260000000e-02	1.896855564e-01	-2.813014165e-04	3.995570020e-11
-1.270000000e-02	1.896855547e-01	-2.793729602e-04	2.440902816e-11
-1.280000000e-02	1.896855530e-01	-2.774445040e-04	2.629012738e-11
-1.290000000e-02	1.896855511e-01	-2.755160479e-04	1.256982059e-11
-1.300000000e-02	1.896855492e-01	-2.735875920e-04	6.030989557e-12
-1.310000000e-02	1.896855473e-01	-2.716591362e-04	1.244225520e-11
-1.320000000e-02	1.896855453e-01	-2.697306806e-04	1.829186434e-11
-1.330000000e-02	1.896855432e-01	-2.678022252e-04	1.697449286e-11
-1.340000000e-02	1.896855411e-01	-2.658737699e-04	3.823334579e-11
-1.350000000e-02	1.896855389e-01	-2.639453147e-04	6.381526057e-11
-1.360000000e-02	1.896855367e-01	-2.620168598e-04	3.955216365e-11
-1.370000000e-02	1.896855344e-01	-2.600884050e-04	1.854241777e-11
-1.380000000e-02	1.896855321e-01	-2.581599503e-04	1.953225649e-11
-1.390000000e-02	1.896855296e-01	-2.562314959e-04	7.554194028e-12
-1.400000000e-02	1.896855272e-01	-2.543030416e-04	1.206369794e-11
-1.410000000e-02	1.896855246e-01	-2.523745875e-04	1.030918935e-11
-1.420000000e-02	1.896855220e-01	-2.504461335e-04	2.521576278e-11
-1.430000000e-02	1.896855194e-01	-2.485176798e-04	6.096052175e-12
-1.440000000e-02	1.896855167e-01	-2.465892262e-04	1.240457928e-11
-1.450000000e-02	1.896855139e-01	-2.446607729e-04	7.979206402e-12
-1.460000000e-02	1.896855111e-01	-2.427323197e-04	7.041930909e-12
-1.470000000e-02	1.896855082e-01	-2.408038667e-04	1.231860993e-11
-1.480000000e-02	1.896855053e-01	-2.388754139e-04	5.787290117e-11
-1.490000000e-02	1.896855023e-01	-2.369469613e-04	1.148162610e-11
-1.500000000e-02	1.896854992e-01	-2.350185090e-04	1.409129777e-11
-1.510000000e-02	1.896854961e-01	-2.330900568e-04	2.012590241e-11
-1.520000000e-02	1.896854929e-01	-2.311616048e-04	6.580182384e-12
-1.530000000e-02	1.896854897e-01	-2.292331531e-04	7.453262715e-12
-1.540000000e-02	1.896854864e-01	-2.273047016e-04	1.337092079e-11
-1.550000000e-02	1.896854830e-01	-2.253762503e-04	1.616995248e-11
-1.560000000e-02	1.896854796e-01	-2.234477992e-04	4.160087384e-11
-1.570000000e-02	1.896854762e-01	-2.215193483e-04	4.897807480e-11
-1.580000000e-02	1.896854726e-01	-2.195908977e-04	1.510596811e-11
-1.590000000e-02	1.896854690e-01	-2.176624473e-04	1.784866152e-11
-1.600000000e-02	1.896854654e-01	-2.157339971e-04	1.669438801e-11
-1.610000000e-02	1.896854617e-01	-2.138055472e-04	3.724261624e-11
-1.620000000e-02	1.896854579e-01	-2.118770975e-04	1.779241570e-11
-1.630000000e-02	1.896854541e-01	-2.099486481e-04	1.651237782e-11
-1.640000000e-02	1.896854502e-01	-2.080201989e-04	2.438062873e-11
-1.650000000e-02	1.896854463e-01	-2.060917500e-04	2.248281818e-11
-1.660000000e-02	1.896854423e-01	-2.041633013e-04	8.311049696e-12
-1.670000000e-02	1.896854382e-01	-2.022348528e-04	1.370526973e-11
-1.680000000e-02	1.896854341e-01	-2.003064047e-04	1.647021074e-11
-1.690000000e-02	1.896854299e-01	-1.983779567e-04	7.847403269e-12
-1.700000000e-02	1.896854257e-01	-1.964495091e-04	1.331794024e-11
-1.710000000e-02	1.896854214e-01	-1.945210617e-04	2.144688732e-11
-1.720000000e-02	1.896854170e-01	-1.925926146e-04	1.668710985e-11
-1.730000000e-02	1.896854126e-01	-1.906641678e-04	6.160272760e-12
-1.740000000e-02	1.896854082e-01	-1.887357212e-04	2.702310729e-11
-1.750000000e-02	1.896854036e-01	-1.868072749e-04	2.278473671e-11
-1.760000000e-02	1.896853990e-01	-1.848788289e-04	2.269232459e-11
-1.770000000e-02	1.896853944e-01	-1.829503832e-04	1.948161740e-11
-1.780000000e-02	1.896853897e-01	-1.810219378e-04	9.926828270e-12
-1.790000000e-02	1.896853849e-01	-1.790934926e-04	9.110373939e-12
-1.800000000e-02	1.896853801e-01	-1.771650478e-04	1.393084701e-11
-1.810000000e-02	1.896853752e-01	-1.752366033e-04	8.395298160e-12
-1.820000000e-02	1.896853703e-01	-1.733081590e-04	1.985785409e-11
-1.830000000e-02	1.896853653e-01	-1.713797151e-04	1.804273330e-11
-1.840000000e-02	1.896853602e-01	-1.694512715e-04	1.284901759e-11
-1.850000000e-02	1.896853551e-01	-1.675228281e-04	2.365823923e-11
-1.860000000e-02	1.896853499e-01	-1.655943851e-04	1.234944205e-11
-1.870000000e-02	1.896853447e-01	-1.636659424e-04	4.684246115e-12
-1.880000000e-02	1.896853394e-01	-1.617375000e-04	6.462341967e-11
-1.890000000e-02	1.896853341e-01	-1.598090580e-04	6.068519710e-11
-1.900000000e-02	1.896853287e-01	-1.578806163e-04	8.584294884e-12
-1.910000000e-02	1.896853232e-01	-1.559521748e-04	1.143392294e-09
-1.920000000e-02	1.896853177e-01	-1.540237338e-04	3.327615798e-11
-1.930000000e-02	1.896853121e-01	-1.520952930e-04	4.274686386e-11
-1.940000000e-02	1.896853064e-01	-1.501668526e-04	1.672318811e-11
-1.950000000e-02	1.896853007e-01	-1.482384126e-04	5.392319945e-12
-1.960000000e-02	1.896852950e-01	-1.463099728e-04	1.287414689e-11
-1.970000000e-02	1.896852891e-01	-1.443815335e-04	1.564004146e-11
-1.980000000e-02	1.896852833e-01	-1.424530944e-04	1.118585884e-11
-1.990000000e-02	1.896852773e-01	-1.405246558e-04	7.199289589e-12
-2.000000000e-02	1.896852713e-01	-1.385962174e-04	3.892521022e-11
-2.010000000e-02	1.896852653e-01	-1.366677795e-04	8.490250591e-11
-2.020000000e-02	1.896852592e-01	-1.347393419e-04	9.667354052e-12
-2.030000000e-02	1.896852530e-01	-1.328109046e-04	1.709217494e-11
-2.040000000e-02	1.896852467e-01	-1.308824677e-04	1.431945765e-11
-2.050000000e-02	1.896852405e-01	-1.289540312e-04	8.427738603e-11
-2.060000000e-02	1.896852341e-01	-1.270255951e-04	8.682213940e-12
-2.070000000e-02	1.896852277e-01	-1.250971593e-04	1.071790160e-11
-2.080000000e-02	1.896852212e-01	-1.231687239e-04	2.771446205e-11
-2.090000000e-02	1.896852147e-01	-1.212402889e-04	1.023435247e-11
-2.100000000e-02	1.896852081e-01	-1.193118543e-04	1.524461223e-11
-2.110000000e-02	1.896852015e-01	-1.173834201e-04	1.831225128e-11
-2.120000000e-02	1.896851948e-01	-1.154549862e-04	5.490704382e-11
-2.130000000e-02	1.896851880e-01	-1.135265528e-04	5.150298671e-11
-2.140000000e-02	1.896851812e-01	-1.115981197e-04	9.094055853e-12
-2.150000000e-02	1.896851743e-01	-1.096696871e-04	6.201133053e-12
-2.160000000e-02	1.896851674e-01	-1.077412548e-04	1.352370141e-11
-2.170000000e-02	1.896851604e-01	-1.058128230e-04	1.181374798e-11
-2.180000000e-02	1.896851533e-01	-1.038843915e-04	1.060015977e-11
-2.190000000e-02	1.896851462e-01	-1.019559605e-04	1.645618414e-11
-2.200000000e-02	1.896851390e-01	-1.000275299e-04	1.813902616e-11
-2.210000000e-02	1.896851318e-01	-9.809909967e-05	1.224151790e-11
-2.220000000e-02	1.896851245e-01	-9.617066988e-05	1.288493319e-11
-2.230000000e-02	1.896851172e-01	-9.424224053e-05	8.725941241e-12
-2.240000000e-02	1.896851098e-01	-9.231381159e-05	4.468170571e-12
-2.250000000e-02	1.896851023e-01	-9.038538309e-05	1.049682056e-11
-2.260000000e-02	1.896850948e-01	-8.845695501e-05	8.089154910e-12
-2.270000000e-02	1.896850872e-01	-8.652852738e-05	2.702661878e-11
-2.280000000e-02	1.896850795e-01	-8.460010017e-05	1.472926629e-11
-2.290000000e-02	1.896850718e-01	-8.267167341e-05	1.147356502e-11
-2.300000000e-02	1.896850641e-01	-8.074324710e-05	1.677341381e-11
-2.310000000e-02	1.896850563e-01	-7.881482122e-05	1.118774387e-11
-2.320000000e-02	1.896850484e-01	-7.688639580e-05	1.236763911e-11
-2.330000000e-02	1.896850404e-01	-7.495797084e-05	1.327594782e-11
-2.340000000e-02	1.896850324e-01	-7.302954632e-05	6.744340602e-12
-2.350000000e-02	1.896850244e-01	-7.110112227e-05	8.621000965e-12
-2.360000000e-02	1.896850163e-01	-6.917269867e-05	2.862612175e-11
-2.370000000e-02	1.896850081e-01	-6.724427554e-05	2.026050766e-11
-2.380000000e-02	1.896849999e-01	-6.531585288e-05	7.944040994e-11
-2.390000000e-02	1.896849916e-01	-6.338743069e-05	2.438563562e-11
-2.400000000e-02	1.896849832e-01	-6.145900897e-05	5.144556192e-11
-2.410000000e-02	1.896849748e-01	-5.953058773e-05	1.247476868e-11
-2.420000000e-02	1.896849664e-01	-5.760216697e-05	6.060562365e-12
-2.430000000e-02	1.896849578e-01	-5.567374669e-05	2.364519459e-11
-2.440000000e-02	1.896849493e-01	-5.374532690e-05	8.526458692e-12
-2.450000000e-02	1.896849406e-01	-5.181690759e-05	1.406052698e-11
-2.460000000e-02	1.896849319e-01	-4.988848877e-05	3.632739422e-11
-2.470000000e-02	1.896849232e-01	-4.796007045e-05	2.450298051e-11
-2.480000000e-02	1.896849143e-01	-4.603165263e-05	1.074928457e-11
-2.490000000e-02	1.896849055e-01	-4.410323530e-05	1.581791136e-11
-2.500000000e-02	1.896848965e-01	-4.217481848e-05	1.852396521e-11
-2.510000000e-02	1.896848875e-01	-4.024640217e-05	3.629014356e-11
-2.520000000e-02	1.896848785e-01	-3.831798636e-05	8.655131403e-12
-2.530000000e-02	1.896848694e-01	-3.638957107e-05	6.168549566e-12
-2.540000000e-02	1.896848602e-01	-3.446115629e-05	2.508610026e-11
-2.550000000e-02	1.896848510e-01	-3.253274203e-05	9.831573005e-12
-2.560000000e-02	1.896848417e-01	-3.060432829e-05	7.596857915e-12
-2.570000000e-02	1.896848323e-01	-2.867591508e-05	1.025066739e-11
-2.580000000e-02	1.896848229e-01	-2.674750239e-05	1.834818368e-11
-2.590000000e-02	1.896848135e-01	-2.481909023e-05	1.429987586e-11
-2.600000000e-02	1.896848039e-01	-2.289067861e-05	3.495797024e-11
-2.610000000e-02	1.896847943e-01	-2.096226752e-05	1.038573475e-11
-2.620000000e-02	1.896847847e-01	-1.903385697e-05	7.863200632e-12
-2.630000000e-02	1.896847750e-01	-1.710544696e-05	8.083777132e-12
-2.640000000e-02	1.896847652e-01	-1.517703749e-05	8.117381565e-12
-2.650000000e-02	1.896847554e-01	-1.324862858e-05	9.928263186e-12
-2.660000000e-02	1.896847456e-01	-1.132022021e-05	1.384146258e-11
-2.670000000e-02	1.896847356e-01	-9.391812403e-06	5.680649666e-12
-2.680000000e-02	1.896847256e-01	-7.463405147e-06	1.986094537e-11
-2.690000000e-02	1.896847156e-01	-5.534998454e-06	1.676307930e-11
-2.700000000e-02	1.896847055e-01	-3.606592323e-06	3.149281487e-11
-2.710000000e-02	1.896846953e-01	-1.678186757e-06	1.903841169e-11
-2.720000000e-02	1.896846851e-01	2.502182406e-07	1.567012708e-11
-2.730000000e-02	1.896846748e-01	2.178622665e-06	1.398718846e-11
-2.740000000e-02	1.896846644e-01	4.107026515e-06	5.808912574e-11
-2.750000000e-02	1.896846540e-01	6.035429789e-06	5.714556007e-12
-2.760000000e-02	1.896846436e-01	7.963832482e-06	1.544307374e-11
-2.770000000e-02	1.896846330e-01	9.892234590e-06	1.031655700e-11
-2.780000000e-02	1.896846225e-01	1.182063611e-05	1.547962919e-11
-2.790000000e-02	1.896846118e-01	1.374903704e-05	1.659456291e-11
-2.800000000e-02	1.896846011e-01	1.567743738e-05	6.666414662e-12
-2.810000000e-02	1.896845904e-01	1.760583713e-05	6.187211275e-12
-2.820000000e-02	1.896845795e-01	1.953423627e-05	1.306852737e-11
-2.830000000e-02	1.896845687e-01	2.146263482e-05	1.276034865e-11
-2.840000000e-02	1.896845577e-01	2.339103276e-05	8.967725235e-12
-2.850000000e-02	1.896845467e-01	2.531943009e-05	2.490491174e-11
-2.860000000e-02	1.896845357e-01	2.724782681e-05	1.201764025e-11
-2.870000000e-02	1.896845246e-01	2.917622292e-05	1.046481773e-11
-2.880000000e-02	1.896845134e-01	3.110461841e-05	5.439062687e-12
-2.890000000e-02	1.896845022e-01	3.303301328e-05	1.286938585e-11
-2.900000000e-02	1.896844909e-01	3.496140753e-05	1.709307449e-11
-2.910000000e-02	1.896844796e-01	3.688980116e-05	1.026883536e-11
-2.920000000e-02	1.896844682e-01	3.881819415e-05	3.767687232e-11
-2.930000000e-02	1.896844567e-01	4.074658652e-05	1.225181731e-11
-2.940000000e-02	1.896844452e-01	4.267497825e-05	5.929186101e-11
-2.950000000e-02	1.896844336e-01	4.460336934e-05	7.506278722e-12
-2.960000000e-02	1.896844219e-01	4.653175979e-05	6.469749307e-12
-2.970000000e-02	1.896844102e-01	4.846014960e-05	9.095331381e-12
-2.980000000e-02	1.896843985e-01	5.038853877e-05	1.947313308e-11
-2.990000000e-02	1.896843867e-01	5.231692728e-05	1.061650955e-11
-3.000000000e-02	1.896843748e-01	5.424531514e-05	9.850978308e-12
