# Im(epsi1)     Re(omega/c)      Im(omega/c)      Eq(det).Opt det CON kz, R=0.5 \mum, mu_c=0.3, Re(epsi1)=3.90solve_det_conkz_vs_kz.py
0.000000000e+00	1.896775932e-01	-5.242785555e-04	5.510333686e-11
-1.000000000e-04	1.896775989e-01	-5.223501435e-04	1.393330917e-11
-2.000000000e-04	1.896776045e-01	-5.204217313e-04	8.389521751e-12
-3.000000000e-04	1.896776101e-01	-5.184933188e-04	9.671379754e-12
-4.000000000e-04	1.896776156e-01	-5.165649062e-04	1.710638560e-11
-5.000000000e-04	1.896776211e-01	-5.146364932e-04	6.635959100e-12
-6.000000000e-04	1.896776265e-01	-5.127080801e-04	1.060841835e-11
-7.000000000e-04	1.896776319e-01	-5.107796667e-04	7.742846243e-12
-8.000000000e-04	1.896776371e-01	-5.088512532e-04	2.227974939e-11
-9.000000000e-04	1.896776424e-01	-5.069228394e-04	9.478769429e-12
-1.000000000e-03	1.896776475e-01	-5.049944254e-04	1.256726022e-11
-1.100000000e-03	1.896776526e-01	-5.030660111e-04	3.205969415e-11
-1.200000000e-03	1.896776577e-01	-5.011375967e-04	1.707025664e-11
-1.300000000e-03	1.896776627e-01	-4.992091821e-04	2.503283200e-11
-1.400000000e-03	1.896776676e-01	-4.972807673e-04	5.496712260e-11
-1.500000000e-03	1.896776725e-01	-4.953523522e-04	8.557593603e-12
-1.600000000e-03	1.896776773e-01	-4.934239370e-04	1.776389086e-11
-1.700000000e-03	1.896776821e-01	-4.914955216e-04	1.312252066e-11
-1.800000000e-03	1.896776868e-01	-4.895671060e-04	2.717930138e-11
-1.900000000e-03	1.896776914e-01	-4.876386902e-04	1.747538710e-11
-2.000000000e-03	1.896776960e-01	-4.857102742e-04	1.437043319e-11
-2.100000000e-03	1.896777005e-01	-4.837818581e-04	6.571270333e-11
-2.200000000e-03	1.896777050e-01	-4.818534418e-04	9.410916733e-12
-2.300000000e-03	1.896777094e-01	-4.799250253e-04	9.840738083e-12
-2.400000000e-03	1.896777137e-01	-4.779966086e-04	1.165053811e-11
-2.500000000e-03	1.896777180e-01	-4.760681918e-04	1.879625413e-11
-2.600000000e-03	1.896777222e-01	-4.741397748e-04	1.213349959e-11
-2.700000000e-03	1.896777264e-01	-4.722113576e-04	1.910560120e-11
-2.800000000e-03	1.896777305e-01	-4.702829403e-04	1.515710719e-11
-2.900000000e-03	1.896777346e-01	-4.683545228e-04	1.362124980e-11
-3.000000000e-03	1.896777386e-01	-4.664261052e-04	1.894118151e-11
-3.100000000e-03	1.896777425e-01	-4.644976874e-04	1.394964148e-11
-3.200000000e-03	1.896777464e-01	-4.625692694e-04	5.507181166e-11
-3.300000000e-03	1.896777502e-01	-4.606408514e-04	2.567589416e-11
-3.400000000e-03	1.896777539e-01	-4.587124332e-04	6.951522237e-12
-3.500000000e-03	1.896777576e-01	-4.567840148e-04	2.430799766e-11
-3.600000000e-03	1.896777613e-01	-4.548555963e-04	9.163702181e-12
-3.700000000e-03	1.896777649e-01	-4.529271777e-04	9.647551703e-12
-3.800000000e-03	1.896777684e-01	-4.509987590e-04	6.692556369e-12
-3.900000000e-03	1.896777718e-01	-4.490703401e-04	7.834321850e-12
-4.000000000e-03	1.896777753e-01	-4.471419211e-04	1.113581463e-11
-4.100000000e-03	1.896777786e-01	-4.452135020e-04	5.839844136e-12
-4.200000000e-03	1.896777819e-01	-4.432850827e-04	5.682933564e-11
-4.300000000e-03	1.896777851e-01	-4.413566634e-04	7.346511878e-12
-4.400000000e-03	1.896777883e-01	-4.394282439e-04	2.357298669e-11
-4.500000000e-03	1.896777914e-01	-4.374998244e-04	4.293562195e-12
-4.600000000e-03	1.896777944e-01	-4.355714047e-04	6.236725113e-12
-4.700000000e-03	1.896777974e-01	-4.336429849e-04	6.964224734e-12
-4.800000000e-03	1.896778004e-01	-4.317145650e-04	3.567936165e-11
-4.900000000e-03	1.896778033e-01	-4.297861451e-04	7.904597154e-12
-5.000000000e-03	1.896778061e-01	-4.278577250e-04	5.596794186e-11
-5.100000000e-03	1.896778088e-01	-4.259293048e-04	8.211190090e-12
-5.200000000e-03	1.896778115e-01	-4.240008846e-04	1.151465895e-11
-5.300000000e-03	1.896778142e-01	-4.220724643e-04	1.170555123e-11
-5.400000000e-03	1.896778168e-01	-4.201440439e-04	6.600992580e-12
-5.500000000e-03	1.896778193e-01	-4.182156234e-04	1.535710056e-11
-5.600000000e-03	1.896778217e-01	-4.162872028e-04	1.562114497e-11
-5.700000000e-03	1.896778241e-01	-4.143587822e-04	1.228563484e-11
-5.800000000e-03	1.896778265e-01	-4.124303615e-04	1.197865302e-11
-5.900000000e-03	1.896778288e-01	-4.105019407e-04	7.710084253e-12
-6.000000000e-03	1.896778310e-01	-4.085735199e-04	4.030438830e-11
-6.100000000e-03	1.896778332e-01	-4.066450990e-04	1.568227488e-11
-6.200000000e-03	1.896778353e-01	-4.047166780e-04	1.219788039e-11
-6.300000000e-03	1.896778373e-01	-4.027882570e-04	8.930437118e-12
-6.400000000e-03	1.896778393e-01	-4.008598360e-04	1.928050662e-11
-6.500000000e-03	1.896778413e-01	-3.989314149e-04	2.554962044e-11
-6.600000000e-03	1.896778432e-01	-3.970029937e-04	7.324323248e-12
-6.700000000e-03	1.896778450e-01	-3.950745725e-04	2.218205059e-11
-6.800000000e-03	1.896778467e-01	-3.931461513e-04	1.311934786e-11
-6.900000000e-03	1.896778484e-01	-3.912177300e-04	1.146483033e-11
-7.000000000e-03	1.896778501e-01	-3.892893087e-04	8.491908244e-12
-7.100000000e-03	1.896778517e-01	-3.873608874e-04	1.217719436e-11
-7.200000000e-03	1.896778532e-01	-3.854324660e-04	1.546850010e-11
-7.300000000e-03	1.896778547e-01	-3.835040446e-04	1.259616568e-11
-7.400000000e-03	1.896778561e-01	-3.815756232e-04	1.210522972e-11
-7.500000000e-03	1.896778574e-01	-3.796472018e-04	2.507516690e-11
-7.600000000e-03	1.896778587e-01	-3.777187804e-04	3.260489501e-11
-7.700000000e-03	1.896778599e-01	-3.757903589e-04	1.388386348e-11
-7.800000000e-03	1.896778611e-01	-3.738619374e-04	5.126454209e-11
-7.900000000e-03	1.896778622e-01	-3.719335160e-04	1.938653343e-11
-8.000000000e-03	1.896778633e-01	-3.700050945e-04	1.069575088e-11
-8.100000000e-03	1.896778643e-01	-3.680766730e-04	8.826029753e-12
-8.200000000e-03	1.896778652e-01	-3.661482515e-04	1.356767724e-11
-8.300000000e-03	1.896778661e-01	-3.642198301e-04	8.531135815e-12
-8.400000000e-03	1.896778669e-01	-3.622914086e-04	2.458189073e-11
-8.500000000e-03	1.896778677e-01	-3.603629872e-04	1.636349804e-11
-8.600000000e-03	1.896778684e-01	-3.584345657e-04	7.551360695e-12
-8.700000000e-03	1.896778690e-01	-3.565061443e-04	8.158291447e-12
-8.800000000e-03	1.896778696e-01	-3.545777229e-04	1.809399896e-11
-8.900000000e-03	1.896778701e-01	-3.526493015e-04	1.303831965e-11
-9.000000000e-03	1.896778706e-01	-3.507208802e-04	1.159757717e-11
-9.100000000e-03	1.896778710e-01	-3.487924589e-04	1.159962403e-11
-9.200000000e-03	1.896778713e-01	-3.468640376e-04	1.207985035e-11
-9.300000000e-03	1.896778716e-01	-3.449356163e-04	1.757885879e-11
-9.400000000e-03	1.896778719e-01	-3.430071951e-04	6.781472221e-12
-9.500000000e-03	1.896778720e-01	-3.410787739e-04	6.142986306e-12
-9.600000000e-03	1.896778721e-01	-3.391503528e-04	9.419012688e-12
-9.700000000e-03	1.896778722e-01	-3.372219317e-04	4.250786849e-11
-9.800000000e-03	1.896778722e-01	-3.352935107e-04	1.036834280e-11
-9.900000000e-03	1.896778721e-01	-3.333650897e-04	9.110769942e-12
-1.000000000e-02	1.896778720e-01	-3.314366688e-04	2.312511559e-11
-1.010000000e-02	1.896778718e-01	-3.295082479e-04	4.858767804e-11
-1.020000000e-02	1.896778716e-01	-3.275798271e-04	1.859930249e-11
-1.030000000e-02	1.896778713e-01	-3.256514064e-04	1.456243038e-11
-1.040000000e-02	1.896778709e-01	-3.237229857e-04	1.311636962e-11
-1.050000000e-02	1.896778705e-01	-3.217945651e-04	3.149864062e-11
-1.060000000e-02	1.896778701e-01	-3.198661446e-04	1.284837592e-11
-1.070000000e-02	1.896778695e-01	-3.179377241e-04	8.311954919e-12
-1.080000000e-02	1.896778689e-01	-3.160093037e-04	1.277672010e-11
-1.090000000e-02	1.896778683e-01	-3.140808834e-04	7.205072979e-12
-1.100000000e-02	1.896778676e-01	-3.121524632e-04	4.221223538e-11
-1.110000000e-02	1.896778668e-01	-3.102240431e-04	8.851118687e-12
-1.120000000e-02	1.896778660e-01	-3.082956231e-04	9.506615227e-12
-1.130000000e-02	1.896778651e-01	-3.063672032e-04	3.025611912e-11
-1.140000000e-02	1.896778641e-01	-3.044387833e-04	1.410145412e-11
-1.150000000e-02	1.896778631e-01	-3.025103636e-04	2.956507368e-11
-1.160000000e-02	1.896778621e-01	-3.005819440e-04	1.000430614e-11
-1.170000000e-02	1.896778610e-01	-2.986535245e-04	8.911285643e-12
-1.180000000e-02	1.896778598e-01	-2.967251051e-04	1.572651719e-11
-1.190000000e-02	1.896778585e-01	-2.947966858e-04	7.742362342e-12
-1.200000000e-02	1.896778573e-01	-2.928682666e-04	2.289268835e-11
-1.210000000e-02	1.896778559e-01	-2.909398475e-04	1.006442719e-11
-1.220000000e-02	1.896778545e-01	-2.890114286e-04	3.228285311e-11
-1.230000000e-02	1.896778530e-01	-2.870830098e-04	8.250960777e-12
-1.240000000e-02	1.896778515e-01	-2.851545911e-04	1.017830447e-11
-1.250000000e-02	1.896778499e-01	-2.832261725e-04	2.889977485e-11
-1.260000000e-02	1.896778482e-01	-2.812977541e-04	1.333814152e-11
-1.270000000e-02	1.896778465e-01	-2.793693358e-04	4.077780157e-11
-1.280000000e-02	1.896778448e-01	-2.774409176e-04	8.093428904e-11
-1.290000000e-02	1.896778429e-01	-2.755124996e-04	1.913215760e-11
-1.300000000e-02	1.896778411e-01	-2.735840818e-04	1.397916697e-11
-1.310000000e-02	1.896778391e-01	-2.716556641e-04	8.724469327e-12
-1.320000000e-02	1.896778371e-01	-2.697272465e-04	1.987435628e-11
-1.330000000e-02	1.896778351e-01	-2.677988291e-04	9.779151055e-12
-1.340000000e-02	1.896778329e-01	-2.658704118e-04	1.385910705e-11
-1.350000000e-02	1.896778308e-01	-2.639419947e-04	6.743610517e-12
-1.360000000e-02	1.896778285e-01	-2.620135778e-04	1.603771717e-11
-1.370000000e-02	1.896778262e-01	-2.600851610e-04	1.284093695e-11
-1.380000000e-02	1.896778239e-01	-2.581567444e-04	2.005351396e-11
-1.390000000e-02	1.896778215e-01	-2.562283280e-04	1.448156705e-11
-1.400000000e-02	1.896778190e-01	-2.542999118e-04	1.235482437e-11
-1.410000000e-02	1.896778165e-01	-2.523714957e-04	1.428023302e-11
-1.420000000e-02	1.896778139e-01	-2.504430798e-04	1.104689665e-11
-1.430000000e-02	1.896778112e-01	-2.485146641e-04	1.118492988e-11
-1.440000000e-02	1.896778085e-01	-2.465862486e-04	8.004655374e-12
-1.450000000e-02	1.896778057e-01	-2.446578333e-04	6.176507452e-12
-1.460000000e-02	1.896778029e-01	-2.427294181e-04	1.968988121e-11
-1.470000000e-02	1.896778000e-01	-2.408010032e-04	1.815397295e-11
-1.480000000e-02	1.896777971e-01	-2.388725885e-04	1.085027308e-11
-1.490000000e-02	1.896777941e-01	-2.369441739e-04	1.103422372e-11
-1.500000000e-02	1.896777910e-01	-2.350157596e-04	6.008886626e-11
-1.510000000e-02	1.896777879e-01	-2.330873455e-04	7.057570826e-12
-1.520000000e-02	1.896777847e-01	-2.311589316e-04	2.486383393e-11
-1.530000000e-02	1.896777815e-01	-2.292305179e-04	3.449632578e-11
-1.540000000e-02	1.896777782e-01	-2.273021044e-04	1.889543370e-11
-1.550000000e-02	1.896777749e-01	-2.253736911e-04	2.052968572e-11
-1.560000000e-02	1.896777714e-01	-2.234452781e-04	2.545425918e-11
-1.570000000e-02	1.896777680e-01	-2.215168653e-04	1.849889705e-11
-1.580000000e-02	1.896777644e-01	-2.195884527e-04	1.266353427e-11
-1.590000000e-02	1.896777609e-01	-2.176600403e-04	1.363250043e-11
-1.600000000e-02	1.896777572e-01	-2.157316282e-04	2.695773655e-11
-1.610000000e-02	1.896777535e-01	-2.138032163e-04	1.992830782e-11
-1.620000000e-02	1.896777497e-01	-2.118748047e-04	5.975795757e-12
-1.630000000e-02	1.896777459e-01	-2.099463933e-04	4.988183170e-11
-1.640000000e-02	1.896777420e-01	-2.080179822e-04	1.804092199e-11
-1.650000000e-02	1.896777381e-01	-2.060895713e-04	7.008278669e-12
-1.660000000e-02	1.896777341e-01	-2.041611606e-04	2.165129598e-11
-1.670000000e-02	1.896777300e-01	-2.022327502e-04	3.324078279e-11
-1.680000000e-02	1.896777259e-01	-2.003043401e-04	1.461245767e-11
-1.690000000e-02	1.896777217e-01	-1.983759302e-04	1.571093862e-11
-1.700000000e-02	1.896777175e-01	-1.964475206e-04	1.060062828e-11
-1.710000000e-02	1.896777132e-01	-1.945191113e-04	7.193070349e-12
-1.720000000e-02	1.896777089e-01	-1.925907022e-04	1.210960769e-11
-1.730000000e-02	1.896777045e-01	-1.906622934e-04	9.488127004e-12
-1.740000000e-02	1.896777000e-01	-1.887338849e-04	8.909523409e-12
-1.750000000e-02	1.896776955e-01	-1.868054767e-04	8.450240936e-12
-1.760000000e-02	1.896776909e-01	-1.848770687e-04	2.797913553e-11
-1.770000000e-02	1.896776862e-01	-1.829486610e-04	1.520026714e-11
-1.780000000e-02	1.896776815e-01	-1.810202537e-04	8.871803527e-12
-1.790000000e-02	1.896776768e-01	-1.790918466e-04	9.539809083e-12
-1.800000000e-02	1.896776719e-01	-1.771634398e-04	1.026317212e-11
-1.810000000e-02	1.896776670e-01	-1.752350333e-04	2.058917313e-11
-1.820000000e-02	1.896776621e-01	-1.733066271e-04	2.041340467e-11
-1.830000000e-02	1.896776571e-01	-1.713782212e-04	1.604065483e-11
-1.840000000e-02	1.896776521e-01	-1.694498156e-04	5.729864970e-12
-1.850000000e-02	1.896776469e-01	-1.675214103e-04	1.062807728e-11
-1.860000000e-02	1.896776418e-01	-1.655930053e-04	1.604407402e-11
-1.870000000e-02	1.896776365e-01	-1.636646007e-04	1.221086227e-11
-1.880000000e-02	1.896776312e-01	-1.617361964e-04	9.476661271e-11
-1.890000000e-02	1.896776259e-01	-1.598077923e-04	1.750122204e-11
-1.900000000e-02	1.896776205e-01	-1.578793887e-04	1.103307845e-11
-1.910000000e-02	1.896776150e-01	-1.559509853e-04	1.230367829e-11
-1.920000000e-02	1.896776095e-01	-1.540225823e-04	1.664350911e-11
-1.930000000e-02	1.896776039e-01	-1.520941796e-04	4.568085303e-11
-1.940000000e-02	1.896775982e-01	-1.501657772e-04	2.047259188e-11
-1.950000000e-02	1.896775925e-01	-1.482373752e-04	8.220847587e-12
-1.960000000e-02	1.896775868e-01	-1.463089735e-04	1.268971500e-11
-1.970000000e-02	1.896775810e-01	-1.443805722e-04	7.089438771e-12
-1.980000000e-02	1.896775751e-01	-1.424521712e-04	1.279523833e-11
-1.990000000e-02	1.896775691e-01	-1.405237706e-04	3.942742737e-11
-2.000000000e-02	1.896775631e-01	-1.385953703e-04	1.031478202e-11
-2.010000000e-02	1.896775571e-01	-1.366669703e-04	3.205655254e-11
-2.020000000e-02	1.896775510e-01	-1.347385708e-04	1.969062712e-11
-2.030000000e-02	1.896775448e-01	-1.328101716e-04	8.622603481e-12
-2.040000000e-02	1.896775386e-01	-1.308817727e-04	1.879073162e-11
-2.050000000e-02	1.896775323e-01	-1.289533743e-04	1.654230610e-11
-2.060000000e-02	1.896775259e-01	-1.270249762e-04	1.716833568e-11
-2.070000000e-02	1.896775195e-01	-1.250965785e-04	9.616355476e-12
-2.080000000e-02	1.896775130e-01	-1.231681811e-04	1.700573885e-11
-2.090000000e-02	1.896775065e-01	-1.212397842e-04	1.816596611e-11
-2.100000000e-02	1.896774999e-01	-1.193113876e-04	1.520997058e-11
-2.110000000e-02	1.896774933e-01	-1.173829914e-04	1.326544071e-11
-2.120000000e-02	1.896774866e-01	-1.154545956e-04	1.295630183e-11
-2.130000000e-02	1.896774798e-01	-1.135262002e-04	7.686766246e-12
-2.140000000e-02	1.896774730e-01	-1.115978052e-04	8.784926943e-12
-2.150000000e-02	1.896774661e-01	-1.096694106e-04	1.617951194e-11
-2.160000000e-02	1.896774592e-01	-1.077410164e-04	2.883004123e-11
-2.170000000e-02	1.896774522e-01	-1.058126226e-04	1.204825912e-11
-2.180000000e-02	1.896774451e-01	-1.038842292e-04	7.496250881e-12
-2.190000000e-02	1.896774380e-01	-1.019558362e-04	3.764073805e-11
-2.200000000e-02	1.896774309e-01	-1.000274436e-04	9.923785075e-12
-2.210000000e-02	1.896774236e-01	-9.809905143e-05	1.079549266e-11
-2.220000000e-02	1.896774163e-01	-9.617065970e-05	8.617421226e-12
-2.230000000e-02	1.896774090e-01	-9.424226838e-05	1.172935776e-11
-2.240000000e-02	1.896774016e-01	-9.231387749e-05	6.983379679e-12
-2.250000000e-02	1.896773941e-01	-9.038548703e-05	2.716402623e-11
-2.260000000e-02	1.896773866e-01	-8.845709700e-05	1.851426908e-11
-2.270000000e-02	1.896773790e-01	-8.652870741e-05	8.250082156e-12
-2.280000000e-02	1.896773714e-01	-8.460031825e-05	1.165136683e-11
-2.290000000e-02	1.896773637e-01	-8.267192953e-05	2.278789666e-11
-2.300000000e-02	1.896773559e-01	-8.074354126e-05	1.311864747e-11
-2.310000000e-02	1.896773481e-01	-7.881515344e-05	1.415667748e-11
-2.320000000e-02	1.896773402e-01	-7.688676606e-05	2.298759327e-11
-2.330000000e-02	1.896773323e-01	-7.495837913e-05	7.777833775e-12
-2.340000000e-02	1.896773243e-01	-7.302999266e-05	1.476236542e-11
-2.350000000e-02	1.896773162e-01	-7.110160666e-05	1.795836093e-10
-2.360000000e-02	1.896773081e-01	-6.917322110e-05	4.095481083e-11
-2.370000000e-02	1.896772999e-01	-6.724483602e-05	1.332570791e-11
-2.380000000e-02	1.896772917e-01	-6.531645140e-05	1.697133172e-11
-2.390000000e-02	1.896772834e-01	-6.338806725e-05	9.666443167e-12
-2.400000000e-02	1.896772751e-01	-6.145968358e-05	1.290325762e-11
-2.410000000e-02	1.896772666e-01	-5.953130038e-05	9.827165910e-12
-2.420000000e-02	1.896772582e-01	-5.760291766e-05	1.870034613e-11
-2.430000000e-02	1.896772497e-01	-5.567453543e-05	4.055236881e-11
-2.440000000e-02	1.896772411e-01	-5.374615368e-05	1.275349708e-11
-2.450000000e-02	1.896772324e-01	-5.181777241e-05	1.229091701e-11
-2.460000000e-02	1.896772237e-01	-4.988939164e-05	1.005121358e-11
-2.470000000e-02	1.896772150e-01	-4.796101137e-05	8.927884878e-12
-2.480000000e-02	1.896772062e-01	-4.603263159e-05	1.429980833e-11
-2.490000000e-02	1.896771973e-01	-4.410425231e-05	1.831845441e-11
-2.500000000e-02	1.896771883e-01	-4.217587353e-05	1.332230829e-11
-2.510000000e-02	1.896771793e-01	-4.024749526e-05	9.605336755e-12
-2.520000000e-02	1.896771703e-01	-3.831911749e-05	6.955745887e-11
-2.530000000e-02	1.896771612e-01	-3.639074025e-05	1.169223262e-11
-2.540000000e-02	1.896771520e-01	-3.446236351e-05	1.479274772e-11
-2.550000000e-02	1.896771428e-01	-3.253398730e-05	1.737378610e-11
-2.560000000e-02	1.896771335e-01	-3.060561161e-05	2.366637253e-11
-2.570000000e-02	1.896771241e-01	-2.867723643e-05	2.131977436e-11
-2.580000000e-02	1.896771147e-01	-2.674886179e-05	1.374491384e-11
-2.590000000e-02	1.896771053e-01	-2.482048768e-05	1.208906672e-11
-2.600000000e-02	1.896770957e-01	-2.289211410e-05	2.209644277e-11
-2.610000000e-02	1.896770862e-01	-2.096374105e-05	1.052626587e-11
-2.620000000e-02	1.896770765e-01	-1.903536854e-05	1.518568618e-11
-2.630000000e-02	1.896770668e-01	-1.710699658e-05	1.153772976e-11
-2.640000000e-02	1.896770571e-01	-1.517862516e-05	6.444721299e-12
-2.650000000e-02	1.896770473e-01	-1.325025429e-05	9.073906508e-12
-2.660000000e-02	1.896770374e-01	-1.132188397e-05	5.100555344e-11
-2.670000000e-02	1.896770274e-01	-9.393514201e-06	1.053513503e-11
-2.680000000e-02	1.896770174e-01	-7.465144992e-06	4.501638084e-12
-2.690000000e-02	1.896770074e-01	-5.536776343e-06	1.213399004e-11
-2.700000000e-02	1.896769973e-01	-3.608408256e-06	3.108882012e-11
-2.710000000e-02	1.896769871e-01	-1.680040734e-06	1.630311698e-11
-2.720000000e-02	1.896769769e-01	2.483262203e-07	8.031314514e-12
-2.730000000e-02	1.896769666e-01	2.176692601e-06	5.977559547e-12
-2.740000000e-02	1.896769563e-01	4.105058408e-06	1.900831422e-11
-2.750000000e-02	1.896769458e-01	6.033423635e-06	1.411405506e-11
-2.760000000e-02	1.896769354e-01	7.961788284e-06	9.980010581e-12
-2.770000000e-02	1.896769249e-01	9.890152350e-06	3.167254983e-11
-2.780000000e-02	1.896769143e-01	1.181851583e-05	8.835890872e-12
-2.790000000e-02	1.896769036e-01	1.374687871e-05	9.428133118e-12
-2.800000000e-02	1.896768929e-01	1.567524101e-05	2.424379517e-11
-2.810000000e-02	1.896768822e-01	1.760360271e-05	7.152693964e-11
-2.820000000e-02	1.896768714e-01	1.953196381e-05	2.810072513e-11
-2.830000000e-02	1.896768605e-01	2.146032431e-05	1.430044498e-11
-2.840000000e-02	1.896768496e-01	2.338868421e-05	1.011379410e-10
-2.850000000e-02	1.896768386e-01	2.531704349e-05	1.532876876e-11
-2.860000000e-02	1.896768275e-01	2.724540217e-05	9.902760019e-12
-2.870000000e-02	1.896768164e-01	2.917376023e-05	9.578691816e-12
-2.880000000e-02	1.896768052e-01	3.110211768e-05	1.554541709e-11
-2.890000000e-02	1.896767940e-01	3.303047451e-05	8.036555910e-12
-2.900000000e-02	1.896767827e-01	3.495883071e-05	6.370432518e-12
-2.910000000e-02	1.896767714e-01	3.688718629e-05	1.136916753e-11
-2.920000000e-02	1.896767600e-01	3.881554124e-05	1.125465820e-11
-2.930000000e-02	1.896767485e-01	4.074389556e-05	8.717715271e-12
-2.940000000e-02	1.896767370e-01	4.267224925e-05	2.416304191e-11
-2.950000000e-02	1.896767254e-01	4.460060230e-05	1.858222971e-11
-2.960000000e-02	1.896767138e-01	4.652895470e-05	4.571423732e-11
-2.970000000e-02	1.896767021e-01	4.845730647e-05	5.147237086e-12
-2.980000000e-02	1.896766903e-01	5.038565759e-05	1.093549760e-11
-2.990000000e-02	1.896766785e-01	5.231400806e-05	1.111313418e-11
-3.000000000e-02	1.896766666e-01	5.424235788e-05	6.429818456e-12
