# Im(epsi1)     Re(omega/c)      Im(omega/c)      Eq(det).Opt det CON kz, R=0.5 \mum, mu_c=0.3, Re(epsi1)=3.90solve_det_conkz_vs_kz.py
0.000000000e+00	1.896644659e-01	-5.242576686e-04	1.335548492e-11
-1.000000000e-04	1.896644716e-01	-5.223293212e-04	1.408268145e-11
-2.000000000e-04	1.896644772e-01	-5.204009736e-04	8.171665959e-12
-3.000000000e-04	1.896644828e-01	-5.184726258e-04	1.264283946e-11
-4.000000000e-04	1.896644883e-01	-5.165442777e-04	5.091413081e-12
-5.000000000e-04	1.896644938e-01	-5.146159294e-04	6.948418290e-12
-6.000000000e-04	1.896644992e-01	-5.126875809e-04	1.584054093e-11
-7.000000000e-04	1.896645046e-01	-5.107592321e-04	1.802346021e-11
-8.000000000e-04	1.896645098e-01	-5.088308832e-04	1.255787740e-11
-9.000000000e-04	1.896645151e-01	-5.069025340e-04	2.523279722e-11
-1.000000000e-03	1.896645202e-01	-5.049741846e-04	5.647473253e-11
-1.100000000e-03	1.896645253e-01	-5.030458350e-04	1.196951453e-11
-1.200000000e-03	1.896645304e-01	-5.011174852e-04	6.323858027e-12
-1.300000000e-03	1.896645354e-01	-4.991891352e-04	7.642546287e-12
-1.400000000e-03	1.896645403e-01	-4.972607850e-04	2.363935062e-11
-1.500000000e-03	1.896645452e-01	-4.953324345e-04	8.793028389e-12
-1.600000000e-03	1.896645500e-01	-4.934040839e-04	2.677852406e-11
-1.700000000e-03	1.896645548e-01	-4.914757331e-04	1.204065707e-11
-1.800000000e-03	1.896645595e-01	-4.895473822e-04	1.219521115e-11
-1.900000000e-03	1.896645641e-01	-4.876190310e-04	9.378576816e-12
-2.000000000e-03	1.896645687e-01	-4.856906796e-04	1.081856155e-11
-2.100000000e-03	1.896645732e-01	-4.837623281e-04	2.963473440e-11
-2.200000000e-03	1.896645777e-01	-4.818339764e-04	5.602895047e-12
-2.300000000e-03	1.896645821e-01	-4.799056245e-04	2.370694688e-11
-2.400000000e-03	1.896645864e-01	-4.779772724e-04	6.987652703e-11
-2.500000000e-03	1.896645907e-01	-4.760489202e-04	1.125279556e-11
-2.600000000e-03	1.896645949e-01	-4.741205678e-04	4.990234344e-12
-2.700000000e-03	1.896645991e-01	-4.721922153e-04	8.399086491e-12
-2.800000000e-03	1.896646032e-01	-4.702638626e-04	1.371312595e-11
-2.900000000e-03	1.896646073e-01	-4.683355097e-04	2.767041833e-11
-3.000000000e-03	1.896646113e-01	-4.664071567e-04	4.050684668e-11
-3.100000000e-03	1.896646152e-01	-4.644788035e-04	1.586543373e-11
-3.200000000e-03	1.896646191e-01	-4.625504502e-04	4.560045207e-12
-3.300000000e-03	1.896646229e-01	-4.606220967e-04	1.223716886e-11
-3.400000000e-03	1.896646266e-01	-4.586937431e-04	1.003959090e-11
-3.500000000e-03	1.896646303e-01	-4.567653894e-04	1.701799159e-11
-3.600000000e-03	1.896646340e-01	-4.548370355e-04	1.097625462e-10
-3.700000000e-03	1.896646376e-01	-4.529086815e-04	1.640576339e-11
-3.800000000e-03	1.896646411e-01	-4.509803274e-04	1.552303300e-11
-3.900000000e-03	1.896646445e-01	-4.490519731e-04	6.326494177e-12
-4.000000000e-03	1.896646480e-01	-4.471236187e-04	1.059875150e-11
-4.100000000e-03	1.896646513e-01	-4.451952642e-04	1.584639476e-11
-4.200000000e-03	1.896646546e-01	-4.432669096e-04	3.143150148e-11
-4.300000000e-03	1.896646578e-01	-4.413385549e-04	3.011856750e-11
-4.400000000e-03	1.896646610e-01	-4.394102000e-04	1.691359583e-11
-4.500000000e-03	1.896646641e-01	-4.374818451e-04	8.851222191e-12
-4.600000000e-03	1.896646671e-01	-4.355534900e-04	1.274804303e-11
-4.700000000e-03	1.896646701e-01	-4.336251348e-04	1.071518297e-11
-4.800000000e-03	1.896646731e-01	-4.316967796e-04	6.754421441e-11
-4.900000000e-03	1.896646760e-01	-4.297684242e-04	2.560436743e-11
-5.000000000e-03	1.896646788e-01	-4.278400688e-04	1.827456617e-11
-5.100000000e-03	1.896646815e-01	-4.259117132e-04	3.649283959e-11
-5.200000000e-03	1.896646842e-01	-4.239833576e-04	3.928700809e-11
-5.300000000e-03	1.896646869e-01	-4.220550019e-04	1.247143414e-11
-5.400000000e-03	1.896646894e-01	-4.201266461e-04	1.796383587e-11
-5.500000000e-03	1.896646920e-01	-4.181982902e-04	1.094734720e-11
-5.600000000e-03	1.896646944e-01	-4.162699343e-04	1.294685762e-11
-5.700000000e-03	1.896646968e-01	-4.143415783e-04	1.071500996e-11
-5.800000000e-03	1.896646992e-01	-4.124132222e-04	1.026024930e-11
-5.900000000e-03	1.896647015e-01	-4.104848660e-04	1.053599041e-11
-6.000000000e-03	1.896647037e-01	-4.085565098e-04	3.439587889e-11
-6.100000000e-03	1.896647059e-01	-4.066281535e-04	2.327644676e-11
-6.200000000e-03	1.896647080e-01	-4.046997972e-04	9.661158771e-12
-6.300000000e-03	1.896647100e-01	-4.027714408e-04	6.822276975e-12
-6.400000000e-03	1.896647120e-01	-4.008430843e-04	9.500589092e-12
-6.500000000e-03	1.896647140e-01	-3.989147279e-04	2.333002760e-11
-6.600000000e-03	1.896647159e-01	-3.969863713e-04	2.578999195e-11
-6.700000000e-03	1.896647177e-01	-3.950580147e-04	9.906597082e-12
-6.800000000e-03	1.896647194e-01	-3.931296581e-04	1.209540758e-11
-6.900000000e-03	1.896647211e-01	-3.912013015e-04	8.634583482e-12
-7.000000000e-03	1.896647228e-01	-3.892729448e-04	4.550435540e-11
-7.100000000e-03	1.896647244e-01	-3.873445880e-04	2.419612248e-11
-7.200000000e-03	1.896647259e-01	-3.854162313e-04	9.342411436e-12
-7.300000000e-03	1.896647273e-01	-3.834878745e-04	8.622486745e-12
-7.400000000e-03	1.896647288e-01	-3.815595177e-04	1.256578990e-11
-7.500000000e-03	1.896647301e-01	-3.796311609e-04	1.025492776e-11
-7.600000000e-03	1.896647314e-01	-3.777028041e-04	1.953780731e-11
-7.700000000e-03	1.896647326e-01	-3.757744472e-04	6.488868978e-12
-7.800000000e-03	1.896647338e-01	-3.738460904e-04	4.541560662e-11
-7.900000000e-03	1.896647349e-01	-3.719177335e-04	1.173780374e-11
-8.000000000e-03	1.896647360e-01	-3.699893767e-04	1.698116224e-11
-8.100000000e-03	1.896647370e-01	-3.680610198e-04	1.944087746e-11
-8.200000000e-03	1.896647379e-01	-3.661326630e-04	7.587996605e-12
-8.300000000e-03	1.896647388e-01	-3.642043061e-04	8.678944124e-12
-8.400000000e-03	1.896647396e-01	-3.622759492e-04	8.415250030e-12
-8.500000000e-03	1.896647403e-01	-3.603475924e-04	1.116634574e-11
-8.600000000e-03	1.896647411e-01	-3.584192356e-04	1.063331546e-11
-8.700000000e-03	1.896647417e-01	-3.564908788e-04	1.715177504e-11
-8.800000000e-03	1.896647423e-01	-3.545625220e-04	2.124413605e-11
-8.900000000e-03	1.896647428e-01	-3.526341652e-04	2.350211088e-11
-9.000000000e-03	1.896647433e-01	-3.507058085e-04	5.209146973e-11
-9.100000000e-03	1.896647437e-01	-3.487774518e-04	1.373625758e-11
-9.200000000e-03	1.896647440e-01	-3.468490951e-04	1.058858748e-11
-9.300000000e-03	1.896647443e-01	-3.449207385e-04	1.751533187e-11
-9.400000000e-03	1.896647445e-01	-3.429923819e-04	9.738103059e-12
-9.500000000e-03	1.896647447e-01	-3.410640253e-04	1.316756490e-11
-9.600000000e-03	1.896647448e-01	-3.391356688e-04	8.933611648e-12
-9.700000000e-03	1.896647449e-01	-3.372073123e-04	1.080236420e-11
-9.800000000e-03	1.896647449e-01	-3.352789559e-04	9.270951888e-12
-9.900000000e-03	1.896647448e-01	-3.333505995e-04	1.311173455e-11
-1.000000000e-02	1.896647447e-01	-3.314222432e-04	1.184206298e-11
-1.010000000e-02	1.896647445e-01	-3.294938870e-04	2.694142823e-11
-1.020000000e-02	1.896647443e-01	-3.275655308e-04	1.205055927e-11
-1.030000000e-02	1.896647440e-01	-3.256371747e-04	1.944322506e-11
-1.040000000e-02	1.896647436e-01	-3.237088186e-04	3.228693016e-11
-1.050000000e-02	1.896647432e-01	-3.217804626e-04	1.458286213e-11
-1.060000000e-02	1.896647427e-01	-3.198521067e-04	1.135771003e-11
-1.070000000e-02	1.896647422e-01	-3.179237509e-04	1.457303672e-11
-1.080000000e-02	1.896647416e-01	-3.159953951e-04	1.261168650e-11
-1.090000000e-02	1.896647410e-01	-3.140670394e-04	1.675279372e-11
-1.100000000e-02	1.896647403e-01	-3.121386838e-04	2.078510019e-11
-1.110000000e-02	1.896647395e-01	-3.102103283e-04	1.275943255e-11
-1.120000000e-02	1.896647387e-01	-3.082819729e-04	1.062061541e-11
-1.130000000e-02	1.896647378e-01	-3.063536176e-04	2.375430540e-11
-1.140000000e-02	1.896647368e-01	-3.044252624e-04	9.694067592e-12
-1.150000000e-02	1.896647358e-01	-3.024969073e-04	1.056950835e-11
-1.160000000e-02	1.896647348e-01	-3.005685523e-04	3.948403786e-11
-1.170000000e-02	1.896647337e-01	-2.986401974e-04	9.239180316e-12
-1.180000000e-02	1.896647325e-01	-2.967118426e-04	1.526102210e-11
-1.190000000e-02	1.896647312e-01	-2.947834879e-04	2.663360169e-11
-1.200000000e-02	1.896647299e-01	-2.928551333e-04	2.786754544e-11
-1.210000000e-02	1.896647286e-01	-2.909267789e-04	2.518560931e-11
-1.220000000e-02	1.896647272e-01	-2.889984245e-04	3.972261350e-11
-1.230000000e-02	1.896647257e-01	-2.870700703e-04	1.316611251e-11
-1.240000000e-02	1.896647242e-01	-2.851417162e-04	1.845941638e-11
-1.250000000e-02	1.896647226e-01	-2.832133623e-04	8.483886477e-12
-1.260000000e-02	1.896647209e-01	-2.812850085e-04	2.195653055e-11
-1.270000000e-02	1.896647192e-01	-2.793566548e-04	1.468978093e-11
-1.280000000e-02	1.896647175e-01	-2.774283013e-04	1.665636035e-11
-1.290000000e-02	1.896647156e-01	-2.754999479e-04	7.806569991e-12
-1.300000000e-02	1.896647137e-01	-2.735715946e-04	5.742223205e-12
-1.310000000e-02	1.896647118e-01	-2.716432415e-04	6.204091483e-12
-1.320000000e-02	1.896647098e-01	-2.697148886e-04	8.946701247e-12
-1.330000000e-02	1.896647077e-01	-2.677865358e-04	9.900142282e-12
-1.340000000e-02	1.896647056e-01	-2.658581831e-04	2.955628268e-11
-1.350000000e-02	1.896647034e-01	-2.639298307e-04	2.798206735e-11
-1.360000000e-02	1.896647012e-01	-2.620014783e-04	1.361015706e-11
-1.370000000e-02	1.896646989e-01	-2.600731262e-04	1.586370949e-11
-1.380000000e-02	1.896646966e-01	-2.581447742e-04	1.007660323e-11
-1.390000000e-02	1.896646941e-01	-2.562164224e-04	1.712472253e-11
-1.400000000e-02	1.896646917e-01	-2.542880708e-04	1.041723989e-11
-1.410000000e-02	1.896646891e-01	-2.523597193e-04	1.050303990e-11
-1.420000000e-02	1.896646866e-01	-2.504313680e-04	2.005449281e-11
-1.430000000e-02	1.896646839e-01	-2.485030170e-04	1.157697288e-11
-1.440000000e-02	1.896646812e-01	-2.465746661e-04	1.079583266e-11
-1.450000000e-02	1.896646784e-01	-2.446463153e-04	4.995554567e-12
-1.460000000e-02	1.896646756e-01	-2.427179648e-04	1.550851408e-11
-1.470000000e-02	1.896646727e-01	-2.407896145e-04	7.428513150e-12
-1.480000000e-02	1.896646698e-01	-2.388612644e-04	3.669363877e-11
-1.490000000e-02	1.896646668e-01	-2.369329145e-04	2.412149294e-11
-1.500000000e-02	1.896646637e-01	-2.350045647e-04	1.732873637e-11
-1.510000000e-02	1.896646606e-01	-2.330762152e-04	1.619357157e-11
-1.520000000e-02	1.896646574e-01	-2.311478659e-04	1.065165051e-11
-1.530000000e-02	1.896646542e-01	-2.292195168e-04	2.440531073e-11
-1.540000000e-02	1.896646509e-01	-2.272911680e-04	2.545753831e-11
-1.550000000e-02	1.896646475e-01	-2.253628193e-04	7.690987898e-12
-1.560000000e-02	1.896646441e-01	-2.234344709e-04	9.515104535e-12
-1.570000000e-02	1.896646407e-01	-2.215061227e-04	1.144608449e-11
-1.580000000e-02	1.896646371e-01	-2.195777747e-04	2.047093100e-11
-1.590000000e-02	1.896646335e-01	-2.176494270e-04	3.439669173e-11
-1.600000000e-02	1.896646299e-01	-2.157210795e-04	3.513961738e-11
-1.610000000e-02	1.896646262e-01	-2.137927322e-04	2.220218745e-11
-1.620000000e-02	1.896646224e-01	-2.118643852e-04	1.524166800e-11
-1.630000000e-02	1.896646186e-01	-2.099360384e-04	7.011137309e-11
-1.640000000e-02	1.896646147e-01	-2.080076919e-04	1.936828401e-11
-1.650000000e-02	1.896646108e-01	-2.060793456e-04	1.528426034e-11
-1.660000000e-02	1.896646068e-01	-2.041509996e-04	9.162240921e-12
-1.670000000e-02	1.896646027e-01	-2.022226538e-04	9.565434038e-12
-1.680000000e-02	1.896645986e-01	-2.002943083e-04	6.334618979e-12
-1.690000000e-02	1.896645944e-01	-1.983659630e-04	3.100962121e-11
-1.700000000e-02	1.896645902e-01	-1.964376180e-04	7.661079496e-12
-1.710000000e-02	1.896645859e-01	-1.945092733e-04	1.393418239e-11
-1.720000000e-02	1.896645815e-01	-1.925809288e-04	9.310594348e-12
-1.730000000e-02	1.896645771e-01	-1.906525847e-04	6.491856562e-11
-1.740000000e-02	1.896645727e-01	-1.887242408e-04	4.305728352e-11
-1.750000000e-02	1.896645681e-01	-1.867958971e-04	1.107861648e-11
-1.760000000e-02	1.896645636e-01	-1.848675538e-04	8.208858508e-12
-1.770000000e-02	1.896645589e-01	-1.829392107e-04	8.852842368e-12
-1.780000000e-02	1.896645542e-01	-1.810108680e-04	1.145621318e-11
-1.790000000e-02	1.896645494e-01	-1.790825255e-04	4.886836898e-11
-1.800000000e-02	1.896645446e-01	-1.771541833e-04	1.951218934e-11
-1.810000000e-02	1.896645397e-01	-1.752258414e-04	1.088470565e-11
-1.820000000e-02	1.896645348e-01	-1.732974998e-04	1.647478365e-11
-1.830000000e-02	1.896645298e-01	-1.713691586e-04	1.336767689e-11
-1.840000000e-02	1.896645247e-01	-1.694408176e-04	2.887119630e-11
-1.850000000e-02	1.896645196e-01	-1.675124769e-04	1.141995577e-11
-1.860000000e-02	1.896645144e-01	-1.655841366e-04	1.890774258e-11
-1.870000000e-02	1.896645092e-01	-1.636557965e-04	2.938725413e-11
-1.880000000e-02	1.896645039e-01	-1.617274568e-04	1.186409950e-11
-1.890000000e-02	1.896644986e-01	-1.597991174e-04	2.486171697e-11
-1.900000000e-02	1.896644932e-01	-1.578707783e-04	8.456641905e-12
-1.910000000e-02	1.896644877e-01	-1.559424396e-04	4.469968146e-12
-1.920000000e-02	1.896644822e-01	-1.540141012e-04	1.584668256e-11
-1.930000000e-02	1.896644766e-01	-1.520857631e-04	3.090764039e-11
-1.940000000e-02	1.896644709e-01	-1.501574253e-04	2.020350335e-11
-1.950000000e-02	1.896644652e-01	-1.482290879e-04	2.166831248e-11
-1.960000000e-02	1.896644595e-01	-1.463007509e-04	1.143779067e-11
-1.970000000e-02	1.896644536e-01	-1.443724142e-04	1.058474911e-11
-1.980000000e-02	1.896644478e-01	-1.424440778e-04	2.083829818e-11
-1.990000000e-02	1.896644418e-01	-1.405157418e-04	1.046180708e-11
-2.000000000e-02	1.896644358e-01	-1.385874061e-04	1.524689499e-11
-2.010000000e-02	1.896644298e-01	-1.366590708e-04	8.199790431e-12
-2.020000000e-02	1.896644237e-01	-1.347307358e-04	9.293125561e-12
-2.030000000e-02	1.896644175e-01	-1.328024012e-04	2.016959405e-11
-2.040000000e-02	1.896644112e-01	-1.308740670e-04	9.300893298e-12
-2.050000000e-02	1.896644050e-01	-1.289457332e-04	1.013369740e-11
-2.060000000e-02	1.896643986e-01	-1.270173997e-04	9.342393089e-12
-2.070000000e-02	1.896643922e-01	-1.250890666e-04	1.355524802e-11
-2.080000000e-02	1.896643857e-01	-1.231607339e-04	1.858546443e-11
-2.090000000e-02	1.896643792e-01	-1.212324015e-04	1.686719503e-11
-2.100000000e-02	1.896643726e-01	-1.193040696e-04	8.410842221e-12
-2.110000000e-02	1.896643660e-01	-1.173757380e-04	1.113661248e-11
-2.120000000e-02	1.896643593e-01	-1.154474068e-04	1.091273352e-11
-2.130000000e-02	1.896643525e-01	-1.135190760e-04	8.194664438e-12
-2.140000000e-02	1.896643457e-01	-1.115907456e-04	7.980518543e-12
-2.150000000e-02	1.896643388e-01	-1.096624156e-04	1.336835632e-11
-2.160000000e-02	1.896643319e-01	-1.077340860e-04	1.604258060e-11
-2.170000000e-02	1.896643249e-01	-1.058057568e-04	1.715318724e-11
-2.180000000e-02	1.896643178e-01	-1.038774280e-04	2.741777909e-11
-2.190000000e-02	1.896643107e-01	-1.019490997e-04	1.037478180e-11
-2.200000000e-02	1.896643035e-01	-1.000207717e-04	2.891571835e-10
-2.210000000e-02	1.896642963e-01	-9.809244415e-05	2.204880109e-11
-2.220000000e-02	1.896642890e-01	-9.616411703e-05	1.495409173e-11
-2.230000000e-02	1.896642817e-01	-9.423579033e-05	7.176209569e-12
-2.240000000e-02	1.896642743e-01	-9.230746406e-05	1.384407709e-11
-2.250000000e-02	1.896642668e-01	-9.037913821e-05	4.494823477e-12
-2.260000000e-02	1.896642593e-01	-8.845081279e-05	4.772590217e-11
-2.270000000e-02	1.896642517e-01	-8.652248782e-05	7.717379437e-12
-2.280000000e-02	1.896642440e-01	-8.459416327e-05	8.296021258e-12
-2.290000000e-02	1.896642363e-01	-8.266583917e-05	2.942958954e-11
-2.300000000e-02	1.896642286e-01	-8.073751551e-05	8.102577823e-12
-2.310000000e-02	1.896642208e-01	-7.880919230e-05	1.467814486e-11
-2.320000000e-02	1.896642129e-01	-7.688086954e-05	1.961326583e-11
-2.330000000e-02	1.896642049e-01	-7.495254723e-05	1.024665519e-11
-2.340000000e-02	1.896641969e-01	-7.302422538e-05	1.324248199e-11
-2.350000000e-02	1.896641889e-01	-7.109590398e-05	1.273613053e-11
-2.360000000e-02	1.896641808e-01	-6.916758304e-05	1.118787616e-11
-2.370000000e-02	1.896641726e-01	-6.723926257e-05	6.874755530e-12
-2.380000000e-02	1.896641644e-01	-6.531094257e-05	8.539707177e-12
-2.390000000e-02	1.896641561e-01	-6.338262303e-05	4.044943211e-11
-2.400000000e-02	1.896641477e-01	-6.145430398e-05	1.994372252e-11
-2.410000000e-02	1.896641393e-01	-5.952598540e-05	1.026725013e-11
-2.420000000e-02	1.896641309e-01	-5.759766729e-05	5.815258875e-12
-2.430000000e-02	1.896641223e-01	-5.566934967e-05	1.136556467e-11
-2.440000000e-02	1.896641138e-01	-5.374103254e-05	1.773914916e-11
-2.450000000e-02	1.896641051e-01	-5.181271589e-05	1.078132508e-11
-2.460000000e-02	1.896640964e-01	-4.988439973e-05	1.712786355e-11
-2.470000000e-02	1.896640876e-01	-4.795608407e-05	3.163767214e-11
-2.480000000e-02	1.896640788e-01	-4.602776891e-05	1.083117760e-11
-2.490000000e-02	1.896640700e-01	-4.409945424e-05	1.098191770e-11
-2.500000000e-02	1.896640610e-01	-4.217114008e-05	1.033991219e-11
-2.510000000e-02	1.896640520e-01	-4.024282642e-05	1.968336799e-11
-2.520000000e-02	1.896640430e-01	-3.831451328e-05	1.076521993e-11
-2.530000000e-02	1.896640339e-01	-3.638620064e-05	8.645240225e-12
-2.540000000e-02	1.896640247e-01	-3.445788852e-05	8.441674865e-12
-2.550000000e-02	1.896640155e-01	-3.252957692e-05	2.009522902e-11
-2.560000000e-02	1.896640062e-01	-3.060126584e-05	1.206181034e-11
-2.570000000e-02	1.896639968e-01	-2.867295529e-05	1.269255926e-11
-2.580000000e-02	1.896639874e-01	-2.674464526e-05	1.629970042e-11
-2.590000000e-02	1.896639779e-01	-2.481633576e-05	1.478506139e-11
-2.600000000e-02	1.896639684e-01	-2.288802679e-05	1.250655361e-11
-2.610000000e-02	1.896639588e-01	-2.095971836e-05	2.366114257e-11
-2.620000000e-02	1.896639492e-01	-1.903141047e-05	8.610171833e-12
-2.630000000e-02	1.896639395e-01	-1.710310312e-05	1.435365066e-11
-2.640000000e-02	1.896639297e-01	-1.517479632e-05	2.082535701e-11
-2.650000000e-02	1.896639199e-01	-1.324649006e-05	1.065863371e-11
-2.660000000e-02	1.896639101e-01	-1.131818436e-05	5.054596619e-12
-2.670000000e-02	1.896639001e-01	-9.389879206e-06	7.217936638e-12
-2.680000000e-02	1.896638901e-01	-7.461574613e-06	1.409963674e-11
-2.690000000e-02	1.896638801e-01	-5.533270578e-06	7.312726887e-12
-2.700000000e-02	1.896638700e-01	-3.604967106e-06	9.889925651e-12
-2.710000000e-02	1.896638598e-01	-1.676664198e-06	1.610637759e-11
-2.720000000e-02	1.896638496e-01	2.516381402e-07	2.303050936e-11
-2.730000000e-02	1.896638393e-01	2.179939901e-06	2.274171818e-11
-2.740000000e-02	1.896638289e-01	4.108241093e-06	1.893108926e-11
-2.750000000e-02	1.896638185e-01	6.036541715e-06	7.500043195e-11
-2.760000000e-02	1.896638081e-01	7.964841741e-06	9.993344878e-12
-2.770000000e-02	1.896637975e-01	9.893141187e-06	3.002475092e-11
-2.780000000e-02	1.896637870e-01	1.182144005e-05	2.084381357e-11
-2.790000000e-02	1.896637763e-01	1.374973833e-05	3.458162750e-11
-2.800000000e-02	1.896637656e-01	1.567803600e-05	9.883407609e-12
-2.810000000e-02	1.896637549e-01	1.760633309e-05	6.355138581e-12
-2.820000000e-02	1.896637440e-01	1.953462957e-05	8.781856790e-12
-2.830000000e-02	1.896637332e-01	2.146292546e-05	9.034713136e-12
-2.840000000e-02	1.896637222e-01	2.339122074e-05	1.300437162e-11
-2.850000000e-02	1.896637112e-01	2.531951541e-05	1.062899645e-11
-2.860000000e-02	1.896637002e-01	2.724780947e-05	2.342790798e-11
-2.870000000e-02	1.896636891e-01	2.917610292e-05	1.527502234e-11
-2.880000000e-02	1.896636779e-01	3.110439575e-05	1.320190611e-11
-2.890000000e-02	1.896636667e-01	3.303268796e-05	1.463075579e-11
-2.900000000e-02	1.896636554e-01	3.496097955e-05	8.697615729e-12
-2.910000000e-02	1.896636440e-01	3.688927052e-05	6.332484665e-12
-2.920000000e-02	1.896636326e-01	3.881756085e-05	6.300070396e-12
-2.930000000e-02	1.896636212e-01	4.074585055e-05	1.978718641e-11
-2.940000000e-02	1.896636097e-01	4.267413963e-05	1.928800290e-11
-2.950000000e-02	1.896635981e-01	4.460242806e-05	2.034121903e-11
-2.960000000e-02	1.896635864e-01	4.653071585e-05	1.720925486e-11
-2.970000000e-02	1.896635747e-01	4.845900300e-05	1.376892577e-11
-2.980000000e-02	1.896635630e-01	5.038728950e-05	9.548291094e-12
-2.990000000e-02	1.896635512e-01	5.231557536e-05	7.119792370e-12
-3.000000000e-02	1.896635393e-01	5.424386055e-05	2.144389987e-11
