# Im(epsi1)     Re(omega/c)      Im(omega/c)      Eq(det).Opt det CON kz, R=0.5 \mum, mu_c=0.3, Re(epsi1)=3.90solve_det_conkz_vs_kz.py
0.000000000e+00	1.896953971e-01	-5.242938233e-04	4.838096635e-11
-1.000000000e-04	1.896954028e-01	-5.223653234e-04	1.858980053e-11
-2.000000000e-04	1.896954084e-01	-5.204368232e-04	2.236029151e-11
-3.000000000e-04	1.896954140e-01	-5.185083227e-04	1.677883324e-11
-4.000000000e-04	1.896954195e-01	-5.165798220e-04	1.348181323e-11
-5.000000000e-04	1.896954250e-01	-5.146513211e-04	2.261412672e-11
-6.000000000e-04	1.896954304e-01	-5.127228200e-04	1.779168478e-11
-7.000000000e-04	1.896954357e-01	-5.107943187e-04	3.387272924e-11
-8.000000000e-04	1.896954410e-01	-5.088658171e-04	1.445802174e-11
-9.000000000e-04	1.896954462e-01	-5.069373153e-04	1.365310586e-11
-1.000000000e-03	1.896954514e-01	-5.050088133e-04	2.974948786e-11
-1.100000000e-03	1.896954565e-01	-5.030803111e-04	5.330765788e-12
-1.200000000e-03	1.896954616e-01	-5.011518087e-04	7.375140432e-12
-1.300000000e-03	1.896954665e-01	-4.992233061e-04	2.566368390e-11
-1.400000000e-03	1.896954715e-01	-4.972948033e-04	9.353987330e-12
-1.500000000e-03	1.896954763e-01	-4.953663003e-04	9.394716882e-12
-1.600000000e-03	1.896954812e-01	-4.934377971e-04	2.411981675e-11
-1.700000000e-03	1.896954859e-01	-4.915092937e-04	3.274684187e-11
-1.800000000e-03	1.896954906e-01	-4.895807901e-04	2.867930004e-11
-1.900000000e-03	1.896954953e-01	-4.876522863e-04	1.700348429e-11
-2.000000000e-03	1.896954998e-01	-4.857237824e-04	2.749005253e-11
-2.100000000e-03	1.896955044e-01	-4.837952783e-04	1.288712365e-11
-2.200000000e-03	1.896955088e-01	-4.818667739e-04	1.437161632e-11
-2.300000000e-03	1.896955132e-01	-4.799382695e-04	6.227228642e-11
-2.400000000e-03	1.896955176e-01	-4.780097648e-04	7.575450025e-12
-2.500000000e-03	1.896955219e-01	-4.760812600e-04	5.971529714e-12
-2.600000000e-03	1.896955261e-01	-4.741527550e-04	1.368462698e-11
-2.700000000e-03	1.896955303e-01	-4.722242498e-04	9.639709126e-12
-2.800000000e-03	1.896955344e-01	-4.702957445e-04	8.681933015e-12
-2.900000000e-03	1.896955384e-01	-4.683672391e-04	1.716079155e-10
-3.000000000e-03	1.896955424e-01	-4.664387335e-04	1.015976002e-11
-3.100000000e-03	1.896955463e-01	-4.645102277e-04	1.548847324e-11
-3.200000000e-03	1.896955502e-01	-4.625817218e-04	1.614079526e-11
-3.300000000e-03	1.896955540e-01	-4.606532157e-04	1.226914059e-11
-3.400000000e-03	1.896955578e-01	-4.587247095e-04	7.577469025e-12
-3.500000000e-03	1.896955615e-01	-4.567962032e-04	5.527356969e-12
-3.600000000e-03	1.896955651e-01	-4.548676967e-04	6.896470663e-12
-3.700000000e-03	1.896955687e-01	-4.529391901e-04	1.980140834e-11
-3.800000000e-03	1.896955722e-01	-4.510106834e-04	9.299004665e-12
-3.900000000e-03	1.896955757e-01	-4.490821765e-04	1.622370929e-11
-4.000000000e-03	1.896955791e-01	-4.471536695e-04	1.094181716e-11
-4.100000000e-03	1.896955824e-01	-4.452251624e-04	1.148614641e-11
-4.200000000e-03	1.896955857e-01	-4.432966552e-04	4.706324049e-11
-4.300000000e-03	1.896955890e-01	-4.413681479e-04	9.711863027e-12
-4.400000000e-03	1.896955921e-01	-4.394396405e-04	3.897683974e-11
-4.500000000e-03	1.896955952e-01	-4.375111329e-04	8.601622140e-11
-4.600000000e-03	1.896955983e-01	-4.355826252e-04	8.732587951e-12
-4.700000000e-03	1.896956013e-01	-4.336541175e-04	7.229687424e-12
-4.800000000e-03	1.896956042e-01	-4.317256096e-04	6.978966625e-12
-4.900000000e-03	1.896956071e-01	-4.297971017e-04	5.762324299e-12
-5.000000000e-03	1.896956099e-01	-4.278685936e-04	1.338581834e-11
-5.100000000e-03	1.896956127e-01	-4.259400855e-04	5.608954094e-12
-5.200000000e-03	1.896956154e-01	-4.240115773e-04	1.518202797e-11
-5.300000000e-03	1.896956180e-01	-4.220830690e-04	7.593650039e-12
-5.400000000e-03	1.896956206e-01	-4.201545606e-04	5.374843667e-11
-5.500000000e-03	1.896956231e-01	-4.182260521e-04	8.930210144e-12
-5.600000000e-03	1.896956256e-01	-4.162975435e-04	1.915180609e-11
-5.700000000e-03	1.896956280e-01	-4.143690349e-04	9.959966984e-12
-5.800000000e-03	1.896956303e-01	-4.124405262e-04	3.666762985e-11
-5.900000000e-03	1.896956326e-01	-4.105120175e-04	1.229401190e-11
-6.000000000e-03	1.896956349e-01	-4.085835087e-04	3.790024594e-11
-6.100000000e-03	1.896956370e-01	-4.066549998e-04	8.719327700e-12
-6.200000000e-03	1.896956391e-01	-4.047264909e-04	9.359445005e-12
-6.300000000e-03	1.896956412e-01	-4.027979819e-04	1.376359850e-11
-6.400000000e-03	1.896956432e-01	-4.008694728e-04	1.011578446e-11
-6.500000000e-03	1.896956451e-01	-3.989409637e-04	7.110719296e-12
-6.600000000e-03	1.896956470e-01	-3.970124546e-04	1.092249177e-11
-6.700000000e-03	1.896956488e-01	-3.950839454e-04	1.059173956e-11
-6.800000000e-03	1.896956506e-01	-3.931554362e-04	2.135529889e-11
-6.900000000e-03	1.896956523e-01	-3.912269270e-04	1.196712733e-11
-7.000000000e-03	1.896956539e-01	-3.892984177e-04	7.684686987e-12
-7.100000000e-03	1.896956555e-01	-3.873699084e-04	1.719222929e-11
-7.200000000e-03	1.896956570e-01	-3.854413990e-04	1.811343192e-11
-7.300000000e-03	1.896956585e-01	-3.835128897e-04	8.261401401e-12
-7.400000000e-03	1.896956599e-01	-3.815843803e-04	9.193679536e-12
-7.500000000e-03	1.896956612e-01	-3.796558709e-04	4.989397637e-12
-7.600000000e-03	1.896956625e-01	-3.777273614e-04	7.873300312e-12
-7.700000000e-03	1.896956638e-01	-3.757988520e-04	5.769942758e-12
-7.800000000e-03	1.896956649e-01	-3.738703425e-04	1.345615668e-11
-7.900000000e-03	1.896956660e-01	-3.719418331e-04	1.866090577e-11
-8.000000000e-03	1.896956671e-01	-3.700133236e-04	1.028752137e-11
-8.100000000e-03	1.896956681e-01	-3.680848142e-04	3.626198462e-11
-8.200000000e-03	1.896956690e-01	-3.661563047e-04	1.603565937e-11
-8.300000000e-03	1.896956699e-01	-3.642277953e-04	8.804352393e-12
-8.400000000e-03	1.896956707e-01	-3.622992858e-04	1.113884765e-11
-8.500000000e-03	1.896956715e-01	-3.603707764e-04	7.154311498e-11
-8.600000000e-03	1.896956722e-01	-3.584422670e-04	7.485132979e-12
-8.700000000e-03	1.896956728e-01	-3.565137576e-04	1.001378411e-11
-8.800000000e-03	1.896956734e-01	-3.545852482e-04	1.274948000e-11
-8.900000000e-03	1.896956739e-01	-3.526567388e-04	1.082042464e-11
-9.000000000e-03	1.896956744e-01	-3.507282295e-04	1.356943915e-11
-9.100000000e-03	1.896956748e-01	-3.487997202e-04	1.494008706e-11
-9.200000000e-03	1.896956752e-01	-3.468712109e-04	2.380464806e-11
-9.300000000e-03	1.896956755e-01	-3.449427017e-04	6.353285793e-12
-9.400000000e-03	1.896956757e-01	-3.430141925e-04	8.476702236e-12
-9.500000000e-03	1.896956759e-01	-3.410856833e-04	1.578038756e-11
-9.600000000e-03	1.896956760e-01	-3.391571742e-04	2.255652697e-11
-9.700000000e-03	1.896956760e-01	-3.372286651e-04	1.031351117e-11
-9.800000000e-03	1.896956760e-01	-3.353001561e-04	6.660150392e-11
-9.900000000e-03	1.896956760e-01	-3.333716472e-04	8.177586317e-12
-1.000000000e-02	1.896956758e-01	-3.314431383e-04	1.282239688e-11
-1.010000000e-02	1.896956757e-01	-3.295146294e-04	1.052804376e-11
-1.020000000e-02	1.896956754e-01	-3.275861206e-04	9.930584678e-12
-1.030000000e-02	1.896956751e-01	-3.256576119e-04	2.621889128e-11
-1.040000000e-02	1.896956748e-01	-3.237291032e-04	3.318422409e-11
-1.050000000e-02	1.896956744e-01	-3.218005947e-04	1.491035491e-11
-1.060000000e-02	1.896956739e-01	-3.198720862e-04	2.814499895e-11
-1.070000000e-02	1.896956733e-01	-3.179435777e-04	1.241583742e-11
-1.080000000e-02	1.896956728e-01	-3.160150694e-04	3.540510445e-11
-1.090000000e-02	1.896956721e-01	-3.140865611e-04	7.904852200e-12
-1.100000000e-02	1.896956714e-01	-3.121580529e-04	1.847077616e-11
-1.110000000e-02	1.896956706e-01	-3.102295448e-04	6.578173647e-12
-1.120000000e-02	1.896956698e-01	-3.083010368e-04	1.048274383e-11
-1.130000000e-02	1.896956689e-01	-3.063725289e-04	9.891720126e-12
-1.140000000e-02	1.896956680e-01	-3.044440211e-04	4.448104933e-11
-1.150000000e-02	1.896956670e-01	-3.025155134e-04	1.192763437e-11
-1.160000000e-02	1.896956659e-01	-3.005870058e-04	1.008579394e-10
-1.170000000e-02	1.896956648e-01	-2.986584983e-04	7.878894545e-12
-1.180000000e-02	1.896956636e-01	-2.967299909e-04	1.302973936e-11
-1.190000000e-02	1.896956624e-01	-2.948014836e-04	1.569652807e-11
-1.200000000e-02	1.896956611e-01	-2.928729764e-04	7.364046845e-12
-1.210000000e-02	1.896956597e-01	-2.909444694e-04	2.073009839e-11
-1.220000000e-02	1.896956583e-01	-2.890159625e-04	4.650502390e-11
-1.230000000e-02	1.896956568e-01	-2.870874557e-04	1.117832496e-11
-1.240000000e-02	1.896956553e-01	-2.851589490e-04	2.223218041e-11
-1.250000000e-02	1.896956537e-01	-2.832304424e-04	1.465893197e-11
-1.260000000e-02	1.896956521e-01	-2.813019360e-04	2.056039393e-11
-1.270000000e-02	1.896956504e-01	-2.793734298e-04	5.123769350e-12
-1.280000000e-02	1.896956486e-01	-2.774449236e-04	2.746974026e-10
-1.290000000e-02	1.896956468e-01	-2.755164176e-04	5.776273734e-11
-1.300000000e-02	1.896956449e-01	-2.735879118e-04	1.395818361e-11
-1.310000000e-02	1.896956429e-01	-2.716594061e-04	2.122167075e-11
-1.320000000e-02	1.896956409e-01	-2.697309006e-04	9.323943551e-12
-1.330000000e-02	1.896956389e-01	-2.678023952e-04	1.455598222e-11
-1.340000000e-02	1.896956368e-01	-2.658738899e-04	6.721127797e-11
-1.350000000e-02	1.896956346e-01	-2.639453849e-04	2.950318406e-11
-1.360000000e-02	1.896956323e-01	-2.620168799e-04	1.810216065e-11
-1.370000000e-02	1.896956300e-01	-2.600883752e-04	9.951776223e-12
-1.380000000e-02	1.896956277e-01	-2.581598706e-04	1.076983902e-11
-1.390000000e-02	1.896956253e-01	-2.562313662e-04	6.756433364e-12
-1.400000000e-02	1.896956228e-01	-2.543028620e-04	1.301903626e-11
-1.410000000e-02	1.896956203e-01	-2.523743579e-04	1.460912175e-11
-1.420000000e-02	1.896956177e-01	-2.504458541e-04	7.500545232e-12
-1.430000000e-02	1.896956150e-01	-2.485173504e-04	4.046843291e-11
-1.440000000e-02	1.896956123e-01	-2.465888469e-04	3.704688740e-11
-1.450000000e-02	1.896956096e-01	-2.446603436e-04	1.245201126e-11
-1.460000000e-02	1.896956067e-01	-2.427318405e-04	1.574426111e-11
-1.470000000e-02	1.896956039e-01	-2.408033376e-04	1.293506027e-11
-1.480000000e-02	1.896956009e-01	-2.388748348e-04	7.555446684e-12
-1.490000000e-02	1.896955979e-01	-2.369463323e-04	1.545414579e-11
-1.500000000e-02	1.896955948e-01	-2.350178300e-04	1.506342354e-11
-1.510000000e-02	1.896955917e-01	-2.330893279e-04	3.505511744e-12
-1.520000000e-02	1.896955886e-01	-2.311608260e-04	8.495615171e-12
-1.530000000e-02	1.896955853e-01	-2.292323243e-04	1.207021052e-11
-1.540000000e-02	1.896955820e-01	-2.273038229e-04	3.058529358e-11
-1.550000000e-02	1.896955787e-01	-2.253753216e-04	1.582805141e-11
-1.560000000e-02	1.896955753e-01	-2.234468206e-04	9.052749955e-12
-1.570000000e-02	1.896955718e-01	-2.215183198e-04	8.819015096e-12
-1.580000000e-02	1.896955683e-01	-2.195898192e-04	1.407321444e-11
-1.590000000e-02	1.896955647e-01	-2.176613189e-04	1.839299447e-11
-1.600000000e-02	1.896955610e-01	-2.157328188e-04	1.257283648e-11
-1.610000000e-02	1.896955573e-01	-2.138043189e-04	1.737621713e-11
-1.620000000e-02	1.896955536e-01	-2.118758193e-04	1.232705917e-11
-1.630000000e-02	1.896955497e-01	-2.099473199e-04	2.229925048e-11
-1.640000000e-02	1.896955458e-01	-2.080188208e-04	9.685161104e-12
-1.650000000e-02	1.896955419e-01	-2.060903219e-04	2.393099429e-11
-1.660000000e-02	1.896955379e-01	-2.041618233e-04	6.224991910e-12
-1.670000000e-02	1.896955338e-01	-2.022333249e-04	1.117372176e-11
-1.680000000e-02	1.896955297e-01	-2.003048268e-04	1.151303952e-10
-1.690000000e-02	1.896955256e-01	-1.983763290e-04	8.865705020e-12
-1.700000000e-02	1.896955213e-01	-1.964478314e-04	1.242294514e-11
-1.710000000e-02	1.896955170e-01	-1.945193341e-04	1.258061595e-11
-1.720000000e-02	1.896955127e-01	-1.925908370e-04	1.340835440e-11
-1.730000000e-02	1.896955083e-01	-1.906623402e-04	1.429958440e-11
-1.740000000e-02	1.896955038e-01	-1.887338437e-04	5.524352197e-12
-1.750000000e-02	1.896954993e-01	-1.868053475e-04	1.628951566e-11
-1.760000000e-02	1.896954947e-01	-1.848768516e-04	3.484825046e-11
-1.770000000e-02	1.896954900e-01	-1.829483559e-04	5.634365247e-12
-1.780000000e-02	1.896954853e-01	-1.810198606e-04	6.527064027e-12
-1.790000000e-02	1.896954806e-01	-1.790913655e-04	1.170776459e-11
-1.800000000e-02	1.896954757e-01	-1.771628707e-04	1.834099827e-11
-1.810000000e-02	1.896954709e-01	-1.752343762e-04	1.881337870e-11
-1.820000000e-02	1.896954659e-01	-1.733058821e-04	7.258728713e-12
-1.830000000e-02	1.896954609e-01	-1.713773882e-04	1.696336518e-11
-1.840000000e-02	1.896954559e-01	-1.694488946e-04	3.271147903e-11
-1.850000000e-02	1.896954507e-01	-1.675204014e-04	1.909151143e-11
-1.860000000e-02	1.896954456e-01	-1.655919084e-04	9.480766096e-12
-1.870000000e-02	1.896954403e-01	-1.636634158e-04	1.015278963e-11
-1.880000000e-02	1.896954350e-01	-1.617349235e-04	1.155504696e-11
-1.890000000e-02	1.896954297e-01	-1.598064315e-04	1.047236740e-11
-1.900000000e-02	1.896954243e-01	-1.578779398e-04	1.216196771e-11
-1.910000000e-02	1.896954188e-01	-1.559494485e-04	2.248328693e-11
-1.920000000e-02	1.896954133e-01	-1.540209574e-04	1.517834077e-11
-1.930000000e-02	1.896954077e-01	-1.520924668e-04	9.203680852e-12
-1.940000000e-02	1.896954021e-01	-1.501639764e-04	7.891829489e-12
-1.950000000e-02	1.896953963e-01	-1.482354864e-04	8.819583375e-12
-1.960000000e-02	1.896953906e-01	-1.463069968e-04	1.615211214e-11
-1.970000000e-02	1.896953848e-01	-1.443785074e-04	1.871842549e-11
-1.980000000e-02	1.896953789e-01	-1.424500185e-04	6.730196483e-12
-1.990000000e-02	1.896953729e-01	-1.405215299e-04	7.297287795e-11
-2.000000000e-02	1.896953669e-01	-1.385930416e-04	1.206349173e-11
-2.010000000e-02	1.896953609e-01	-1.366645537e-04	1.456647635e-11
-2.020000000e-02	1.896953548e-01	-1.347360661e-04	8.583972720e-12
-2.030000000e-02	1.896953486e-01	-1.328075790e-04	1.290580319e-11
-2.040000000e-02	1.896953424e-01	-1.308790921e-04	3.371482640e-11
-2.050000000e-02	1.896953361e-01	-1.289506057e-04	1.605872729e-11
-2.060000000e-02	1.896953297e-01	-1.270221196e-04	9.918881343e-12
-2.070000000e-02	1.896953233e-01	-1.250936339e-04	1.071840302e-11
-2.080000000e-02	1.896953168e-01	-1.231651486e-04	2.070002963e-11
-2.090000000e-02	1.896953103e-01	-1.212366637e-04	8.891774966e-12
-2.100000000e-02	1.896953037e-01	-1.193081791e-04	7.287118008e-11
-2.110000000e-02	1.896952971e-01	-1.173796949e-04	7.407279593e-12
-2.120000000e-02	1.896952904e-01	-1.154512112e-04	6.508265393e-12
-2.130000000e-02	1.896952836e-01	-1.135227278e-04	1.043066510e-11
-2.140000000e-02	1.896952768e-01	-1.115942448e-04	2.706578859e-11
-2.150000000e-02	1.896952699e-01	-1.096657622e-04	1.312043281e-11
-2.160000000e-02	1.896952630e-01	-1.077372800e-04	1.291614328e-11
-2.170000000e-02	1.896952560e-01	-1.058087982e-04	1.387426244e-11
-2.180000000e-02	1.896952489e-01	-1.038803168e-04	7.955413423e-12
-2.190000000e-02	1.896952418e-01	-1.019518358e-04	1.359883615e-11
-2.200000000e-02	1.896952346e-01	-1.000233553e-04	1.608700244e-11
-2.210000000e-02	1.896952274e-01	-9.809487515e-05	1.040256127e-11
-2.220000000e-02	1.896952201e-01	-9.616639543e-05	2.546683223e-11
-2.230000000e-02	1.896952128e-01	-9.423791614e-05	4.436874424e-11
-2.240000000e-02	1.896952054e-01	-9.230943727e-05	6.242687665e-12
-2.250000000e-02	1.896951979e-01	-9.038095883e-05	1.261193812e-11
-2.260000000e-02	1.896951904e-01	-8.845248082e-05	5.719930458e-12
-2.270000000e-02	1.896951828e-01	-8.652400324e-05	1.193484564e-11
-2.280000000e-02	1.896951751e-01	-8.459552610e-05	1.259297045e-11
-2.290000000e-02	1.896951674e-01	-8.266704941e-05	6.743982815e-11
-2.300000000e-02	1.896951597e-01	-8.073857315e-05	2.296365827e-11
-2.310000000e-02	1.896951519e-01	-7.881009734e-05	1.712226170e-11
-2.320000000e-02	1.896951440e-01	-7.688162199e-05	3.378256897e-11
-2.330000000e-02	1.896951360e-01	-7.495314708e-05	6.387794206e-12
-2.340000000e-02	1.896951281e-01	-7.302467263e-05	1.444707943e-11
-2.350000000e-02	1.896951200e-01	-7.109619864e-05	2.218593822e-11
-2.360000000e-02	1.896951119e-01	-6.916772510e-05	3.273504671e-11
-2.370000000e-02	1.896951037e-01	-6.723925204e-05	2.201132329e-11
-2.380000000e-02	1.896950955e-01	-6.531077944e-05	7.920984201e-12
-2.390000000e-02	1.896950872e-01	-6.338230731e-05	7.860677892e-12
-2.400000000e-02	1.896950788e-01	-6.145383566e-05	5.235671518e-11
-2.410000000e-02	1.896950704e-01	-5.952536448e-05	1.583929407e-11
-2.420000000e-02	1.896950620e-01	-5.759689378e-05	2.720665870e-11
-2.430000000e-02	1.896950534e-01	-5.566842356e-05	1.847314642e-11
-2.440000000e-02	1.896950449e-01	-5.373995383e-05	9.272762914e-12
-2.450000000e-02	1.896950362e-01	-5.181148459e-05	1.717755471e-11
-2.460000000e-02	1.896950275e-01	-4.988301583e-05	7.661481332e-12
-2.470000000e-02	1.896950188e-01	-4.795454757e-05	1.187602314e-11
-2.480000000e-02	1.896950099e-01	-4.602607981e-05	1.052963167e-11
-2.490000000e-02	1.896950011e-01	-4.409761255e-05	1.084863440e-11
-2.500000000e-02	1.896949921e-01	-4.216914579e-05	2.181150086e-11
-2.510000000e-02	1.896949831e-01	-4.024067954e-05	7.809193344e-12
-2.520000000e-02	1.896949741e-01	-3.831221380e-05	1.029299547e-11
-2.530000000e-02	1.896949650e-01	-3.638374857e-05	1.020027139e-11
-2.540000000e-02	1.896949558e-01	-3.445528385e-05	9.307304173e-12
-2.550000000e-02	1.896949466e-01	-3.252681966e-05	1.204863242e-11
-2.560000000e-02	1.896949373e-01	-3.059835598e-05	1.260373637e-11
-2.570000000e-02	1.896949279e-01	-2.866989283e-05	1.008145603e-11
-2.580000000e-02	1.896949185e-01	-2.674143020e-05	7.380655625e-12
-2.590000000e-02	1.896949091e-01	-2.481296811e-05	2.591480025e-11
-2.600000000e-02	1.896948995e-01	-2.288450655e-05	9.191129828e-12
-2.610000000e-02	1.896948900e-01	-2.095604552e-05	7.924533733e-12
-2.620000000e-02	1.896948803e-01	-1.902758503e-05	1.629058854e-11
-2.630000000e-02	1.896948706e-01	-1.709912509e-05	9.788931548e-12
-2.640000000e-02	1.896948609e-01	-1.517066569e-05	1.312382838e-11
-2.650000000e-02	1.896948510e-01	-1.324220683e-05	1.496656080e-11
-2.660000000e-02	1.896948412e-01	-1.131374853e-05	1.065861209e-11
-2.670000000e-02	1.896948312e-01	-9.385290783e-06	1.739140481e-11
-2.680000000e-02	1.896948212e-01	-7.456833591e-06	7.376697455e-12
-2.690000000e-02	1.896948112e-01	-5.528376959e-06	6.910553225e-12
-2.700000000e-02	1.896948011e-01	-3.599920891e-06	1.655587299e-11
-2.710000000e-02	1.896947909e-01	-1.671465389e-06	1.719972214e-11
-2.720000000e-02	1.896947807e-01	2.569895466e-07	1.005993852e-11
-2.730000000e-02	1.896947704e-01	2.185443909e-06	2.109665501e-11
-2.740000000e-02	1.896947600e-01	4.113897697e-06	1.811147219e-11
-2.750000000e-02	1.896947496e-01	6.042350907e-06	9.500689645e-12
-2.760000000e-02	1.896947392e-01	7.970803536e-06	1.846730716e-11
-2.770000000e-02	1.896947286e-01	9.899255582e-06	1.261853188e-11
-2.780000000e-02	1.896947181e-01	1.182770704e-05	5.689514558e-12
-2.790000000e-02	1.896947074e-01	1.375615791e-05	2.633943922e-11
-2.800000000e-02	1.896946967e-01	1.568460819e-05	9.210952981e-12
-2.810000000e-02	1.896946860e-01	1.761305787e-05	7.401598319e-12
-2.820000000e-02	1.896946751e-01	1.954150695e-05	2.044590350e-11
-2.830000000e-02	1.896946643e-01	2.146995543e-05	1.719968670e-11
-2.840000000e-02	1.896946533e-01	2.339840331e-05	2.342246813e-11
-2.850000000e-02	1.896946423e-01	2.532685058e-05	1.665535635e-11
-2.860000000e-02	1.896946313e-01	2.725529724e-05	2.249453439e-11
-2.870000000e-02	1.896946202e-01	2.918374328e-05	1.911924468e-11
-2.880000000e-02	1.896946090e-01	3.111218871e-05	6.025486171e-12
-2.890000000e-02	1.896945978e-01	3.304063352e-05	9.653378860e-12
-2.900000000e-02	1.896945865e-01	3.496907771e-05	9.272744028e-12
-2.910000000e-02	1.896945752e-01	3.689752127e-05	1.584624617e-11
-2.920000000e-02	1.896945638e-01	3.882596420e-05	1.133419164e-11
-2.930000000e-02	1.896945523e-01	4.075440650e-05	1.617925659e-11
-2.940000000e-02	1.896945408e-01	4.268284817e-05	1.214958591e-11
-2.950000000e-02	1.896945292e-01	4.461128920e-05	1.684376313e-11
-2.960000000e-02	1.896945175e-01	4.653972959e-05	7.445219257e-12
-2.970000000e-02	1.896945059e-01	4.846816934e-05	4.574834341e-12
-2.980000000e-02	1.896944941e-01	5.039660844e-05	2.737808836e-11
-2.990000000e-02	1.896944823e-01	5.232504689e-05	7.253711868e-12
-3.000000000e-02	1.896944704e-01	5.425348469e-05	5.881438112e-12
