# Im(epsi1)     Re(omega/c)      Im(omega/c)      Eq(det).Opt det CON kz, R=0.5 \mum, mu_c=0.3, Re(epsi1)=3.90solve_det_conkz_vs_kz.py
0.000000000e+00	1.896718544e-01	-5.242704298e-04	1.854990243e-11
-1.000000000e-04	1.896718601e-01	-5.223420461e-04	6.939614044e-12
-2.000000000e-04	1.896718657e-01	-5.204136622e-04	1.786241617e-11
-3.000000000e-04	1.896718713e-01	-5.184852780e-04	3.099903211e-11
-4.000000000e-04	1.896718768e-01	-5.165568936e-04	2.415059873e-11
-5.000000000e-04	1.896718823e-01	-5.146285089e-04	1.386242249e-10
-6.000000000e-04	1.896718877e-01	-5.127001241e-04	1.650643912e-11
-7.000000000e-04	1.896718930e-01	-5.107717390e-04	4.514478654e-11
-8.000000000e-04	1.896718983e-01	-5.088433537e-04	1.485533692e-11
-9.000000000e-04	1.896719035e-01	-5.069149682e-04	1.549849420e-11
-1.000000000e-03	1.896719087e-01	-5.049865824e-04	6.934668503e-12
-1.100000000e-03	1.896719138e-01	-5.030581965e-04	1.559009118e-11
-1.200000000e-03	1.896719188e-01	-5.011298104e-04	8.061307637e-11
-1.300000000e-03	1.896719238e-01	-4.992014240e-04	1.114209662e-11
-1.400000000e-03	1.896719288e-01	-4.972730374e-04	9.829381642e-12
-1.500000000e-03	1.896719336e-01	-4.953446507e-04	7.320396875e-12
-1.600000000e-03	1.896719385e-01	-4.934162637e-04	3.403080651e-11
-1.700000000e-03	1.896719432e-01	-4.914878766e-04	1.577368312e-11
-1.800000000e-03	1.896719479e-01	-4.895594893e-04	8.477705603e-12
-1.900000000e-03	1.896719526e-01	-4.876311018e-04	9.843256755e-12
-2.000000000e-03	1.896719571e-01	-4.857027141e-04	3.321890760e-11
-2.100000000e-03	1.896719617e-01	-4.837743262e-04	9.189418758e-12
-2.200000000e-03	1.896719661e-01	-4.818459382e-04	5.604500809e-12
-2.300000000e-03	1.896719705e-01	-4.799175499e-04	1.212545534e-11
-2.400000000e-03	1.896719749e-01	-4.779891615e-04	1.721365770e-11
-2.500000000e-03	1.896719792e-01	-4.760607730e-04	1.474668852e-11
-2.600000000e-03	1.896719834e-01	-4.741323842e-04	1.482663334e-11
-2.700000000e-03	1.896719875e-01	-4.722039954e-04	1.700894096e-11
-2.800000000e-03	1.896719917e-01	-4.702756063e-04	1.878463036e-10
-2.900000000e-03	1.896719957e-01	-4.683472171e-04	1.925016021e-11
-3.000000000e-03	1.896719997e-01	-4.664188277e-04	1.209164364e-11
-3.100000000e-03	1.896720036e-01	-4.644904382e-04	4.910759760e-12
-3.200000000e-03	1.896720075e-01	-4.625620486e-04	1.337524343e-11
-3.300000000e-03	1.896720113e-01	-4.606336588e-04	8.591112710e-12
-3.400000000e-03	1.896720151e-01	-4.587052688e-04	1.153749975e-11
-3.500000000e-03	1.896720188e-01	-4.567768788e-04	1.477044759e-11
-3.600000000e-03	1.896720224e-01	-4.548484886e-04	7.419927208e-12
-3.700000000e-03	1.896720260e-01	-4.529200982e-04	1.075142760e-11
-3.800000000e-03	1.896720295e-01	-4.509917077e-04	2.929137598e-11
-3.900000000e-03	1.896720330e-01	-4.490633171e-04	9.307988633e-12
-4.000000000e-03	1.896720364e-01	-4.471349264e-04	8.144817038e-12
-4.100000000e-03	1.896720397e-01	-4.452065356e-04	1.245430575e-11
-4.200000000e-03	1.896720430e-01	-4.432781446e-04	7.749762795e-12
-4.300000000e-03	1.896720463e-01	-4.413497535e-04	9.811171105e-12
-4.400000000e-03	1.896720494e-01	-4.394213624e-04	2.140399338e-11
-4.500000000e-03	1.896720525e-01	-4.374929711e-04	2.113671113e-11
-4.600000000e-03	1.896720556e-01	-4.355645797e-04	2.538084316e-11
-4.700000000e-03	1.896720586e-01	-4.336361882e-04	1.817537787e-11
-4.800000000e-03	1.896720615e-01	-4.317077966e-04	1.201996131e-11
-4.900000000e-03	1.896720644e-01	-4.297794049e-04	1.531336959e-11
-5.000000000e-03	1.896720672e-01	-4.278510131e-04	1.334653981e-11
-5.100000000e-03	1.896720700e-01	-4.259226212e-04	6.893453398e-12
-5.200000000e-03	1.896720727e-01	-4.239942292e-04	1.322570158e-11
-5.300000000e-03	1.896720753e-01	-4.220658372e-04	9.070553715e-12
-5.400000000e-03	1.896720779e-01	-4.201374450e-04	6.914358905e-11
-5.500000000e-03	1.896720804e-01	-4.182090528e-04	9.363669471e-12
-5.600000000e-03	1.896720829e-01	-4.162806605e-04	1.892501183e-11
-5.700000000e-03	1.896720853e-01	-4.143522682e-04	2.042897610e-11
-5.800000000e-03	1.896720876e-01	-4.124238758e-04	1.737217726e-11
-5.900000000e-03	1.896720899e-01	-4.104954833e-04	2.380072555e-11
-6.000000000e-03	1.896720922e-01	-4.085670907e-04	7.491206697e-12
-6.100000000e-03	1.896720943e-01	-4.066386981e-04	1.655008230e-11
-6.200000000e-03	1.896720964e-01	-4.047103054e-04	2.055357507e-11
-6.300000000e-03	1.896720985e-01	-4.027819127e-04	1.143349506e-11
-6.400000000e-03	1.896721005e-01	-4.008535199e-04	6.454895799e-12
-6.500000000e-03	1.896721024e-01	-3.989251271e-04	1.105798622e-11
-6.600000000e-03	1.896721043e-01	-3.969967342e-04	6.753315540e-12
-6.700000000e-03	1.896721061e-01	-3.950683413e-04	2.971644925e-11
-6.800000000e-03	1.896721079e-01	-3.931399483e-04	2.013290968e-11
-6.900000000e-03	1.896721096e-01	-3.912115553e-04	9.707721565e-12
-7.000000000e-03	1.896721112e-01	-3.892831623e-04	5.656042128e-12
-7.100000000e-03	1.896721128e-01	-3.873547692e-04	1.540083578e-11
-7.200000000e-03	1.896721143e-01	-3.854263761e-04	7.747784796e-12
-7.300000000e-03	1.896721158e-01	-3.834979830e-04	8.219185950e-12
-7.400000000e-03	1.896721172e-01	-3.815695899e-04	5.528429673e-12
-7.500000000e-03	1.896721186e-01	-3.796411967e-04	1.092488008e-11
-7.600000000e-03	1.896721198e-01	-3.777128036e-04	7.609235282e-12
-7.700000000e-03	1.896721211e-01	-3.757844104e-04	1.227494506e-11
-7.800000000e-03	1.896721222e-01	-3.738560172e-04	1.124071882e-11
-7.900000000e-03	1.896721234e-01	-3.719276240e-04	1.007343428e-11
-8.000000000e-03	1.896721244e-01	-3.699992308e-04	1.497749423e-11
-8.100000000e-03	1.896721254e-01	-3.680708376e-04	2.019616813e-11
-8.200000000e-03	1.896721263e-01	-3.661424444e-04	8.663081401e-12
-8.300000000e-03	1.896721272e-01	-3.642140512e-04	1.403456570e-11
-8.400000000e-03	1.896721280e-01	-3.622856580e-04	1.268487707e-11
-8.500000000e-03	1.896721288e-01	-3.603572649e-04	3.967685741e-11
-8.600000000e-03	1.896721295e-01	-3.584288717e-04	2.623498056e-11
-8.700000000e-03	1.896721301e-01	-3.565004786e-04	9.978294018e-12
-8.800000000e-03	1.896721307e-01	-3.545720854e-04	6.601786105e-12
-8.900000000e-03	1.896721313e-01	-3.526436923e-04	1.381302402e-11
-9.000000000e-03	1.896721317e-01	-3.507152993e-04	6.151594665e-12
-9.100000000e-03	1.896721321e-01	-3.487869062e-04	1.955011147e-11
-9.200000000e-03	1.896721325e-01	-3.468585132e-04	1.621662607e-11
-9.300000000e-03	1.896721328e-01	-3.449301202e-04	1.840456212e-11
-9.400000000e-03	1.896721330e-01	-3.430017273e-04	4.108689935e-11
-9.500000000e-03	1.896721332e-01	-3.410733344e-04	2.516882838e-11
-9.600000000e-03	1.896721333e-01	-3.391449415e-04	1.149563379e-11
-9.700000000e-03	1.896721333e-01	-3.372165487e-04	9.261363866e-12
-9.800000000e-03	1.896721333e-01	-3.352881559e-04	1.435953722e-11
-9.900000000e-03	1.896721333e-01	-3.333597632e-04	1.878272750e-11
-1.000000000e-02	1.896721332e-01	-3.314313706e-04	1.041858263e-11
-1.010000000e-02	1.896721330e-01	-3.295029780e-04	1.162014215e-11
-1.020000000e-02	1.896721327e-01	-3.275745855e-04	1.999613226e-11
-1.030000000e-02	1.896721324e-01	-3.256461930e-04	7.430178312e-11
-1.040000000e-02	1.896721321e-01	-3.237178006e-04	3.640996965e-11
-1.050000000e-02	1.896721317e-01	-3.217894083e-04	1.289385846e-11
-1.060000000e-02	1.896721312e-01	-3.198610160e-04	4.436654500e-12
-1.070000000e-02	1.896721307e-01	-3.179326239e-04	1.051565313e-11
-1.080000000e-02	1.896721301e-01	-3.160042318e-04	8.398895717e-12
-1.090000000e-02	1.896721294e-01	-3.140758397e-04	1.052637667e-11
-1.100000000e-02	1.896721287e-01	-3.121474478e-04	9.743876079e-12
-1.110000000e-02	1.896721279e-01	-3.102190560e-04	9.321896619e-12
-1.120000000e-02	1.896721271e-01	-3.082906642e-04	3.596745045e-11
-1.130000000e-02	1.896721262e-01	-3.063622726e-04	1.297310479e-11
-1.140000000e-02	1.896721253e-01	-3.044338810e-04	2.413572417e-11
-1.150000000e-02	1.896721243e-01	-3.025054896e-04	1.775718298e-11
-1.160000000e-02	1.896721232e-01	-3.005770982e-04	1.389379134e-11
-1.170000000e-02	1.896721221e-01	-2.986487070e-04	1.422305243e-11
-1.180000000e-02	1.896721209e-01	-2.967203158e-04	1.669812466e-11
-1.190000000e-02	1.896721197e-01	-2.947919248e-04	2.166009308e-11
-1.200000000e-02	1.896721184e-01	-2.928635339e-04	1.790796223e-11
-1.210000000e-02	1.896721170e-01	-2.909351431e-04	1.214310627e-11
-1.220000000e-02	1.896721156e-01	-2.890067524e-04	2.723583653e-11
-1.230000000e-02	1.896721142e-01	-2.870783619e-04	8.246160760e-12
-1.240000000e-02	1.896721126e-01	-2.851499715e-04	1.255225759e-11
-1.250000000e-02	1.896721110e-01	-2.832215812e-04	1.950590624e-11
-1.260000000e-02	1.896721094e-01	-2.812931910e-04	5.093666693e-11
-1.270000000e-02	1.896721077e-01	-2.793648010e-04	2.003636298e-11
-1.280000000e-02	1.896721059e-01	-2.774364112e-04	7.801520629e-12
-1.290000000e-02	1.896721041e-01	-2.755080214e-04	5.035079285e-11
-1.300000000e-02	1.896721022e-01	-2.735796318e-04	5.419315632e-12
-1.310000000e-02	1.896721003e-01	-2.716512424e-04	7.964822717e-12
-1.320000000e-02	1.896720983e-01	-2.697228531e-04	9.475868445e-12
-1.330000000e-02	1.896720962e-01	-2.677944640e-04	1.108675474e-11
-1.340000000e-02	1.896720941e-01	-2.658660750e-04	1.129476069e-11
-1.350000000e-02	1.896720919e-01	-2.639376862e-04	1.630101386e-11
-1.360000000e-02	1.896720897e-01	-2.620092975e-04	9.600349874e-12
-1.370000000e-02	1.896720874e-01	-2.600809090e-04	3.576126976e-11
-1.380000000e-02	1.896720850e-01	-2.581525207e-04	7.582624282e-12
-1.390000000e-02	1.896720826e-01	-2.562241326e-04	4.766645197e-11
-1.400000000e-02	1.896720801e-01	-2.542957446e-04	2.017675217e-11
-1.410000000e-02	1.896720776e-01	-2.523673568e-04	1.270386645e-11
-1.420000000e-02	1.896720750e-01	-2.504389692e-04	3.339993921e-11
-1.430000000e-02	1.896720724e-01	-2.485105818e-04	8.978371603e-12
-1.440000000e-02	1.896720697e-01	-2.465821945e-04	1.078822979e-11
-1.450000000e-02	1.896720669e-01	-2.446538075e-04	2.392896196e-11
-1.460000000e-02	1.896720641e-01	-2.427254206e-04	1.327086198e-11
-1.470000000e-02	1.896720612e-01	-2.407970339e-04	1.363223421e-11
-1.480000000e-02	1.896720582e-01	-2.388686475e-04	1.383051209e-11
-1.490000000e-02	1.896720552e-01	-2.369402612e-04	1.244926764e-11
-1.500000000e-02	1.896720522e-01	-2.350118752e-04	7.781120655e-12
-1.510000000e-02	1.896720491e-01	-2.330834893e-04	1.360883504e-11
-1.520000000e-02	1.896720459e-01	-2.311551037e-04	1.637075195e-11
-1.530000000e-02	1.896720426e-01	-2.292267183e-04	3.483469043e-11
-1.540000000e-02	1.896720394e-01	-2.272983330e-04	1.341303553e-11
-1.550000000e-02	1.896720360e-01	-2.253699481e-04	1.684017402e-11
-1.560000000e-02	1.896720326e-01	-2.234415633e-04	1.327627612e-11
-1.570000000e-02	1.896720291e-01	-2.215131788e-04	8.143664765e-12
-1.580000000e-02	1.896720256e-01	-2.195847945e-04	1.302993019e-10
-1.590000000e-02	1.896720220e-01	-2.176564104e-04	1.746027990e-11
-1.600000000e-02	1.896720184e-01	-2.157280265e-04	1.141325469e-11
-1.610000000e-02	1.896720146e-01	-2.137996429e-04	1.480727469e-11
-1.620000000e-02	1.896720109e-01	-2.118712596e-04	2.726696562e-11
-1.630000000e-02	1.896720071e-01	-2.099428764e-04	9.665093627e-12
-1.640000000e-02	1.896720032e-01	-2.080144936e-04	1.364757298e-11
-1.650000000e-02	1.896719992e-01	-2.060861109e-04	2.383590898e-11
-1.660000000e-02	1.896719952e-01	-2.041577286e-04	1.966320216e-11
-1.670000000e-02	1.896719912e-01	-2.022293465e-04	9.114559262e-12
-1.680000000e-02	1.896719871e-01	-2.003009646e-04	4.347232769e-11
-1.690000000e-02	1.896719829e-01	-1.983725830e-04	7.985631119e-12
-1.700000000e-02	1.896719787e-01	-1.964442017e-04	1.864169036e-11
-1.710000000e-02	1.896719744e-01	-1.945158206e-04	1.409094628e-11
-1.720000000e-02	1.896719700e-01	-1.925874398e-04	2.402325272e-11
-1.730000000e-02	1.896719656e-01	-1.906590593e-04	3.859303201e-11
-1.740000000e-02	1.896719611e-01	-1.887306791e-04	2.751892666e-11
-1.750000000e-02	1.896719566e-01	-1.868022991e-04	1.689127025e-11
-1.760000000e-02	1.896719520e-01	-1.848739194e-04	1.900042356e-11
-1.770000000e-02	1.896719474e-01	-1.829455400e-04	1.292029807e-11
-1.780000000e-02	1.896719427e-01	-1.810171609e-04	6.328058350e-12
-1.790000000e-02	1.896719379e-01	-1.790887821e-04	1.112317733e-11
-1.800000000e-02	1.896719331e-01	-1.771604036e-04	8.319611909e-12
-1.810000000e-02	1.896719282e-01	-1.752320254e-04	1.257076419e-11
-1.820000000e-02	1.896719233e-01	-1.733036474e-04	1.114558482e-10
-1.830000000e-02	1.896719183e-01	-1.713752698e-04	1.533080425e-11
-1.840000000e-02	1.896719132e-01	-1.694468925e-04	7.993448912e-12
-1.850000000e-02	1.896719081e-01	-1.675185155e-04	1.716694038e-11
-1.860000000e-02	1.896719029e-01	-1.655901388e-04	3.463827771e-11
-1.870000000e-02	1.896718977e-01	-1.636617624e-04	3.534584120e-11
-1.880000000e-02	1.896718924e-01	-1.617333864e-04	5.778260459e-12
-1.890000000e-02	1.896718870e-01	-1.598050106e-04	7.873501933e-12
-1.900000000e-02	1.896718816e-01	-1.578766352e-04	8.885759542e-12
-1.910000000e-02	1.896718762e-01	-1.559482601e-04	1.073870284e-11
-1.920000000e-02	1.896718706e-01	-1.540198854e-04	1.951254770e-11
-1.930000000e-02	1.896718650e-01	-1.520915110e-04	1.605397548e-11
-1.940000000e-02	1.896718594e-01	-1.501631369e-04	2.616158083e-11
-1.950000000e-02	1.896718537e-01	-1.482347631e-04	1.531721291e-11
-1.960000000e-02	1.896718479e-01	-1.463063897e-04	1.045521374e-11
-1.970000000e-02	1.896718421e-01	-1.443780167e-04	1.723039447e-11
-1.980000000e-02	1.896718362e-01	-1.424496439e-04	4.804006099e-12
-1.990000000e-02	1.896718303e-01	-1.405212716e-04	7.116278217e-12
-2.000000000e-02	1.896718243e-01	-1.385928996e-04	1.029483122e-11
-2.010000000e-02	1.896718182e-01	-1.366645279e-04	2.054570453e-11
-2.020000000e-02	1.896718121e-01	-1.347361566e-04	9.456699268e-12
-2.030000000e-02	1.896718059e-01	-1.328077857e-04	5.510834126e-11
-2.040000000e-02	1.896717997e-01	-1.308794152e-04	9.151071895e-12
-2.050000000e-02	1.896717934e-01	-1.289510450e-04	5.788900217e-12
-2.060000000e-02	1.896717871e-01	-1.270226751e-04	1.136480175e-11
-2.070000000e-02	1.896717807e-01	-1.250943057e-04	2.480546130e-11
-2.080000000e-02	1.896717742e-01	-1.231659366e-04	1.991806640e-11
-2.090000000e-02	1.896717677e-01	-1.212375679e-04	1.930106816e-11
-2.100000000e-02	1.896717611e-01	-1.193091996e-04	1.044672382e-11
-2.110000000e-02	1.896717544e-01	-1.173808317e-04	1.210244956e-11
-2.120000000e-02	1.896717477e-01	-1.154524642e-04	1.076500447e-11
-2.130000000e-02	1.896717410e-01	-1.135240971e-04	1.324404943e-11
-2.140000000e-02	1.896717342e-01	-1.115957303e-04	4.513780535e-11
-2.150000000e-02	1.896717273e-01	-1.096673640e-04	1.345346542e-11
-2.160000000e-02	1.896717203e-01	-1.077389981e-04	1.360778435e-11
-2.170000000e-02	1.896717133e-01	-1.058106325e-04	1.354129913e-11
-2.180000000e-02	1.896717063e-01	-1.038822674e-04	5.813826153e-11
-2.190000000e-02	1.896716992e-01	-1.019539027e-04	9.116007463e-12
-2.200000000e-02	1.896716920e-01	-1.000255384e-04	1.100813939e-11
-2.210000000e-02	1.896716848e-01	-9.809717451e-05	7.861863347e-12
-2.220000000e-02	1.896716775e-01	-9.616881105e-05	2.018453085e-11
-2.230000000e-02	1.896716701e-01	-9.424044801e-05	1.336647902e-11
-2.240000000e-02	1.896716627e-01	-9.231208540e-05	9.396756024e-12
-2.250000000e-02	1.896716552e-01	-9.038372320e-05	6.183122137e-11
-2.260000000e-02	1.896716477e-01	-8.845536146e-05	1.440943680e-11
-2.270000000e-02	1.896716401e-01	-8.652700014e-05	2.818565571e-11
-2.280000000e-02	1.896716325e-01	-8.459863926e-05	1.487517713e-11
-2.290000000e-02	1.896716248e-01	-8.267027881e-05	1.310845667e-11
-2.300000000e-02	1.896716170e-01	-8.074191882e-05	1.757482098e-11
-2.310000000e-02	1.896716092e-01	-7.881355926e-05	2.503152438e-11
-2.320000000e-02	1.896716013e-01	-7.688520016e-05	2.141240095e-11
-2.330000000e-02	1.896715934e-01	-7.495684151e-05	9.872301713e-12
-2.340000000e-02	1.896715854e-01	-7.302848332e-05	3.748445217e-11
-2.350000000e-02	1.896715773e-01	-7.110012558e-05	2.107051689e-11
-2.360000000e-02	1.896715692e-01	-6.917176831e-05	1.540398514e-11
-2.370000000e-02	1.896715611e-01	-6.724341150e-05	2.427477107e-11
-2.380000000e-02	1.896715528e-01	-6.531505516e-05	7.726040667e-12
-2.390000000e-02	1.896715445e-01	-6.338669929e-05	1.469100325e-11
-2.400000000e-02	1.896715362e-01	-6.145834389e-05	7.367590288e-12
-2.410000000e-02	1.896715278e-01	-5.952998896e-05	1.447759406e-11
-2.420000000e-02	1.896715193e-01	-5.760163452e-05	1.178703207e-11
-2.430000000e-02	1.896715108e-01	-5.567328056e-05	9.686810542e-12
-2.440000000e-02	1.896715022e-01	-5.374492709e-05	7.235464881e-12
-2.450000000e-02	1.896714936e-01	-5.181657410e-05	6.378849374e-12
-2.460000000e-02	1.896714849e-01	-4.988822160e-05	9.406326174e-12
-2.470000000e-02	1.896714761e-01	-4.795986960e-05	8.212362221e-12
-2.480000000e-02	1.896714673e-01	-4.603151810e-05	6.072831793e-12
-2.490000000e-02	1.896714584e-01	-4.410316709e-05	6.055654584e-12
-2.500000000e-02	1.896714495e-01	-4.217481659e-05	3.050873809e-11
-2.510000000e-02	1.896714405e-01	-4.024646659e-05	8.349679306e-12
-2.520000000e-02	1.896714314e-01	-3.831811711e-05	1.394494936e-11
-2.530000000e-02	1.896714223e-01	-3.638976813e-05	1.159327173e-11
-2.540000000e-02	1.896714132e-01	-3.446141968e-05	2.961832206e-11
-2.550000000e-02	1.896714039e-01	-3.253307174e-05	9.216962165e-12
-2.560000000e-02	1.896713946e-01	-3.060472431e-05	8.937613382e-12
-2.570000000e-02	1.896713853e-01	-2.867637742e-05	9.404118554e-12
-2.580000000e-02	1.896713759e-01	-2.674803105e-05	3.119509019e-11
-2.590000000e-02	1.896713664e-01	-2.481968521e-05	1.708189952e-11
-2.600000000e-02	1.896713569e-01	-2.289133991e-05	2.353565595e-11
-2.610000000e-02	1.896713473e-01	-2.096299514e-05	8.009964784e-12
-2.620000000e-02	1.896713377e-01	-1.903465091e-05	1.618563832e-11
-2.630000000e-02	1.896713280e-01	-1.710630722e-05	1.155637332e-11
-2.640000000e-02	1.896713182e-01	-1.517796407e-05	2.390826075e-11
-2.650000000e-02	1.896713084e-01	-1.324962147e-05	4.596569329e-11
-2.660000000e-02	1.896712985e-01	-1.132127943e-05	3.103355463e-11
-2.670000000e-02	1.896712886e-01	-9.392937940e-06	6.515240112e-12
-2.680000000e-02	1.896712786e-01	-7.464597005e-06	1.115133206e-11
-2.690000000e-02	1.896712685e-01	-5.536256630e-06	8.415062263e-12
-2.700000000e-02	1.896712584e-01	-3.607916819e-06	9.308146610e-12
-2.710000000e-02	1.896712483e-01	-1.679577572e-06	1.664557365e-11
-2.720000000e-02	1.896712380e-01	2.487611036e-07	2.158605004e-11
-2.730000000e-02	1.896712277e-01	2.177099209e-06	1.307337110e-10
-2.740000000e-02	1.896712174e-01	4.105436741e-06	1.401356314e-11
-2.750000000e-02	1.896712070e-01	6.033773695e-06	1.016321539e-11
-2.760000000e-02	1.896711965e-01	7.962110068e-06	1.500735503e-11
-2.770000000e-02	1.896711860e-01	9.890445856e-06	7.827089616e-12
-2.780000000e-02	1.896711754e-01	1.181878106e-05	2.242223927e-11
-2.790000000e-02	1.896711648e-01	1.374711567e-05	9.518213270e-12
-2.800000000e-02	1.896711541e-01	1.567544969e-05	1.599979921e-11
-2.810000000e-02	1.896711433e-01	1.760378311e-05	5.612019909e-12
-2.820000000e-02	1.896711325e-01	1.953211594e-05	3.041293463e-11
-2.830000000e-02	1.896711216e-01	2.146044816e-05	1.074683476e-11
-2.840000000e-02	1.896711107e-01	2.338877979e-05	1.518050142e-11
-2.850000000e-02	1.896710997e-01	2.531711080e-05	9.887333683e-12
-2.860000000e-02	1.896710887e-01	2.724544120e-05	1.309333324e-11
-2.870000000e-02	1.896710775e-01	2.917377098e-05	3.757071817e-11
-2.880000000e-02	1.896710664e-01	3.110210016e-05	9.323313231e-12
-2.890000000e-02	1.896710552e-01	3.303042871e-05	5.313813648e-12
-2.900000000e-02	1.896710439e-01	3.495875664e-05	1.007484122e-11
-2.910000000e-02	1.896710325e-01	3.688708394e-05	2.180761092e-11
-2.920000000e-02	1.896710211e-01	3.881541062e-05	9.540004781e-12
-2.930000000e-02	1.896710097e-01	4.074373666e-05	1.309600009e-11
-2.940000000e-02	1.896709981e-01	4.267206208e-05	2.306244119e-11
-2.950000000e-02	1.896709866e-01	4.460038685e-05	6.620332263e-11
-2.960000000e-02	1.896709749e-01	4.652871099e-05	5.325743201e-11
-2.970000000e-02	1.896709632e-01	4.845703447e-05	1.379534839e-11
-2.980000000e-02	1.896709515e-01	5.038535731e-05	1.807925969e-11
-2.990000000e-02	1.896709396e-01	5.231367951e-05	7.874323488e-12
-3.000000000e-02	1.896709278e-01	5.424200105e-05	6.939838945e-12
