# Im(epsi1)     Re(omega/c)      Im(omega/c)      Eq(det).Opt det CON kz, R=0.5 \mum, mu_c=0.3, Re(epsi1)=3.90solve_det_conkz_vs_kz.py
0.000000000e+00	1.896423389e-01	-5.242039657e-04	1.081108978e-11
-1.000000000e-04	1.896423446e-01	-5.222757267e-04	7.212069209e-12
-2.000000000e-04	1.896423503e-01	-5.203474875e-04	8.138518958e-12
-3.000000000e-04	1.896423558e-01	-5.184192480e-04	5.455067858e-11
-4.000000000e-04	1.896423614e-01	-5.164910084e-04	2.624769534e-11
-5.000000000e-04	1.896423668e-01	-5.145627685e-04	1.059203438e-11
-6.000000000e-04	1.896423722e-01	-5.126345283e-04	9.496044995e-12
-7.000000000e-04	1.896423776e-01	-5.107062880e-04	2.017641860e-11
-8.000000000e-04	1.896423829e-01	-5.087780474e-04	6.059021590e-11
-9.000000000e-04	1.896423881e-01	-5.068498066e-04	6.019355733e-11
-1.000000000e-03	1.896423932e-01	-5.049215656e-04	1.799944453e-11
-1.100000000e-03	1.896423984e-01	-5.029933244e-04	7.836346756e-12
-1.200000000e-03	1.896424034e-01	-5.010650830e-04	2.633056926e-11
-1.300000000e-03	1.896424084e-01	-4.991368414e-04	2.172576760e-11
-1.400000000e-03	1.896424133e-01	-4.972085995e-04	1.291961501e-11
-1.500000000e-03	1.896424182e-01	-4.952803575e-04	4.161080833e-11
-1.600000000e-03	1.896424230e-01	-4.933521153e-04	2.027761015e-11
-1.700000000e-03	1.896424278e-01	-4.914238729e-04	5.489843930e-12
-1.800000000e-03	1.896424325e-01	-4.894956303e-04	1.809625613e-11
-1.900000000e-03	1.896424371e-01	-4.875673875e-04	1.683506716e-10
-2.000000000e-03	1.896424417e-01	-4.856391446e-04	1.680915622e-11
-2.100000000e-03	1.896424462e-01	-4.837109014e-04	1.102802643e-11
-2.200000000e-03	1.896424507e-01	-4.817826581e-04	8.839667795e-12
-2.300000000e-03	1.896424551e-01	-4.798544146e-04	1.070739706e-11
-2.400000000e-03	1.896424594e-01	-4.779261709e-04	9.327939934e-12
-2.500000000e-03	1.896424637e-01	-4.759979271e-04	1.779972866e-11
-2.600000000e-03	1.896424679e-01	-4.740696831e-04	1.493906055e-11
-2.700000000e-03	1.896424721e-01	-4.721414389e-04	4.950592147e-11
-2.800000000e-03	1.896424762e-01	-4.702131946e-04	1.043818506e-11
-2.900000000e-03	1.896424803e-01	-4.682849502e-04	1.726503948e-11
-3.000000000e-03	1.896424842e-01	-4.663567055e-04	1.092926543e-11
-3.100000000e-03	1.896424882e-01	-4.644284608e-04	9.216166227e-12
-3.200000000e-03	1.896424921e-01	-4.625002158e-04	6.403094678e-12
-3.300000000e-03	1.896424959e-01	-4.605719708e-04	6.350816909e-12
-3.400000000e-03	1.896424996e-01	-4.586437256e-04	1.557127411e-11
-3.500000000e-03	1.896425033e-01	-4.567154802e-04	7.607901482e-12
-3.600000000e-03	1.896425070e-01	-4.547872347e-04	2.952050977e-11
-3.700000000e-03	1.896425105e-01	-4.528589891e-04	1.295397497e-11
-3.800000000e-03	1.896425141e-01	-4.509307434e-04	1.133695059e-11
-3.900000000e-03	1.896425175e-01	-4.490024975e-04	7.674302810e-12
-4.000000000e-03	1.896425209e-01	-4.470742515e-04	1.514140419e-11
-4.100000000e-03	1.896425243e-01	-4.451460054e-04	6.467720790e-12
-4.200000000e-03	1.896425276e-01	-4.432177592e-04	3.162959390e-11
-4.300000000e-03	1.896425308e-01	-4.412895129e-04	7.458597420e-11
-4.400000000e-03	1.896425340e-01	-4.393612664e-04	2.459704272e-11
-4.500000000e-03	1.896425371e-01	-4.374330198e-04	1.017342304e-11
-4.600000000e-03	1.896425401e-01	-4.355047732e-04	6.849218523e-12
-4.700000000e-03	1.896425431e-01	-4.335765264e-04	1.803935864e-11
-4.800000000e-03	1.896425461e-01	-4.316482795e-04	1.077131742e-11
-4.900000000e-03	1.896425489e-01	-4.297200326e-04	5.383553646e-12
-5.000000000e-03	1.896425517e-01	-4.277917855e-04	7.695688812e-12
-5.100000000e-03	1.896425545e-01	-4.258635384e-04	1.101017121e-11
-5.200000000e-03	1.896425572e-01	-4.239352911e-04	1.570552791e-11
-5.300000000e-03	1.896425598e-01	-4.220070438e-04	9.690227338e-12
-5.400000000e-03	1.896425624e-01	-4.200787964e-04	2.291028472e-11
-5.500000000e-03	1.896425649e-01	-4.181505489e-04	8.286879702e-12
-5.600000000e-03	1.896425674e-01	-4.162223014e-04	8.701525240e-12
-5.700000000e-03	1.896425698e-01	-4.142940538e-04	8.468582958e-12
-5.800000000e-03	1.896425722e-01	-4.123658061e-04	3.264630088e-11
-5.900000000e-03	1.896425744e-01	-4.104375583e-04	1.188544937e-11
-6.000000000e-03	1.896425767e-01	-4.085093105e-04	1.675076077e-11
-6.100000000e-03	1.896425788e-01	-4.065810626e-04	4.795571762e-11
-6.200000000e-03	1.896425810e-01	-4.046528146e-04	1.774430418e-11
-6.300000000e-03	1.896425830e-01	-4.027245666e-04	1.482235653e-11
-6.400000000e-03	1.896425850e-01	-4.007963186e-04	1.832224763e-11
-6.500000000e-03	1.896425869e-01	-3.988680705e-04	1.611269744e-11
-6.600000000e-03	1.896425888e-01	-3.969398223e-04	4.837049378e-11
-6.700000000e-03	1.896425906e-01	-3.950115742e-04	1.267132559e-11
-6.800000000e-03	1.896425924e-01	-3.930833259e-04	1.011422101e-11
-6.900000000e-03	1.896425941e-01	-3.911550777e-04	1.056256243e-11
-7.000000000e-03	1.896425957e-01	-3.892268294e-04	1.228233737e-11
-7.100000000e-03	1.896425973e-01	-3.872985811e-04	1.167901548e-11
-7.200000000e-03	1.896425988e-01	-3.853703327e-04	1.306238061e-11
-7.300000000e-03	1.896426003e-01	-3.834420843e-04	7.391382117e-12
-7.400000000e-03	1.896426017e-01	-3.815138359e-04	7.693616332e-12
-7.500000000e-03	1.896426031e-01	-3.795855875e-04	1.182217096e-11
-7.600000000e-03	1.896426043e-01	-3.776573391e-04	1.423421729e-11
-7.700000000e-03	1.896426056e-01	-3.757290906e-04	8.991805780e-12
-7.800000000e-03	1.896426067e-01	-3.738008422e-04	1.481241149e-11
-7.900000000e-03	1.896426079e-01	-3.718725937e-04	1.384184046e-11
-8.000000000e-03	1.896426089e-01	-3.699443452e-04	1.670307241e-11
-8.100000000e-03	1.896426099e-01	-3.680160968e-04	8.366535654e-12
-8.200000000e-03	1.896426108e-01	-3.660878483e-04	8.732455155e-12
-8.300000000e-03	1.896426117e-01	-3.641595998e-04	7.778118434e-12
-8.400000000e-03	1.896426125e-01	-3.622313514e-04	3.127553534e-11
-8.500000000e-03	1.896426133e-01	-3.603031029e-04	1.207039597e-11
-8.600000000e-03	1.896426140e-01	-3.583748545e-04	1.095376743e-11
-8.700000000e-03	1.896426146e-01	-3.564466061e-04	5.654943748e-11
-8.800000000e-03	1.896426152e-01	-3.545183577e-04	8.283956527e-12
-8.900000000e-03	1.896426158e-01	-3.525901093e-04	1.489088168e-11
-9.000000000e-03	1.896426162e-01	-3.506618610e-04	1.480003735e-11
-9.100000000e-03	1.896426166e-01	-3.487336127e-04	2.425074823e-11
-9.200000000e-03	1.896426170e-01	-3.468053644e-04	1.326834812e-11
-9.300000000e-03	1.896426173e-01	-3.448771162e-04	1.063274321e-11
-9.400000000e-03	1.896426175e-01	-3.429488680e-04	1.193292562e-11
-9.500000000e-03	1.896426177e-01	-3.410206198e-04	1.175980019e-11
-9.600000000e-03	1.896426178e-01	-3.390923717e-04	6.982143935e-11
-9.700000000e-03	1.896426178e-01	-3.371641236e-04	7.588949732e-12
-9.800000000e-03	1.896426178e-01	-3.352358756e-04	6.806411080e-12
-9.900000000e-03	1.896426178e-01	-3.333076276e-04	1.461739955e-11
-1.000000000e-02	1.896426176e-01	-3.313793797e-04	7.411570024e-12
-1.010000000e-02	1.896426175e-01	-3.294511318e-04	1.008446006e-10
-1.020000000e-02	1.896426172e-01	-3.275228840e-04	1.667707611e-11
-1.030000000e-02	1.896426169e-01	-3.255946363e-04	1.165385715e-11
-1.040000000e-02	1.896426166e-01	-3.236663886e-04	7.298548328e-12
-1.050000000e-02	1.896426162e-01	-3.217381410e-04	1.300172210e-11
-1.060000000e-02	1.896426157e-01	-3.198098935e-04	1.855139529e-11
-1.070000000e-02	1.896426151e-01	-3.178816461e-04	3.075089605e-11
-1.080000000e-02	1.896426146e-01	-3.159533987e-04	1.193733775e-11
-1.090000000e-02	1.896426139e-01	-3.140251514e-04	2.897374774e-11
-1.100000000e-02	1.896426132e-01	-3.120969042e-04	2.185160727e-11
-1.110000000e-02	1.896426124e-01	-3.101686571e-04	1.028692059e-11
-1.120000000e-02	1.896426116e-01	-3.082404101e-04	1.074294491e-11
-1.130000000e-02	1.896426107e-01	-3.063121632e-04	1.458495535e-11
-1.140000000e-02	1.896426098e-01	-3.043839164e-04	1.027480672e-11
-1.150000000e-02	1.896426088e-01	-3.024556697e-04	1.103688910e-11
-1.160000000e-02	1.896426077e-01	-3.005274230e-04	2.224169498e-11
-1.170000000e-02	1.896426066e-01	-2.985991765e-04	5.498921150e-11
-1.180000000e-02	1.896426054e-01	-2.966709301e-04	2.993941858e-11
-1.190000000e-02	1.896426042e-01	-2.947426838e-04	8.729950797e-12
-1.200000000e-02	1.896426029e-01	-2.928144377e-04	1.489760981e-11
-1.210000000e-02	1.896426015e-01	-2.908861916e-04	1.010749097e-11
-1.220000000e-02	1.896426001e-01	-2.889579457e-04	2.362466676e-11
-1.230000000e-02	1.896425986e-01	-2.870296999e-04	9.872692225e-12
-1.240000000e-02	1.896425971e-01	-2.851014542e-04	2.067099352e-11
-1.250000000e-02	1.896425955e-01	-2.831732086e-04	9.160013437e-12
-1.260000000e-02	1.896425939e-01	-2.812449632e-04	1.048547029e-11
-1.270000000e-02	1.896425921e-01	-2.793167179e-04	2.331937650e-11
-1.280000000e-02	1.896425904e-01	-2.773884728e-04	9.681558203e-12
-1.290000000e-02	1.896425885e-01	-2.754602278e-04	1.469708000e-11
-1.300000000e-02	1.896425867e-01	-2.735319829e-04	1.813630358e-11
-1.310000000e-02	1.896425847e-01	-2.716037382e-04	1.161923231e-11
-1.320000000e-02	1.896425827e-01	-2.696754937e-04	1.219602354e-11
-1.330000000e-02	1.896425807e-01	-2.677472493e-04	2.032274502e-11
-1.340000000e-02	1.896425785e-01	-2.658190050e-04	4.059074793e-11
-1.350000000e-02	1.896425764e-01	-2.638907610e-04	1.575674651e-11
-1.360000000e-02	1.896425741e-01	-2.619625170e-04	1.066007812e-11
-1.370000000e-02	1.896425718e-01	-2.600342733e-04	1.877881793e-11
-1.380000000e-02	1.896425695e-01	-2.581060297e-04	5.123462045e-12
-1.390000000e-02	1.896425671e-01	-2.561777863e-04	9.078693177e-12
-1.400000000e-02	1.896425646e-01	-2.542495431e-04	1.082375127e-11
-1.410000000e-02	1.896425621e-01	-2.523213000e-04	1.884322507e-11
-1.420000000e-02	1.896425595e-01	-2.503930571e-04	1.206278353e-11
-1.430000000e-02	1.896425568e-01	-2.484648144e-04	1.036599570e-11
-1.440000000e-02	1.896425541e-01	-2.465365719e-04	1.322337130e-11
-1.450000000e-02	1.896425513e-01	-2.446083296e-04	6.425238696e-11
-1.460000000e-02	1.896425485e-01	-2.426800875e-04	9.405551926e-12
-1.470000000e-02	1.896425456e-01	-2.407518456e-04	1.047532849e-11
-1.480000000e-02	1.896425427e-01	-2.388236038e-04	2.683146405e-11
-1.490000000e-02	1.896425397e-01	-2.368953623e-04	6.333195932e-12
-1.500000000e-02	1.896425366e-01	-2.349671210e-04	5.519513568e-12
-1.510000000e-02	1.896425335e-01	-2.330388799e-04	4.642676163e-12
-1.520000000e-02	1.896425303e-01	-2.311106390e-04	3.194221597e-11
-1.530000000e-02	1.896425271e-01	-2.291823983e-04	8.277316486e-12
-1.540000000e-02	1.896425238e-01	-2.272541578e-04	9.331920859e-12
-1.550000000e-02	1.896425204e-01	-2.253259176e-04	1.412977135e-11
-1.560000000e-02	1.896425170e-01	-2.233976775e-04	9.461324211e-12
-1.570000000e-02	1.896425136e-01	-2.214694377e-04	1.539828327e-11
-1.580000000e-02	1.896425100e-01	-2.195411982e-04	1.497760737e-11
-1.590000000e-02	1.896425064e-01	-2.176129588e-04	8.444145987e-12
-1.600000000e-02	1.896425028e-01	-2.156847197e-04	9.015751333e-12
-1.610000000e-02	1.896424991e-01	-2.137564808e-04	3.145035614e-11
-1.620000000e-02	1.896424953e-01	-2.118282422e-04	1.402434858e-11
-1.630000000e-02	1.896424915e-01	-2.099000038e-04	1.252596518e-11
-1.640000000e-02	1.896424876e-01	-2.079717657e-04	1.838288514e-11
-1.650000000e-02	1.896424837e-01	-2.060435278e-04	1.729685334e-11
-1.660000000e-02	1.896424797e-01	-2.041152902e-04	9.332135165e-12
-1.670000000e-02	1.896424756e-01	-2.021870528e-04	2.469210532e-11
-1.680000000e-02	1.896424715e-01	-2.002588157e-04	1.865232476e-11
-1.690000000e-02	1.896424673e-01	-1.983305788e-04	1.534647570e-11
-1.700000000e-02	1.896424631e-01	-1.964023422e-04	1.061283416e-11
-1.710000000e-02	1.896424588e-01	-1.944741059e-04	2.747621740e-11
-1.720000000e-02	1.896424544e-01	-1.925458698e-04	9.449218033e-12
-1.730000000e-02	1.896424500e-01	-1.906176341e-04	1.140487049e-10
-1.740000000e-02	1.896424456e-01	-1.886893985e-04	7.424616824e-12
-1.750000000e-02	1.896424410e-01	-1.867611633e-04	1.479613257e-11
-1.760000000e-02	1.896424364e-01	-1.848329284e-04	1.175989363e-11
-1.770000000e-02	1.896424318e-01	-1.829046937e-04	7.664220445e-12
-1.780000000e-02	1.896424271e-01	-1.809764593e-04	1.003790512e-11
-1.790000000e-02	1.896424223e-01	-1.790482253e-04	1.061751143e-11
-1.800000000e-02	1.896424175e-01	-1.771199915e-04	1.907039052e-11
-1.810000000e-02	1.896424126e-01	-1.751917580e-04	2.050987730e-11
-1.820000000e-02	1.896424077e-01	-1.732635248e-04	1.349373200e-11
-1.830000000e-02	1.896424027e-01	-1.713352919e-04	4.758478570e-11
-1.840000000e-02	1.896423976e-01	-1.694070594e-04	9.268140589e-11
-1.850000000e-02	1.896423925e-01	-1.674788271e-04	1.495829178e-11
-1.860000000e-02	1.896423873e-01	-1.655505951e-04	7.737574529e-12
-1.870000000e-02	1.896423821e-01	-1.636223635e-04	1.066205603e-11
-1.880000000e-02	1.896423768e-01	-1.616941322e-04	2.094028255e-11
-1.890000000e-02	1.896423714e-01	-1.597659012e-04	1.158478601e-11
-1.900000000e-02	1.896423660e-01	-1.578376705e-04	9.799308617e-12
-1.910000000e-02	1.896423606e-01	-1.559094402e-04	1.115987640e-11
-1.920000000e-02	1.896423550e-01	-1.539812101e-04	2.008074728e-11
-1.930000000e-02	1.896423494e-01	-1.520529805e-04	1.269564696e-11
-1.940000000e-02	1.896423438e-01	-1.501247511e-04	8.194530713e-12
-1.950000000e-02	1.896423381e-01	-1.481965221e-04	7.075182427e-12
-1.960000000e-02	1.896423323e-01	-1.462682934e-04	2.004861228e-11
-1.970000000e-02	1.896423265e-01	-1.443400651e-04	5.549106732e-12
-1.980000000e-02	1.896423206e-01	-1.424118371e-04	4.001361781e-11
-1.990000000e-02	1.896423147e-01	-1.404836095e-04	2.388669608e-11
-2.000000000e-02	1.896423087e-01	-1.385553822e-04	1.964543061e-11
-2.010000000e-02	1.896423026e-01	-1.366271553e-04	7.074856901e-12
-2.020000000e-02	1.896422965e-01	-1.346989288e-04	5.238867251e-12
-2.030000000e-02	1.896422903e-01	-1.327707026e-04	1.367867556e-11
-2.040000000e-02	1.896422841e-01	-1.308424768e-04	1.119722502e-11
-2.050000000e-02	1.896422778e-01	-1.289142513e-04	1.175069435e-11
-2.060000000e-02	1.896422715e-01	-1.269860262e-04	5.290444915e-11
-2.070000000e-02	1.896422651e-01	-1.250578015e-04	1.924746416e-11
-2.080000000e-02	1.896422586e-01	-1.231295772e-04	1.926170812e-11
-2.090000000e-02	1.896422521e-01	-1.212013533e-04	1.450577457e-11
-2.100000000e-02	1.896422455e-01	-1.192731297e-04	1.279723662e-11
-2.110000000e-02	1.896422388e-01	-1.173449065e-04	5.865463003e-12
-2.120000000e-02	1.896422321e-01	-1.154166837e-04	3.671448619e-11
-2.130000000e-02	1.896422254e-01	-1.134884613e-04	8.285051069e-12
-2.140000000e-02	1.896422185e-01	-1.115602394e-04	5.436798700e-11
-2.150000000e-02	1.896422117e-01	-1.096320177e-04	2.734457429e-11
-2.160000000e-02	1.896422047e-01	-1.077037966e-04	1.891542479e-11
-2.170000000e-02	1.896421977e-01	-1.057755758e-04	1.386859135e-11
-2.180000000e-02	1.896421907e-01	-1.038473554e-04	2.757649346e-11
-2.190000000e-02	1.896421836e-01	-1.019191354e-04	3.319283218e-11
-2.200000000e-02	1.896421764e-01	-9.999091584e-05	1.251074657e-11
-2.210000000e-02	1.896421692e-01	-9.806269670e-05	1.161997405e-11
-2.220000000e-02	1.896421619e-01	-9.613447798e-05	1.400888793e-11
-2.230000000e-02	1.896421545e-01	-9.420625969e-05	4.024705156e-11
-2.240000000e-02	1.896421471e-01	-9.227804180e-05	9.756558599e-12
-2.250000000e-02	1.896421396e-01	-9.034982435e-05	2.944433626e-11
-2.260000000e-02	1.896421321e-01	-8.842160734e-05	1.447878190e-11
-2.270000000e-02	1.896421245e-01	-8.649339076e-05	1.057774938e-11
-2.280000000e-02	1.896421169e-01	-8.456517461e-05	2.940309198e-11
-2.290000000e-02	1.896421092e-01	-8.263695891e-05	3.255069828e-11
-2.300000000e-02	1.896421014e-01	-8.070874367e-05	1.853161193e-11
-2.310000000e-02	1.896420936e-01	-7.878052885e-05	1.809049337e-11
-2.320000000e-02	1.896420857e-01	-7.685231448e-05	4.488722090e-11
-2.330000000e-02	1.896420778e-01	-7.492410058e-05	2.479671631e-11
-2.340000000e-02	1.896420698e-01	-7.299588713e-05	2.594979613e-11
-2.350000000e-02	1.896420617e-01	-7.106767413e-05	1.446911784e-11
-2.360000000e-02	1.896420536e-01	-6.913946160e-05	2.792323824e-11
-2.370000000e-02	1.896420454e-01	-6.721124953e-05	1.922394216e-11
-2.380000000e-02	1.896420372e-01	-6.528303793e-05	5.892842102e-11
-2.390000000e-02	1.896420289e-01	-6.335482680e-05	9.885510617e-12
-2.400000000e-02	1.896420206e-01	-6.142661614e-05	1.154294372e-11
-2.410000000e-02	1.896420122e-01	-5.949840596e-05	6.909266453e-12
-2.420000000e-02	1.896420037e-01	-5.757019625e-05	1.388164093e-11
-2.430000000e-02	1.896419952e-01	-5.564198704e-05	7.198919150e-12
-2.440000000e-02	1.896419866e-01	-5.371377830e-05	1.448221335e-11
-2.450000000e-02	1.896419779e-01	-5.178557006e-05	1.198628869e-11
-2.460000000e-02	1.896419692e-01	-4.985736230e-05	8.181665276e-12
-2.470000000e-02	1.896419605e-01	-4.792915504e-05	1.637205022e-11
-2.480000000e-02	1.896419517e-01	-4.600094828e-05	1.228856872e-11
-2.490000000e-02	1.896419428e-01	-4.407274200e-05	7.094595640e-11
-2.500000000e-02	1.896419338e-01	-4.214453625e-05	7.219281796e-12
-2.510000000e-02	1.896419249e-01	-4.021633100e-05	7.267973220e-12
-2.520000000e-02	1.896419158e-01	-3.828812626e-05	3.158877971e-11
-2.530000000e-02	1.896419067e-01	-3.635992203e-05	1.863327488e-11
-2.540000000e-02	1.896418975e-01	-3.443171831e-05	2.314854567e-11
-2.550000000e-02	1.896418883e-01	-3.250351511e-05	9.616415334e-12
-2.560000000e-02	1.896418790e-01	-3.057531243e-05	2.275876616e-11
-2.570000000e-02	1.896418696e-01	-2.864711028e-05	1.367659555e-11
-2.580000000e-02	1.896418602e-01	-2.671890865e-05	1.359267302e-11
-2.590000000e-02	1.896418508e-01	-2.479070756e-05	1.345383162e-11
-2.600000000e-02	1.896418412e-01	-2.286250699e-05	2.526852377e-11
-2.610000000e-02	1.896418317e-01	-2.093430697e-05	1.848508604e-11
-2.620000000e-02	1.896418220e-01	-1.900610748e-05	9.854542543e-12
-2.630000000e-02	1.896418123e-01	-1.707790853e-05	8.390713489e-12
-2.640000000e-02	1.896418026e-01	-1.514971012e-05	2.971431936e-11
-2.650000000e-02	1.896417927e-01	-1.322151228e-05	8.186733410e-12
-2.660000000e-02	1.896417829e-01	-1.129331498e-05	1.222187107e-11
-2.670000000e-02	1.896417729e-01	-9.365118227e-06	9.376040902e-12
-2.680000000e-02	1.896417629e-01	-7.436922034e-06	1.397849625e-11
-2.690000000e-02	1.896417529e-01	-5.508726398e-06	4.092683139e-11
-2.700000000e-02	1.896417428e-01	-3.580531336e-06	9.084196303e-12
-2.710000000e-02	1.896417326e-01	-1.652336833e-06	8.765821814e-12
-2.720000000e-02	1.896417224e-01	2.758571006e-07	1.144828937e-11
-2.730000000e-02	1.896417121e-01	2.204050468e-06	1.532755274e-11
-2.740000000e-02	1.896417017e-01	4.132243251e-06	1.658202447e-11
-2.750000000e-02	1.896416913e-01	6.060435462e-06	5.723882186e-12
-2.760000000e-02	1.896416809e-01	7.988627064e-06	1.396341853e-10
-2.770000000e-02	1.896416703e-01	9.916818139e-06	1.331561309e-11
-2.780000000e-02	1.896416598e-01	1.184500860e-05	1.121890010e-11
-2.790000000e-02	1.896416491e-01	1.377319846e-05	7.103854285e-12
-2.800000000e-02	1.896416384e-01	1.570138774e-05	1.188734421e-11
-2.810000000e-02	1.896416277e-01	1.762957642e-05	1.201226062e-11
-2.820000000e-02	1.896416168e-01	1.955776450e-05	9.519945017e-12
-2.830000000e-02	1.896416060e-01	2.148595198e-05	6.100529278e-12
-2.840000000e-02	1.896415950e-01	2.341413886e-05	1.398146825e-11
-2.850000000e-02	1.896415840e-01	2.534232512e-05	1.613242467e-11
-2.860000000e-02	1.896415730e-01	2.727051078e-05	1.193601289e-11
-2.870000000e-02	1.896415619e-01	2.919869583e-05	1.044997085e-11
-2.880000000e-02	1.896415507e-01	3.112688025e-05	1.283434949e-11
-2.890000000e-02	1.896415395e-01	3.305506406e-05	1.521086040e-11
-2.900000000e-02	1.896415282e-01	3.498324724e-05	5.022585907e-12
-2.910000000e-02	1.896415168e-01	3.691142980e-05	8.995235623e-12
-2.920000000e-02	1.896415054e-01	3.883961173e-05	2.033697038e-11
-2.930000000e-02	1.896414940e-01	4.076779303e-05	9.931514446e-12
-2.940000000e-02	1.896414825e-01	4.269597369e-05	3.814921918e-11
-2.950000000e-02	1.896414709e-01	4.462415373e-05	1.171906335e-11
-2.960000000e-02	1.896414592e-01	4.655233316e-05	2.076881238e-10
-2.970000000e-02	1.896414475e-01	4.848051186e-05	1.096212472e-11
-2.980000000e-02	1.896414358e-01	5.040868995e-05	1.663144670e-11
-2.990000000e-02	1.896414240e-01	5.233686740e-05	1.155998021e-11
-3.000000000e-02	1.896414121e-01	5.426504420e-05	7.082063455e-12
