# Im(epsi1)     Re(omega/c)      Im(omega/c)      Eq(det).Opt det CON kz, R=0.5 \mum, mu_c=0.3, Re(epsi1)=3.90solve_det_conkz_vs_kz.py
0.000000000e+00	1.896435808e-01	-5.242075948e-04	7.382676055e-12
-1.000000000e-04	1.896435865e-01	-5.222793498e-04	2.417005314e-11
-2.000000000e-04	1.896435922e-01	-5.203511045e-04	2.188451745e-11
-3.000000000e-04	1.896435978e-01	-5.184228590e-04	1.596564591e-11
-4.000000000e-04	1.896436033e-01	-5.164946133e-04	1.307978771e-11
-5.000000000e-04	1.896436087e-01	-5.145663673e-04	3.940833068e-11
-6.000000000e-04	1.896436141e-01	-5.126381211e-04	1.194361376e-11
-7.000000000e-04	1.896436195e-01	-5.107098747e-04	1.002208302e-11
-8.000000000e-04	1.896436248e-01	-5.087816280e-04	1.027670809e-11
-9.000000000e-04	1.896436300e-01	-5.068533812e-04	6.020234302e-12
-1.000000000e-03	1.896436352e-01	-5.049251341e-04	1.867426110e-11
-1.100000000e-03	1.896436403e-01	-5.029968868e-04	1.003897902e-11
-1.200000000e-03	1.896436453e-01	-5.010686393e-04	5.950207282e-12
-1.300000000e-03	1.896436503e-01	-4.991403916e-04	5.366439480e-12
-1.400000000e-03	1.896436552e-01	-4.972121438e-04	1.270175461e-11
-1.500000000e-03	1.896436601e-01	-4.952838957e-04	9.846892615e-12
-1.600000000e-03	1.896436649e-01	-4.933556474e-04	3.573812047e-11
-1.700000000e-03	1.896436697e-01	-4.914273989e-04	1.544159760e-11
-1.800000000e-03	1.896436744e-01	-4.894991503e-04	1.620932788e-11
-1.900000000e-03	1.896436790e-01	-4.875709014e-04	7.432550635e-12
-2.000000000e-03	1.896436836e-01	-4.856426524e-04	5.306499345e-11
-2.100000000e-03	1.896436881e-01	-4.837144032e-04	1.537245429e-11
-2.200000000e-03	1.896436926e-01	-4.817861538e-04	2.690966976e-11
-2.300000000e-03	1.896436970e-01	-4.798579042e-04	1.326583200e-11
-2.400000000e-03	1.896437013e-01	-4.779296545e-04	1.098020808e-11
-2.500000000e-03	1.896437056e-01	-4.760014046e-04	9.094123436e-12
-2.600000000e-03	1.896437098e-01	-4.740731545e-04	3.481503006e-11
-2.700000000e-03	1.896437140e-01	-4.721449043e-04	7.034558397e-12
-2.800000000e-03	1.896437181e-01	-4.702166539e-04	1.788538597e-10
-2.900000000e-03	1.896437222e-01	-4.682884034e-04	8.502151164e-12
-3.000000000e-03	1.896437262e-01	-4.663601527e-04	2.782623647e-11
-3.100000000e-03	1.896437301e-01	-4.644319019e-04	1.300402027e-11
-3.200000000e-03	1.896437340e-01	-4.625036509e-04	1.897316299e-11
-3.300000000e-03	1.896437378e-01	-4.605753997e-04	1.178665051e-11
-3.400000000e-03	1.896437415e-01	-4.586471485e-04	1.323845654e-11
-3.500000000e-03	1.896437452e-01	-4.567188971e-04	7.891214645e-12
-3.600000000e-03	1.896437489e-01	-4.547906455e-04	1.263394069e-11
-3.700000000e-03	1.896437525e-01	-4.528623938e-04	1.355733731e-11
-3.800000000e-03	1.896437560e-01	-4.509341420e-04	6.461679068e-12
-3.900000000e-03	1.896437594e-01	-4.490058901e-04	5.823974349e-12
-4.000000000e-03	1.896437629e-01	-4.470776380e-04	1.997531546e-11
-4.100000000e-03	1.896437662e-01	-4.451493859e-04	6.197275057e-12
-4.200000000e-03	1.896437695e-01	-4.432211336e-04	2.619548081e-11
-4.300000000e-03	1.896437727e-01	-4.412928811e-04	1.278222393e-11
-4.400000000e-03	1.896437759e-01	-4.393646287e-04	1.645930929e-10
-4.500000000e-03	1.896437790e-01	-4.374363760e-04	1.235324960e-11
-4.600000000e-03	1.896437820e-01	-4.355081233e-04	7.510610634e-12
-4.700000000e-03	1.896437850e-01	-4.335798704e-04	5.909063349e-12
-4.800000000e-03	1.896437880e-01	-4.316516175e-04	2.180880656e-11
-4.900000000e-03	1.896437908e-01	-4.297233645e-04	2.067831585e-11
-5.000000000e-03	1.896437937e-01	-4.277951114e-04	2.689978777e-11
-5.100000000e-03	1.896437964e-01	-4.258668581e-04	6.200944335e-11
-5.200000000e-03	1.896437991e-01	-4.239386048e-04	1.520808977e-11
-5.300000000e-03	1.896438018e-01	-4.220103514e-04	7.094184677e-12
-5.400000000e-03	1.896438043e-01	-4.200820980e-04	1.283271203e-11
-5.500000000e-03	1.896438069e-01	-4.181538444e-04	1.061468025e-11
-5.600000000e-03	1.896438093e-01	-4.162255908e-04	2.580517414e-11
-5.700000000e-03	1.896438117e-01	-4.142973371e-04	9.460664711e-11
-5.800000000e-03	1.896438141e-01	-4.123690834e-04	1.788734269e-11
-5.900000000e-03	1.896438164e-01	-4.104408295e-04	2.505357808e-11
-6.000000000e-03	1.896438186e-01	-4.085125756e-04	8.322769031e-12
-6.100000000e-03	1.896438208e-01	-4.065843217e-04	6.313996666e-12
-6.200000000e-03	1.896438229e-01	-4.046560677e-04	1.283191548e-11
-6.300000000e-03	1.896438249e-01	-4.027278136e-04	2.668523072e-11
-6.400000000e-03	1.896438269e-01	-4.007995595e-04	1.027873933e-11
-6.500000000e-03	1.896438289e-01	-3.988713053e-04	5.782219662e-11
-6.600000000e-03	1.896438307e-01	-3.969430511e-04	8.350863739e-12
-6.700000000e-03	1.896438326e-01	-3.950147969e-04	1.573171508e-11
-6.800000000e-03	1.896438343e-01	-3.930865426e-04	1.255164339e-11
-6.900000000e-03	1.896438360e-01	-3.911582882e-04	1.290461281e-11
-7.000000000e-03	1.896438377e-01	-3.892300339e-04	1.769580615e-11
-7.100000000e-03	1.896438392e-01	-3.873017795e-04	2.769918607e-11
-7.200000000e-03	1.896438408e-01	-3.853735251e-04	1.527061225e-11
-7.300000000e-03	1.896438422e-01	-3.834452706e-04	3.023664137e-11
-7.400000000e-03	1.896438436e-01	-3.815170162e-04	4.924337205e-12
-7.500000000e-03	1.896438450e-01	-3.795887617e-04	2.184352591e-11
-7.600000000e-03	1.896438463e-01	-3.776605072e-04	1.676426525e-11
-7.700000000e-03	1.896438475e-01	-3.757322527e-04	2.568192197e-11
-7.800000000e-03	1.896438487e-01	-3.738039981e-04	1.538059439e-11
-7.900000000e-03	1.896438498e-01	-3.718757436e-04	1.190669689e-11
-8.000000000e-03	1.896438508e-01	-3.699474891e-04	1.387088204e-11
-8.100000000e-03	1.896438518e-01	-3.680192345e-04	7.752627822e-12
-8.200000000e-03	1.896438528e-01	-3.660909800e-04	5.343220257e-11
-8.300000000e-03	1.896438536e-01	-3.641627255e-04	1.314466348e-11
-8.400000000e-03	1.896438545e-01	-3.622344710e-04	1.191484915e-11
-8.500000000e-03	1.896438552e-01	-3.603062164e-04	9.429233689e-12
-8.600000000e-03	1.896438559e-01	-3.583779619e-04	1.641578449e-11
-8.700000000e-03	1.896438566e-01	-3.564497075e-04	1.408656695e-11
-8.800000000e-03	1.896438571e-01	-3.545214530e-04	4.617957225e-11
-8.900000000e-03	1.896438577e-01	-3.525931986e-04	1.414757999e-11
-9.000000000e-03	1.896438581e-01	-3.506649442e-04	2.639073742e-11
-9.100000000e-03	1.896438585e-01	-3.487366898e-04	2.888787468e-11
-9.200000000e-03	1.896438589e-01	-3.468084354e-04	1.387341798e-11
-9.300000000e-03	1.896438592e-01	-3.448801811e-04	3.332719696e-11
-9.400000000e-03	1.896438594e-01	-3.429519268e-04	4.888346134e-11
-9.500000000e-03	1.896438596e-01	-3.410236726e-04	1.494481418e-11
-9.600000000e-03	1.896438597e-01	-3.390954184e-04	2.012691327e-11
-9.700000000e-03	1.896438598e-01	-3.371671643e-04	1.316829132e-11
-9.800000000e-03	1.896438598e-01	-3.352389102e-04	2.362906945e-11
-9.900000000e-03	1.896438597e-01	-3.333106562e-04	1.101296451e-11
-1.000000000e-02	1.896438596e-01	-3.313824022e-04	1.577363378e-11
-1.010000000e-02	1.896438594e-01	-3.294541483e-04	1.317165127e-10
-1.020000000e-02	1.896438591e-01	-3.275258944e-04	6.005274066e-12
-1.030000000e-02	1.896438588e-01	-3.255976406e-04	1.072028371e-11
-1.040000000e-02	1.896438585e-01	-3.236693869e-04	2.262880026e-11
-1.050000000e-02	1.896438581e-01	-3.217411332e-04	3.605924619e-11
-1.060000000e-02	1.896438576e-01	-3.198128796e-04	1.030242166e-11
-1.070000000e-02	1.896438571e-01	-3.178846261e-04	1.392596848e-11
-1.080000000e-02	1.896438565e-01	-3.159563727e-04	1.035012223e-11
-1.090000000e-02	1.896438558e-01	-3.140281193e-04	1.549352328e-11
-1.100000000e-02	1.896438551e-01	-3.120998661e-04	1.094714246e-11
-1.110000000e-02	1.896438543e-01	-3.101716129e-04	1.148832254e-11
-1.120000000e-02	1.896438535e-01	-3.082433598e-04	1.184930876e-11
-1.130000000e-02	1.896438526e-01	-3.063151068e-04	5.348321509e-12
-1.140000000e-02	1.896438517e-01	-3.043868539e-04	9.342953862e-12
-1.150000000e-02	1.896438507e-01	-3.024586012e-04	8.274330739e-12
-1.160000000e-02	1.896438496e-01	-3.005303485e-04	3.160916039e-11
-1.170000000e-02	1.896438485e-01	-2.986020959e-04	1.813627478e-11
-1.180000000e-02	1.896438473e-01	-2.966738434e-04	4.953327731e-11
-1.190000000e-02	1.896438461e-01	-2.947455911e-04	1.366267384e-11
-1.200000000e-02	1.896438448e-01	-2.928173388e-04	1.337539134e-11
-1.210000000e-02	1.896438434e-01	-2.908890867e-04	9.724416839e-12
-1.220000000e-02	1.896438420e-01	-2.889608347e-04	7.562755052e-12
-1.230000000e-02	1.896438405e-01	-2.870325828e-04	1.131052599e-11
-1.240000000e-02	1.896438390e-01	-2.851043311e-04	1.001809080e-11
-1.250000000e-02	1.896438374e-01	-2.831760795e-04	2.214994416e-11
-1.260000000e-02	1.896438358e-01	-2.812478280e-04	1.337055083e-11
-1.270000000e-02	1.896438341e-01	-2.793195766e-04	8.575070774e-12
-1.280000000e-02	1.896438323e-01	-2.773913254e-04	2.610400671e-11
-1.290000000e-02	1.896438305e-01	-2.754630744e-04	2.249942044e-11
-1.300000000e-02	1.896438286e-01	-2.735348234e-04	1.945044804e-11
-1.310000000e-02	1.896438266e-01	-2.716065727e-04	8.386542068e-12
-1.320000000e-02	1.896438246e-01	-2.696783220e-04	1.352034999e-11
-1.330000000e-02	1.896438226e-01	-2.677500716e-04	6.015012208e-11
-1.340000000e-02	1.896438205e-01	-2.658218213e-04	1.683284398e-11
-1.350000000e-02	1.896438183e-01	-2.638935711e-04	4.280405141e-12
-1.360000000e-02	1.896438160e-01	-2.619653211e-04	5.563826951e-11
-1.370000000e-02	1.896438137e-01	-2.600370713e-04	7.575129103e-12
-1.380000000e-02	1.896438114e-01	-2.581088217e-04	9.482645858e-12
-1.390000000e-02	1.896438090e-01	-2.561805722e-04	3.921002779e-12
-1.400000000e-02	1.896438065e-01	-2.542523229e-04	1.130185942e-11
-1.410000000e-02	1.896438040e-01	-2.523240738e-04	1.902514923e-11
-1.420000000e-02	1.896438014e-01	-2.503958248e-04	2.295688157e-11
-1.430000000e-02	1.896437987e-01	-2.484675761e-04	1.584108226e-11
-1.440000000e-02	1.896437960e-01	-2.465393275e-04	2.851374973e-11
-1.450000000e-02	1.896437933e-01	-2.446110791e-04	1.374061280e-11
-1.460000000e-02	1.896437904e-01	-2.426828309e-04	1.510086601e-11
-1.470000000e-02	1.896437876e-01	-2.407545829e-04	2.608468842e-11
-1.480000000e-02	1.896437846e-01	-2.388263351e-04	2.762752033e-11
-1.490000000e-02	1.896437816e-01	-2.368980875e-04	2.097758378e-11
-1.500000000e-02	1.896437786e-01	-2.349698401e-04	1.438657355e-11
-1.510000000e-02	1.896437754e-01	-2.330415930e-04	1.051247813e-11
-1.520000000e-02	1.896437723e-01	-2.311133460e-04	1.412522666e-11
-1.530000000e-02	1.896437690e-01	-2.291850992e-04	1.213464552e-11
-1.540000000e-02	1.896437657e-01	-2.272568527e-04	1.134701047e-11
-1.550000000e-02	1.896437624e-01	-2.253286064e-04	1.465215647e-11
-1.560000000e-02	1.896437590e-01	-2.234003603e-04	2.183618693e-11
-1.570000000e-02	1.896437555e-01	-2.214721144e-04	6.585960361e-12
-1.580000000e-02	1.896437520e-01	-2.195438688e-04	1.407003450e-11
-1.590000000e-02	1.896437484e-01	-2.176156234e-04	1.289232480e-11
-1.600000000e-02	1.896437447e-01	-2.156873782e-04	1.183155933e-11
-1.610000000e-02	1.896437410e-01	-2.137591333e-04	9.334327098e-12
-1.620000000e-02	1.896437372e-01	-2.118308886e-04	1.731099770e-11
-1.630000000e-02	1.896437334e-01	-2.099026441e-04	1.686430182e-11
-1.640000000e-02	1.896437295e-01	-2.079743999e-04	1.450901688e-11
-1.650000000e-02	1.896437256e-01	-2.060461560e-04	8.999700032e-12
-1.660000000e-02	1.896437216e-01	-2.041179123e-04	1.099869561e-11
-1.670000000e-02	1.896437175e-01	-2.021896688e-04	4.006730821e-11
-1.680000000e-02	1.896437134e-01	-2.002614256e-04	1.059673587e-10
-1.690000000e-02	1.896437092e-01	-1.983331827e-04	1.499967099e-11
-1.700000000e-02	1.896437050e-01	-1.964049400e-04	1.654499136e-11
-1.710000000e-02	1.896437007e-01	-1.944766976e-04	5.978792676e-12
-1.720000000e-02	1.896436964e-01	-1.925484555e-04	1.248875575e-11
-1.730000000e-02	1.896436920e-01	-1.906202137e-04	1.499388891e-11
-1.740000000e-02	1.896436875e-01	-1.886919721e-04	7.485285578e-12
-1.750000000e-02	1.896436830e-01	-1.867637308e-04	1.513932076e-11
-1.760000000e-02	1.896436784e-01	-1.848354898e-04	1.153815701e-11
-1.770000000e-02	1.896436737e-01	-1.829072491e-04	3.267532550e-11
-1.780000000e-02	1.896436690e-01	-1.809790086e-04	1.028796593e-11
-1.790000000e-02	1.896436642e-01	-1.790507685e-04	2.941605954e-11
-1.800000000e-02	1.896436594e-01	-1.771225286e-04	1.761423633e-11
-1.810000000e-02	1.896436545e-01	-1.751942891e-04	1.311207504e-11
-1.820000000e-02	1.896436496e-01	-1.732660498e-04	1.852969515e-11
-1.830000000e-02	1.896436446e-01	-1.713378109e-04	1.117269812e-11
-1.840000000e-02	1.896436395e-01	-1.694095722e-04	3.616915709e-11
-1.850000000e-02	1.896436344e-01	-1.674813339e-04	1.091998267e-11
-1.860000000e-02	1.896436293e-01	-1.655530959e-04	1.061871156e-11
-1.870000000e-02	1.896436240e-01	-1.636248582e-04	1.044250251e-11
-1.880000000e-02	1.896436187e-01	-1.616966208e-04	1.032490383e-11
-1.890000000e-02	1.896436134e-01	-1.597683837e-04	1.901217500e-11
-1.900000000e-02	1.896436080e-01	-1.578401470e-04	9.809176333e-12
-1.910000000e-02	1.896436025e-01	-1.559119106e-04	2.514244621e-11
-1.920000000e-02	1.896435970e-01	-1.539836745e-04	1.020399684e-11
-1.930000000e-02	1.896435914e-01	-1.520554387e-04	8.271336074e-12
-1.940000000e-02	1.896435857e-01	-1.501272033e-04	1.297027116e-11
-1.950000000e-02	1.896435800e-01	-1.481989682e-04	6.856687437e-12
-1.960000000e-02	1.896435743e-01	-1.462707335e-04	8.062672619e-12
-1.970000000e-02	1.896435684e-01	-1.443424991e-04	1.410587566e-11
-1.980000000e-02	1.896435626e-01	-1.424142651e-04	1.069835828e-11
-1.990000000e-02	1.896435566e-01	-1.404860314e-04	2.400827942e-11
-2.000000000e-02	1.896435506e-01	-1.385577981e-04	9.522105472e-12
-2.010000000e-02	1.896435446e-01	-1.366295651e-04	7.804138590e-12
-2.020000000e-02	1.896435384e-01	-1.347013325e-04	1.006092245e-11
-2.030000000e-02	1.896435323e-01	-1.327731002e-04	1.153653810e-11
-2.040000000e-02	1.896435260e-01	-1.308448683e-04	1.139582731e-11
-2.050000000e-02	1.896435197e-01	-1.289166368e-04	1.501168949e-11
-2.060000000e-02	1.896435134e-01	-1.269884057e-04	3.877686979e-11
-2.070000000e-02	1.896435070e-01	-1.250601749e-04	1.336557891e-11
-2.080000000e-02	1.896435005e-01	-1.231319445e-04	8.036471129e-12
-2.090000000e-02	1.896434940e-01	-1.212037145e-04	1.163580352e-11
-2.100000000e-02	1.896434874e-01	-1.192754848e-04	9.825930892e-12
-2.110000000e-02	1.896434808e-01	-1.173472556e-04	1.599335521e-11
-2.120000000e-02	1.896434741e-01	-1.154190267e-04	1.987326191e-11
-2.130000000e-02	1.896434673e-01	-1.134907983e-04	1.507102921e-11
-2.140000000e-02	1.896434605e-01	-1.115625702e-04	3.910017948e-11
-2.150000000e-02	1.896434536e-01	-1.096343425e-04	1.294738558e-11
-2.160000000e-02	1.896434467e-01	-1.077061153e-04	1.482638640e-11
-2.170000000e-02	1.896434397e-01	-1.057778884e-04	8.455006555e-12
-2.180000000e-02	1.896434326e-01	-1.038496620e-04	1.119526262e-11
-2.190000000e-02	1.896434255e-01	-1.019214359e-04	8.321113583e-12
-2.200000000e-02	1.896434183e-01	-9.999321031e-05	7.227884193e-12
-2.210000000e-02	1.896434111e-01	-9.806498510e-05	1.116489022e-11
-2.220000000e-02	1.896434038e-01	-9.613676031e-05	9.084661472e-12
-2.230000000e-02	1.896433964e-01	-9.420853594e-05	1.906248102e-11
-2.240000000e-02	1.896433890e-01	-9.228031200e-05	1.149219712e-11
-2.250000000e-02	1.896433816e-01	-9.035208849e-05	9.754069377e-12
-2.260000000e-02	1.896433740e-01	-8.842386540e-05	5.442715685e-11
-2.270000000e-02	1.896433665e-01	-8.649564276e-05	7.763484547e-12
-2.280000000e-02	1.896433588e-01	-8.456742057e-05	7.481592270e-11
-2.290000000e-02	1.896433511e-01	-8.263919878e-05	3.169844493e-11
-2.300000000e-02	1.896433433e-01	-8.071097746e-05	2.238686869e-11
-2.310000000e-02	1.896433355e-01	-7.878275658e-05	6.642561051e-12
-2.320000000e-02	1.896433276e-01	-7.685453615e-05	1.037329700e-11
-2.330000000e-02	1.896433197e-01	-7.492631617e-05	4.319494007e-11
-2.340000000e-02	1.896433117e-01	-7.299809666e-05	8.622652475e-12
-2.350000000e-02	1.896433037e-01	-7.106987760e-05	6.515419175e-11
-2.360000000e-02	1.896432955e-01	-6.914165899e-05	2.473223188e-11
-2.370000000e-02	1.896432874e-01	-6.721344086e-05	1.044171380e-11
-2.380000000e-02	1.896432791e-01	-6.528522318e-05	1.330490583e-11
-2.390000000e-02	1.896432708e-01	-6.335700599e-05	1.031639975e-11
-2.400000000e-02	1.896432625e-01	-6.142878926e-05	1.390648743e-11
-2.410000000e-02	1.896432541e-01	-5.950057301e-05	6.980209788e-12
-2.420000000e-02	1.896432456e-01	-5.757235725e-05	2.188513422e-11
-2.430000000e-02	1.896432371e-01	-5.564414196e-05	9.993245125e-12
-2.440000000e-02	1.896432285e-01	-5.371592715e-05	9.717655679e-11
-2.450000000e-02	1.896432199e-01	-5.178771285e-05	1.914185144e-11
-2.460000000e-02	1.896432112e-01	-4.985949902e-05	1.262706345e-11
-2.470000000e-02	1.896432024e-01	-4.793128570e-05	1.339076796e-11
-2.480000000e-02	1.896431936e-01	-4.600307286e-05	1.510784883e-11
-2.490000000e-02	1.896431847e-01	-4.407486054e-05	3.405241545e-11
-2.500000000e-02	1.896431758e-01	-4.214664872e-05	4.677264608e-11
-2.510000000e-02	1.896431668e-01	-4.021843739e-05	2.479278421e-11
-2.520000000e-02	1.896431577e-01	-3.829022658e-05	9.755148396e-12
-2.530000000e-02	1.896431486e-01	-3.636201628e-05	1.729266251e-11
-2.540000000e-02	1.896431394e-01	-3.443380649e-05	1.378989854e-11
-2.550000000e-02	1.896431302e-01	-3.250559723e-05	2.844572298e-11
-2.560000000e-02	1.896431209e-01	-3.057738848e-05	9.745285847e-12
-2.570000000e-02	1.896431116e-01	-2.864918025e-05	2.597778290e-11
-2.580000000e-02	1.896431022e-01	-2.672097257e-05	1.388381155e-11
-2.590000000e-02	1.896430927e-01	-2.479276540e-05	8.279840176e-12
-2.600000000e-02	1.896430832e-01	-2.286455877e-05	1.754874295e-11
-2.610000000e-02	1.896430736e-01	-2.093635268e-05	1.683147533e-11
-2.620000000e-02	1.896430640e-01	-1.900814712e-05	1.559149849e-11
-2.630000000e-02	1.896430543e-01	-1.707994211e-05	1.062329515e-11
-2.640000000e-02	1.896430445e-01	-1.515173764e-05	7.798884378e-12
-2.650000000e-02	1.896430347e-01	-1.322353371e-05	2.750508512e-11
-2.660000000e-02	1.896430248e-01	-1.129533035e-05	1.112187245e-11
-2.670000000e-02	1.896430149e-01	-9.367127532e-06	8.091515138e-12
-2.680000000e-02	1.896430049e-01	-7.438925273e-06	1.167691014e-11
-2.690000000e-02	1.896429948e-01	-5.510723577e-06	5.944388557e-12
-2.700000000e-02	1.896429847e-01	-3.582522441e-06	6.543083816e-12
-2.710000000e-02	1.896429745e-01	-1.654321868e-06	1.307070935e-11
-2.720000000e-02	1.896429643e-01	2.738781382e-07	7.314294459e-11
-2.730000000e-02	1.896429540e-01	2.202077570e-06	4.957898611e-11
-2.740000000e-02	1.896429437e-01	4.130276414e-06	3.990010653e-11
-2.750000000e-02	1.896429333e-01	6.058474691e-06	1.424236520e-11
-2.760000000e-02	1.896429228e-01	7.986672431e-06	2.049316423e-10
-2.770000000e-02	1.896429123e-01	9.914869519e-06	8.063323268e-11
-2.780000000e-02	1.896429017e-01	1.184306603e-05	1.717646783e-11
-2.790000000e-02	1.896428911e-01	1.377126196e-05	1.222633389e-11
-2.800000000e-02	1.896428804e-01	1.569945730e-05	1.122824673e-11
-2.810000000e-02	1.896428696e-01	1.762765206e-05	1.312576222e-11
-2.820000000e-02	1.896428588e-01	1.955584620e-05	6.217873029e-12
-2.830000000e-02	1.896428479e-01	2.148403975e-05	2.002359823e-11
-2.840000000e-02	1.896428370e-01	2.341223269e-05	6.996588382e-12
-2.850000000e-02	1.896428260e-01	2.534042503e-05	2.097524119e-11
-2.860000000e-02	1.896428149e-01	2.726861676e-05	9.465124819e-12
-2.870000000e-02	1.896428038e-01	2.919680786e-05	8.951173480e-12
-2.880000000e-02	1.896427926e-01	3.112499836e-05	1.313787030e-11
-2.890000000e-02	1.896427814e-01	3.305318824e-05	4.803258919e-12
-2.900000000e-02	1.896427701e-01	3.498137749e-05	7.864301257e-12
-2.910000000e-02	1.896427588e-01	3.690956611e-05	6.636739009e-12
-2.920000000e-02	1.896427474e-01	3.883775411e-05	1.130647262e-11
-2.930000000e-02	1.896427359e-01	4.076594148e-05	1.153242198e-11
-2.940000000e-02	1.896427244e-01	4.269412821e-05	5.863680460e-12
-2.950000000e-02	1.896427128e-01	4.462231430e-05	3.332802033e-11
-2.960000000e-02	1.896427012e-01	4.655049976e-05	1.302936662e-11
-2.970000000e-02	1.896426895e-01	4.847868457e-05	1.887654887e-11
-2.980000000e-02	1.896426777e-01	5.040686874e-05	1.546366264e-11
-2.990000000e-02	1.896426659e-01	5.233505226e-05	7.609837651e-12
-3.000000000e-02	1.896426540e-01	5.426323512e-05	3.479515619e-11
