# Im(epsi1)     Re(omega/c)      Im(omega/c)      Eq(det).Opt det CON kz, R=0.5 \mum, mu_c=0.3, Re(epsi1)=3.90solve_det_conkz_vs_kz.py
0.000000000e+00	1.896424048e-01	-5.242041600e-04	7.703615356e-12
-1.000000000e-04	1.896424105e-01	-5.222759207e-04	1.136481957e-11
-2.000000000e-04	1.896424161e-01	-5.203476811e-04	1.266258310e-11
-3.000000000e-04	1.896424217e-01	-5.184194414e-04	1.360223329e-11
-4.000000000e-04	1.896424272e-01	-5.164912014e-04	9.761115712e-12
-5.000000000e-04	1.896424327e-01	-5.145629611e-04	3.026806411e-11
-6.000000000e-04	1.896424381e-01	-5.126347207e-04	7.760936224e-12
-7.000000000e-04	1.896424434e-01	-5.107064800e-04	2.316109040e-11
-8.000000000e-04	1.896424487e-01	-5.087782391e-04	1.095136622e-11
-9.000000000e-04	1.896424539e-01	-5.068499980e-04	1.685296811e-11
-1.000000000e-03	1.896424591e-01	-5.049217567e-04	3.904921516e-11
-1.100000000e-03	1.896424642e-01	-5.029935151e-04	6.183913849e-12
-1.200000000e-03	1.896424693e-01	-5.010652734e-04	5.957781694e-12
-1.300000000e-03	1.896424743e-01	-4.991370315e-04	6.921182607e-11
-1.400000000e-03	1.896424792e-01	-4.972087893e-04	1.241725685e-11
-1.500000000e-03	1.896424841e-01	-4.952805470e-04	3.731870638e-11
-1.600000000e-03	1.896424889e-01	-4.933523044e-04	6.536804783e-12
-1.700000000e-03	1.896424936e-01	-4.914240617e-04	1.777601646e-11
-1.800000000e-03	1.896424983e-01	-4.894958188e-04	8.112545141e-12
-1.900000000e-03	1.896425030e-01	-4.875675757e-04	1.097714242e-11
-2.000000000e-03	1.896425075e-01	-4.856393324e-04	8.107600334e-12
-2.100000000e-03	1.896425121e-01	-4.837110889e-04	5.722504586e-11
-2.200000000e-03	1.896425165e-01	-4.817828453e-04	1.178878534e-11
-2.300000000e-03	1.896425209e-01	-4.798546015e-04	1.775352129e-11
-2.400000000e-03	1.896425253e-01	-4.779263575e-04	7.518757859e-12
-2.500000000e-03	1.896425296e-01	-4.759981134e-04	1.625494558e-11
-2.600000000e-03	1.896425338e-01	-4.740698690e-04	1.377817746e-11
-2.700000000e-03	1.896425380e-01	-4.721416246e-04	1.546896856e-11
-2.800000000e-03	1.896425421e-01	-4.702133799e-04	1.509173658e-11
-2.900000000e-03	1.896425461e-01	-4.682851351e-04	2.646604079e-11
-3.000000000e-03	1.896425501e-01	-4.663568902e-04	1.742261048e-11
-3.100000000e-03	1.896425540e-01	-4.644286451e-04	2.361457422e-11
-3.200000000e-03	1.896425579e-01	-4.625003998e-04	1.526422516e-11
-3.300000000e-03	1.896425617e-01	-4.605721544e-04	8.610187076e-12
-3.400000000e-03	1.896425655e-01	-4.586439089e-04	1.000039261e-11
-3.500000000e-03	1.896425692e-01	-4.567156633e-04	1.154096006e-11
-3.600000000e-03	1.896425728e-01	-4.547874175e-04	1.069589928e-11
-3.700000000e-03	1.896425764e-01	-4.528591715e-04	1.136198081e-11
-3.800000000e-03	1.896425799e-01	-4.509309255e-04	7.751793046e-12
-3.900000000e-03	1.896425834e-01	-4.490026793e-04	4.059649161e-11
-4.000000000e-03	1.896425868e-01	-4.470744330e-04	2.706547211e-11
-4.100000000e-03	1.896425901e-01	-4.451461866e-04	1.643673270e-10
-4.200000000e-03	1.896425934e-01	-4.432179400e-04	1.596639682e-11
-4.300000000e-03	1.896425967e-01	-4.412896933e-04	5.015869331e-12
-4.400000000e-03	1.896425998e-01	-4.393614465e-04	1.158955554e-11
-4.500000000e-03	1.896426029e-01	-4.374331996e-04	3.602811867e-11
-4.600000000e-03	1.896426060e-01	-4.355049527e-04	2.473510628e-11
-4.700000000e-03	1.896426090e-01	-4.335767056e-04	3.930697489e-11
-4.800000000e-03	1.896426119e-01	-4.316484584e-04	1.229368344e-11
-4.900000000e-03	1.896426148e-01	-4.297202111e-04	1.059022238e-11
-5.000000000e-03	1.896426176e-01	-4.277919637e-04	2.200762218e-11
-5.100000000e-03	1.896426204e-01	-4.258637163e-04	1.007069852e-11
-5.200000000e-03	1.896426231e-01	-4.239354687e-04	2.214170710e-10
-5.300000000e-03	1.896426257e-01	-4.220072211e-04	1.398938471e-11
-5.400000000e-03	1.896426283e-01	-4.200789733e-04	9.740892941e-12
-5.500000000e-03	1.896426308e-01	-4.181507255e-04	2.637151051e-11
-5.600000000e-03	1.896426333e-01	-4.162224777e-04	1.734848495e-11
-5.700000000e-03	1.896426357e-01	-4.142942297e-04	1.053322204e-11
-5.800000000e-03	1.896426380e-01	-4.123659817e-04	8.027426473e-12
-5.900000000e-03	1.896426403e-01	-4.104377336e-04	1.817955743e-11
-6.000000000e-03	1.896426425e-01	-4.085094855e-04	1.608843991e-11
-6.100000000e-03	1.896426447e-01	-4.065812373e-04	2.425024037e-11
-6.200000000e-03	1.896426468e-01	-4.046529890e-04	7.101922607e-12
-6.300000000e-03	1.896426489e-01	-4.027247407e-04	1.854584477e-11
-6.400000000e-03	1.896426509e-01	-4.007964923e-04	2.013467532e-11
-6.500000000e-03	1.896426528e-01	-3.988682439e-04	2.995274306e-11
-6.600000000e-03	1.896426547e-01	-3.969399954e-04	1.658511060e-11
-6.700000000e-03	1.896426565e-01	-3.950117469e-04	7.885006847e-11
-6.800000000e-03	1.896426583e-01	-3.930834984e-04	9.202590239e-12
-6.900000000e-03	1.896426600e-01	-3.911552498e-04	1.556930875e-11
-7.000000000e-03	1.896426616e-01	-3.892270012e-04	2.372681355e-11
-7.100000000e-03	1.896426632e-01	-3.872987525e-04	9.906688479e-12
-7.200000000e-03	1.896426647e-01	-3.853705038e-04	1.733170218e-11
-7.300000000e-03	1.896426662e-01	-3.834422551e-04	2.234673193e-11
-7.400000000e-03	1.896426676e-01	-3.815140064e-04	7.277540935e-12
-7.500000000e-03	1.896426689e-01	-3.795857577e-04	8.390811586e-12
-7.600000000e-03	1.896426702e-01	-3.776575089e-04	2.423502035e-11
-7.700000000e-03	1.896426714e-01	-3.757292601e-04	7.540454582e-12
-7.800000000e-03	1.896426726e-01	-3.738010114e-04	1.415269655e-11
-7.900000000e-03	1.896426737e-01	-3.718727626e-04	1.496085740e-11
-8.000000000e-03	1.896426748e-01	-3.699445138e-04	4.155451797e-11
-8.100000000e-03	1.896426758e-01	-3.680162650e-04	1.296267707e-11
-8.200000000e-03	1.896426767e-01	-3.660880162e-04	1.143639014e-11
-8.300000000e-03	1.896426776e-01	-3.641597674e-04	5.918575821e-12
-8.400000000e-03	1.896426784e-01	-3.622315187e-04	3.693361087e-11
-8.500000000e-03	1.896426792e-01	-3.603032699e-04	8.676682693e-12
-8.600000000e-03	1.896426799e-01	-3.583750211e-04	1.111091711e-11
-8.700000000e-03	1.896426805e-01	-3.564467724e-04	1.390258349e-11
-8.800000000e-03	1.896426811e-01	-3.545185237e-04	1.449051324e-11
-8.900000000e-03	1.896426816e-01	-3.525902750e-04	1.448458597e-11
-9.000000000e-03	1.896426821e-01	-3.506620263e-04	1.427447034e-11
-9.100000000e-03	1.896426825e-01	-3.487337777e-04	1.148150176e-11
-9.200000000e-03	1.896426828e-01	-3.468055291e-04	1.070286286e-11
-9.300000000e-03	1.896426831e-01	-3.448772805e-04	9.901185448e-12
-9.400000000e-03	1.896426834e-01	-3.429490320e-04	9.341119436e-12
-9.500000000e-03	1.896426835e-01	-3.410207835e-04	1.517465079e-11
-9.600000000e-03	1.896426836e-01	-3.390925351e-04	3.442656314e-11
-9.700000000e-03	1.896426837e-01	-3.371642867e-04	7.897573776e-12
-9.800000000e-03	1.896426837e-01	-3.352360383e-04	2.487625295e-11
-9.900000000e-03	1.896426836e-01	-3.333077900e-04	1.068967960e-11
-1.000000000e-02	1.896426835e-01	-3.313795418e-04	1.129680210e-11
-1.010000000e-02	1.896426833e-01	-3.294512936e-04	1.334150138e-11
-1.020000000e-02	1.896426831e-01	-3.275230455e-04	1.002829958e-11
-1.030000000e-02	1.896426828e-01	-3.255947975e-04	9.820636961e-12
-1.040000000e-02	1.896426824e-01	-3.236665495e-04	1.227620442e-11
-1.050000000e-02	1.896426820e-01	-3.217383015e-04	1.582758575e-11
-1.060000000e-02	1.896426815e-01	-3.198100537e-04	1.738487912e-11
-1.070000000e-02	1.896426810e-01	-3.178818059e-04	2.344349847e-11
-1.080000000e-02	1.896426804e-01	-3.159535583e-04	3.461649355e-11
-1.090000000e-02	1.896426798e-01	-3.140253107e-04	1.232673172e-11
-1.100000000e-02	1.896426791e-01	-3.120970631e-04	1.094902267e-11
-1.110000000e-02	1.896426783e-01	-3.101688157e-04	7.023118601e-12
-1.120000000e-02	1.896426775e-01	-3.082405684e-04	1.103015810e-11
-1.130000000e-02	1.896426766e-01	-3.063123211e-04	2.971635570e-11
-1.140000000e-02	1.896426756e-01	-3.043840740e-04	8.310991481e-12
-1.150000000e-02	1.896426746e-01	-3.024558270e-04	5.104335357e-12
-1.160000000e-02	1.896426736e-01	-3.005275800e-04	1.391762333e-11
-1.170000000e-02	1.896426724e-01	-2.985993332e-04	8.330424817e-11
-1.180000000e-02	1.896426713e-01	-2.966710865e-04	1.409062035e-11
-1.190000000e-02	1.896426700e-01	-2.947428399e-04	1.981693828e-11
-1.200000000e-02	1.896426687e-01	-2.928145934e-04	2.857868836e-11
-1.210000000e-02	1.896426674e-01	-2.908863470e-04	7.612026488e-12
-1.220000000e-02	1.896426660e-01	-2.889581007e-04	7.652599608e-12
-1.230000000e-02	1.896426645e-01	-2.870298546e-04	6.617774659e-12
-1.240000000e-02	1.896426630e-01	-2.851016086e-04	2.130917568e-11
-1.250000000e-02	1.896426614e-01	-2.831733627e-04	4.675493790e-11
-1.260000000e-02	1.896426597e-01	-2.812451170e-04	1.014270278e-11
-1.270000000e-02	1.896426580e-01	-2.793168714e-04	4.295314168e-11
-1.280000000e-02	1.896426562e-01	-2.773886259e-04	1.897244905e-11
-1.290000000e-02	1.896426544e-01	-2.754603806e-04	2.918820768e-11
-1.300000000e-02	1.896426525e-01	-2.735321354e-04	1.516266883e-11
-1.310000000e-02	1.896426506e-01	-2.716038904e-04	1.595356834e-11
-1.320000000e-02	1.896426486e-01	-2.696756455e-04	1.450276358e-11
-1.330000000e-02	1.896426465e-01	-2.677474008e-04	5.231528246e-12
-1.340000000e-02	1.896426444e-01	-2.658191562e-04	1.456608085e-11
-1.350000000e-02	1.896426422e-01	-2.638909118e-04	9.474081055e-12
-1.360000000e-02	1.896426400e-01	-2.619626676e-04	2.799909543e-11
-1.370000000e-02	1.896426377e-01	-2.600344235e-04	1.186610169e-11
-1.380000000e-02	1.896426353e-01	-2.581061796e-04	7.639864407e-12
-1.390000000e-02	1.896426329e-01	-2.561779359e-04	9.372376188e-12
-1.400000000e-02	1.896426304e-01	-2.542496923e-04	1.235340703e-11
-1.410000000e-02	1.896426279e-01	-2.523214489e-04	1.554827979e-11
-1.420000000e-02	1.896426253e-01	-2.503932057e-04	2.967180724e-11
-1.430000000e-02	1.896426227e-01	-2.484649627e-04	1.433028245e-11
-1.440000000e-02	1.896426200e-01	-2.465367199e-04	7.818636086e-12
-1.450000000e-02	1.896426172e-01	-2.446084773e-04	1.316043143e-11
-1.460000000e-02	1.896426144e-01	-2.426802348e-04	7.353495276e-12
-1.470000000e-02	1.896426115e-01	-2.407519926e-04	1.165144410e-11
-1.480000000e-02	1.896426085e-01	-2.388237505e-04	1.120166031e-11
-1.490000000e-02	1.896426055e-01	-2.368955087e-04	3.207232147e-11
-1.500000000e-02	1.896426025e-01	-2.349672670e-04	2.538647960e-11
-1.510000000e-02	1.896425994e-01	-2.330390256e-04	2.826993501e-11
-1.520000000e-02	1.896425962e-01	-2.311107844e-04	9.487687355e-12
-1.530000000e-02	1.896425930e-01	-2.291825434e-04	8.165353868e-12
-1.540000000e-02	1.896425897e-01	-2.272543026e-04	1.162495744e-11
-1.550000000e-02	1.896425863e-01	-2.253260620e-04	8.212244432e-12
-1.560000000e-02	1.896425829e-01	-2.233978216e-04	3.663772535e-11
-1.570000000e-02	1.896425794e-01	-2.214695815e-04	5.593677316e-11
-1.580000000e-02	1.896425759e-01	-2.195413416e-04	1.382494824e-11
-1.590000000e-02	1.896425723e-01	-2.176131020e-04	1.829288254e-11
-1.600000000e-02	1.896425687e-01	-2.156848625e-04	1.253928281e-11
-1.610000000e-02	1.896425649e-01	-2.137566233e-04	3.330752384e-11
-1.620000000e-02	1.896425612e-01	-2.118283844e-04	1.210782860e-11
-1.630000000e-02	1.896425574e-01	-2.099001457e-04	1.033657592e-11
-1.640000000e-02	1.896425535e-01	-2.079719072e-04	1.537136137e-11
-1.650000000e-02	1.896425495e-01	-2.060436690e-04	2.250601742e-11
-1.660000000e-02	1.896425455e-01	-2.041154311e-04	7.675594407e-12
-1.670000000e-02	1.896425415e-01	-2.021871934e-04	9.125151143e-12
-1.680000000e-02	1.896425374e-01	-2.002589559e-04	7.916562752e-12
-1.690000000e-02	1.896425332e-01	-1.983307187e-04	1.844564096e-11
-1.700000000e-02	1.896425289e-01	-1.964024818e-04	9.370389777e-12
-1.710000000e-02	1.896425246e-01	-1.944742452e-04	1.876556228e-11
-1.720000000e-02	1.896425203e-01	-1.925460088e-04	1.552797930e-11
-1.730000000e-02	1.896425159e-01	-1.906177727e-04	2.174481026e-11
-1.740000000e-02	1.896425114e-01	-1.886895369e-04	9.024632605e-12
-1.750000000e-02	1.896425069e-01	-1.867613013e-04	2.418489313e-11
-1.760000000e-02	1.896425023e-01	-1.848330661e-04	1.454313889e-11
-1.770000000e-02	1.896424976e-01	-1.829048311e-04	7.917820728e-12
-1.780000000e-02	1.896424929e-01	-1.809765964e-04	2.090664725e-11
-1.790000000e-02	1.896424882e-01	-1.790483620e-04	8.117062570e-12
-1.800000000e-02	1.896424834e-01	-1.771201279e-04	1.088359614e-11
-1.810000000e-02	1.896424785e-01	-1.751918941e-04	2.539013092e-11
-1.820000000e-02	1.896424735e-01	-1.732636606e-04	2.047587675e-11
-1.830000000e-02	1.896424685e-01	-1.713354274e-04	1.021250516e-11
-1.840000000e-02	1.896424635e-01	-1.694071945e-04	1.689648852e-11
-1.850000000e-02	1.896424584e-01	-1.674789619e-04	4.689755391e-11
-1.860000000e-02	1.896424532e-01	-1.655507296e-04	1.558584136e-11
-1.870000000e-02	1.896424479e-01	-1.636224976e-04	7.589483294e-12
-1.880000000e-02	1.896424427e-01	-1.616942660e-04	9.853227548e-12
-1.890000000e-02	1.896424373e-01	-1.597660347e-04	1.249984699e-11
-1.900000000e-02	1.896424319e-01	-1.578378037e-04	2.264631104e-11
-1.910000000e-02	1.896424264e-01	-1.559095730e-04	9.393785822e-12
-1.920000000e-02	1.896424209e-01	-1.539813427e-04	1.079588363e-11
-1.930000000e-02	1.896424153e-01	-1.520531127e-04	1.472408207e-11
-1.940000000e-02	1.896424097e-01	-1.501248830e-04	6.112163684e-12
-1.950000000e-02	1.896424040e-01	-1.481966537e-04	9.716314804e-12
-1.960000000e-02	1.896423982e-01	-1.462684247e-04	6.526797122e-12
-1.970000000e-02	1.896423924e-01	-1.443401960e-04	2.930228803e-11
-1.980000000e-02	1.896423865e-01	-1.424119677e-04	2.999482816e-11
-1.990000000e-02	1.896423806e-01	-1.404837398e-04	7.570393559e-12
-2.000000000e-02	1.896423746e-01	-1.385555122e-04	2.003922441e-11
-2.010000000e-02	1.896423685e-01	-1.366272850e-04	1.306701423e-11
-2.020000000e-02	1.896423624e-01	-1.346990581e-04	2.054879174e-11
-2.030000000e-02	1.896423562e-01	-1.327708316e-04	7.085207328e-12
-2.040000000e-02	1.896423500e-01	-1.308426054e-04	6.986562880e-12
-2.050000000e-02	1.896423437e-01	-1.289143797e-04	1.146768910e-11
-2.060000000e-02	1.896423373e-01	-1.269861543e-04	3.471344534e-11
-2.070000000e-02	1.896423309e-01	-1.250579292e-04	1.012907751e-11
-2.080000000e-02	1.896423244e-01	-1.231297046e-04	9.709006270e-12
-2.090000000e-02	1.896423179e-01	-1.212014803e-04	1.012369991e-11
-2.100000000e-02	1.896423113e-01	-1.192732564e-04	6.289340755e-12
-2.110000000e-02	1.896423047e-01	-1.173450329e-04	1.833605165e-11
-2.120000000e-02	1.896422980e-01	-1.154168098e-04	1.799538783e-11
-2.130000000e-02	1.896422912e-01	-1.134885871e-04	1.337526773e-11
-2.140000000e-02	1.896422844e-01	-1.115603648e-04	1.697400670e-11
-2.150000000e-02	1.896422775e-01	-1.096321429e-04	7.586838598e-12
-2.160000000e-02	1.896422706e-01	-1.077039214e-04	1.371029766e-11
-2.170000000e-02	1.896422636e-01	-1.057757002e-04	1.176390675e-11
-2.180000000e-02	1.896422565e-01	-1.038474795e-04	1.693214522e-11
-2.190000000e-02	1.896422494e-01	-1.019192592e-04	1.632243962e-11
-2.200000000e-02	1.896422422e-01	-9.999103936e-05	7.976259856e-12
-2.210000000e-02	1.896422350e-01	-9.806281991e-05	3.648195561e-11
-2.220000000e-02	1.896422277e-01	-9.613460085e-05	5.869432324e-12
-2.230000000e-02	1.896422204e-01	-9.420638223e-05	1.632745735e-11
-2.240000000e-02	1.896422130e-01	-9.227816403e-05	1.641728726e-11
-2.250000000e-02	1.896422055e-01	-9.034994627e-05	2.465030392e-11
-2.260000000e-02	1.896421980e-01	-8.842172893e-05	6.857404551e-12
-2.270000000e-02	1.896421904e-01	-8.649351203e-05	1.171082204e-11
-2.280000000e-02	1.896421827e-01	-8.456529557e-05	9.982023037e-12
-2.290000000e-02	1.896421750e-01	-8.263707955e-05	1.564487890e-11
-2.300000000e-02	1.896421673e-01	-8.070886397e-05	1.196236130e-11
-2.310000000e-02	1.896421595e-01	-7.878064883e-05	1.142711546e-11
-2.320000000e-02	1.896421516e-01	-7.685243415e-05	1.488968246e-11
-2.330000000e-02	1.896421436e-01	-7.492421992e-05	9.800968073e-12
-2.340000000e-02	1.896421356e-01	-7.299600615e-05	1.281649215e-11
-2.350000000e-02	1.896421276e-01	-7.106779283e-05	1.266329680e-11
-2.360000000e-02	1.896421195e-01	-6.913957995e-05	1.248050150e-10
-2.370000000e-02	1.896421113e-01	-6.721136758e-05	1.245913647e-11
-2.380000000e-02	1.896421031e-01	-6.528315566e-05	9.031368250e-12
-2.390000000e-02	1.896420948e-01	-6.335494421e-05	7.503866851e-12
-2.400000000e-02	1.896420864e-01	-6.142673323e-05	7.066996082e-12
-2.410000000e-02	1.896420780e-01	-5.949852272e-05	1.242551160e-11
-2.420000000e-02	1.896420696e-01	-5.757031270e-05	8.911763704e-12
-2.430000000e-02	1.896420610e-01	-5.564210316e-05	6.407627085e-12
-2.440000000e-02	1.896420524e-01	-5.371389410e-05	1.052736013e-11
-2.450000000e-02	1.896420438e-01	-5.178568554e-05	1.101566138e-11
-2.460000000e-02	1.896420351e-01	-4.985747746e-05	1.288047171e-11
-2.470000000e-02	1.896420263e-01	-4.792926988e-05	1.649557742e-11
-2.480000000e-02	1.896420175e-01	-4.600106279e-05	1.444048267e-11
-2.490000000e-02	1.896420086e-01	-4.407285621e-05	6.990008668e-12
-2.500000000e-02	1.896419997e-01	-4.214465013e-05	5.399670558e-11
-2.510000000e-02	1.896419907e-01	-4.021644455e-05	1.560539916e-11
-2.520000000e-02	1.896419817e-01	-3.828823948e-05	9.521280799e-12
-2.530000000e-02	1.896419725e-01	-3.636003493e-05	2.014064100e-11
-2.540000000e-02	1.896419634e-01	-3.443183090e-05	2.087396751e-11
-2.550000000e-02	1.896419541e-01	-3.250362737e-05	4.379530732e-11
-2.560000000e-02	1.896419449e-01	-3.057542437e-05	1.652497067e-11
-2.570000000e-02	1.896419355e-01	-2.864722190e-05	1.426924350e-11
-2.580000000e-02	1.896419261e-01	-2.671901995e-05	1.120132861e-11
-2.590000000e-02	1.896419166e-01	-2.479081854e-05	1.957575828e-11
-2.600000000e-02	1.896419071e-01	-2.286261765e-05	9.765510445e-12
-2.610000000e-02	1.896418975e-01	-2.093441729e-05	1.657998088e-11
-2.620000000e-02	1.896418879e-01	-1.900621749e-05	1.203461970e-11
-2.630000000e-02	1.896418782e-01	-1.707801822e-05	9.136423626e-12
-2.640000000e-02	1.896418684e-01	-1.514981950e-05	1.105375284e-11
-2.650000000e-02	1.896418586e-01	-1.322162132e-05	1.176361374e-11
-2.660000000e-02	1.896418487e-01	-1.129342370e-05	2.030213406e-11
-2.670000000e-02	1.896418388e-01	-9.365226625e-06	1.461977216e-11
-2.680000000e-02	1.896418288e-01	-7.437030112e-06	1.203346681e-11
-2.690000000e-02	1.896418187e-01	-5.508834161e-06	1.183829502e-11
-2.700000000e-02	1.896418086e-01	-3.580638768e-06	1.611584375e-11
-2.710000000e-02	1.896417985e-01	-1.652443947e-06	9.150439809e-12
-2.720000000e-02	1.896417882e-01	2.757503082e-07	9.233314990e-12
-2.730000000e-02	1.896417779e-01	2.203943995e-06	4.805130515e-12
-2.740000000e-02	1.896417676e-01	4.132137103e-06	2.493814339e-11
-2.750000000e-02	1.896417572e-01	6.060329637e-06	1.572507849e-11
-2.760000000e-02	1.896417467e-01	7.988521586e-06	6.401036519e-12
-2.770000000e-02	1.896417362e-01	9.916712950e-06	9.488604462e-12
-2.780000000e-02	1.896417256e-01	1.184490373e-05	1.223699826e-11
-2.790000000e-02	1.896417150e-01	1.377309392e-05	1.037023496e-11
-2.800000000e-02	1.896417043e-01	1.570128352e-05	1.004368040e-11
-2.810000000e-02	1.896416935e-01	1.762947252e-05	3.903082179e-11
-2.820000000e-02	1.896416827e-01	1.955766092e-05	3.030064331e-11
-2.830000000e-02	1.896416718e-01	2.148584873e-05	1.705190499e-11
-2.840000000e-02	1.896416609e-01	2.341403593e-05	6.312262965e-11
-2.850000000e-02	1.896416499e-01	2.534222251e-05	5.470763575e-12
-2.860000000e-02	1.896416388e-01	2.727040849e-05	1.323778702e-11
-2.870000000e-02	1.896416277e-01	2.919859386e-05	1.450237059e-11
-2.880000000e-02	1.896416166e-01	3.112677861e-05	8.235963930e-12
-2.890000000e-02	1.896416053e-01	3.305496273e-05	1.092123294e-11
-2.900000000e-02	1.896415941e-01	3.498314624e-05	8.919898936e-12
-2.910000000e-02	1.896415827e-01	3.691132912e-05	1.431087449e-11
-2.920000000e-02	1.896415713e-01	3.883951138e-05	5.657777543e-12
-2.930000000e-02	1.896415598e-01	4.076769300e-05	1.343016448e-11
-2.940000000e-02	1.896415483e-01	4.269587398e-05	1.282347462e-11
-2.950000000e-02	1.896415367e-01	4.462405433e-05	8.355080982e-12
-2.960000000e-02	1.896415251e-01	4.655223404e-05	1.188095570e-11
-2.970000000e-02	1.896415134e-01	4.848041311e-05	1.711369161e-11
-2.980000000e-02	1.896415016e-01	5.040859152e-05	1.106783594e-11
-2.990000000e-02	1.896414898e-01	5.233676930e-05	1.204071468e-11
-3.000000000e-02	1.896414779e-01	5.426494642e-05	7.111079993e-12
