# Im(epsi1)     Re(omega/c)      Im(omega/c)      Eq(det).Opt det CON kz, R=0.5 \mum, mu_c=0.3, Re(epsi1)=3.90solve_det_conkz_vs_kz.py
0.000000000e+00	1.896619075e-01	-5.242526463e-04	7.389699836e-12
-1.000000000e-04	1.896619132e-01	-5.223243115e-04	1.667979033e-11
-2.000000000e-04	1.896619188e-01	-5.203959764e-04	3.040495676e-11
-3.000000000e-04	1.896619244e-01	-5.184676411e-04	1.772437494e-11
-4.000000000e-04	1.896619299e-01	-5.165393056e-04	1.320965210e-11
-5.000000000e-04	1.896619354e-01	-5.146109699e-04	1.182826353e-11
-6.000000000e-04	1.896619408e-01	-5.126826339e-04	1.752613165e-11
-7.000000000e-04	1.896619461e-01	-5.107542978e-04	1.427907950e-11
-8.000000000e-04	1.896619514e-01	-5.088259614e-04	6.269996449e-12
-9.000000000e-04	1.896619566e-01	-5.068976248e-04	2.441902373e-11
-1.000000000e-03	1.896619618e-01	-5.049692879e-04	1.142570143e-11
-1.100000000e-03	1.896619669e-01	-5.030409509e-04	8.836824424e-12
-1.200000000e-03	1.896619720e-01	-5.011126136e-04	1.228799738e-11
-1.300000000e-03	1.896619769e-01	-4.991842762e-04	1.170501986e-11
-1.400000000e-03	1.896619819e-01	-4.972559385e-04	2.183002609e-11
-1.500000000e-03	1.896619868e-01	-4.953276007e-04	1.365512082e-11
-1.600000000e-03	1.896619916e-01	-4.933992627e-04	1.019312440e-11
-1.700000000e-03	1.896619963e-01	-4.914709244e-04	1.238770687e-11
-1.800000000e-03	1.896620010e-01	-4.895425860e-04	7.898952479e-12
-1.900000000e-03	1.896620057e-01	-4.876142474e-04	1.416722992e-11
-2.000000000e-03	1.896620102e-01	-4.856859086e-04	1.128699637e-11
-2.100000000e-03	1.896620148e-01	-4.837575696e-04	1.117022168e-11
-2.200000000e-03	1.896620192e-01	-4.818292305e-04	7.242841261e-12
-2.300000000e-03	1.896620236e-01	-4.799008912e-04	1.446409348e-11
-2.400000000e-03	1.896620280e-01	-4.779725517e-04	1.040631461e-11
-2.500000000e-03	1.896620323e-01	-4.760442120e-04	4.771855520e-12
-2.600000000e-03	1.896620365e-01	-4.741158722e-04	1.965929769e-11
-2.700000000e-03	1.896620407e-01	-4.721875322e-04	9.551015302e-11
-2.800000000e-03	1.896620448e-01	-4.702591921e-04	8.007838305e-12
-2.900000000e-03	1.896620488e-01	-4.683308518e-04	3.019103420e-11
-3.000000000e-03	1.896620528e-01	-4.664025113e-04	8.129390373e-12
-3.100000000e-03	1.896620567e-01	-4.644741707e-04	2.525583745e-11
-3.200000000e-03	1.896620606e-01	-4.625458300e-04	1.779129527e-11
-3.300000000e-03	1.896620644e-01	-4.606174891e-04	1.262245638e-11
-3.400000000e-03	1.896620682e-01	-4.586891480e-04	9.201406509e-12
-3.500000000e-03	1.896620719e-01	-4.567608069e-04	6.468047647e-12
-3.600000000e-03	1.896620755e-01	-4.548324656e-04	9.083009001e-12
-3.700000000e-03	1.896620791e-01	-4.529041241e-04	1.260739300e-11
-3.800000000e-03	1.896620826e-01	-4.509757826e-04	3.128257040e-11
-3.900000000e-03	1.896620861e-01	-4.490474409e-04	1.333576917e-11
-4.000000000e-03	1.896620895e-01	-4.471190991e-04	2.776864365e-11
-4.100000000e-03	1.896620929e-01	-4.451907571e-04	2.117107440e-11
-4.200000000e-03	1.896620961e-01	-4.432624151e-04	1.392101548e-11
-4.300000000e-03	1.896620994e-01	-4.413340729e-04	7.649597938e-12
-4.400000000e-03	1.896621025e-01	-4.394057306e-04	9.930797191e-12
-4.500000000e-03	1.896621057e-01	-4.374773882e-04	6.730452984e-12
-4.600000000e-03	1.896621087e-01	-4.355490457e-04	7.929995844e-12
-4.700000000e-03	1.896621117e-01	-4.336207031e-04	8.809905322e-12
-4.800000000e-03	1.896621146e-01	-4.316923604e-04	2.390463898e-11
-4.900000000e-03	1.896621175e-01	-4.297640176e-04	2.621712228e-11
-5.000000000e-03	1.896621203e-01	-4.278356748e-04	1.631691346e-11
-5.100000000e-03	1.896621231e-01	-4.259073318e-04	1.477246315e-11
-5.200000000e-03	1.896621258e-01	-4.239789887e-04	5.718773731e-12
-5.300000000e-03	1.896621284e-01	-4.220506456e-04	1.254104095e-11
-5.400000000e-03	1.896621310e-01	-4.201223023e-04	1.372709950e-11
-5.500000000e-03	1.896621335e-01	-4.181939590e-04	6.932670248e-12
-5.600000000e-03	1.896621360e-01	-4.162656157e-04	1.667290010e-11
-5.700000000e-03	1.896621384e-01	-4.143372722e-04	3.334537417e-11
-5.800000000e-03	1.896621407e-01	-4.124089287e-04	8.497212460e-12
-5.900000000e-03	1.896621430e-01	-4.104805851e-04	1.777709626e-11
-6.000000000e-03	1.896621453e-01	-4.085522414e-04	1.254273091e-11
-6.100000000e-03	1.896621474e-01	-4.066238977e-04	8.709538134e-11
-6.200000000e-03	1.896621495e-01	-4.046955540e-04	1.352299523e-11
-6.300000000e-03	1.896621516e-01	-4.027672101e-04	2.955050851e-11
-6.400000000e-03	1.896621536e-01	-4.008388663e-04	1.003622407e-11
-6.500000000e-03	1.896621555e-01	-3.989105223e-04	1.447097802e-11
-6.600000000e-03	1.896621574e-01	-3.969821784e-04	1.189160716e-11
-6.700000000e-03	1.896621592e-01	-3.950538343e-04	7.395223813e-12
-6.800000000e-03	1.896621610e-01	-3.931254903e-04	1.555597813e-11
-6.900000000e-03	1.896621627e-01	-3.911971462e-04	1.029790389e-11
-7.000000000e-03	1.896621643e-01	-3.892688021e-04	1.317738286e-11
-7.100000000e-03	1.896621659e-01	-3.873404579e-04	1.514979027e-11
-7.200000000e-03	1.896621674e-01	-3.854121137e-04	1.084505918e-11
-7.300000000e-03	1.896621689e-01	-3.834837695e-04	8.665060171e-12
-7.400000000e-03	1.896621703e-01	-3.815554253e-04	1.446968401e-11
-7.500000000e-03	1.896621717e-01	-3.796270811e-04	7.079814915e-12
-7.600000000e-03	1.896621729e-01	-3.776987368e-04	1.827051520e-11
-7.700000000e-03	1.896621742e-01	-3.757703925e-04	1.216639050e-11
-7.800000000e-03	1.896621753e-01	-3.738420482e-04	1.004924150e-11
-7.900000000e-03	1.896621765e-01	-3.719137039e-04	8.451386041e-12
-8.000000000e-03	1.896621775e-01	-3.699853596e-04	2.202731854e-11
-8.100000000e-03	1.896621785e-01	-3.680570153e-04	6.517343503e-12
-8.200000000e-03	1.896621794e-01	-3.661286711e-04	1.084416325e-11
-8.300000000e-03	1.896621803e-01	-3.642003268e-04	1.171131152e-11
-8.400000000e-03	1.896621811e-01	-3.622719825e-04	1.163802628e-11
-8.500000000e-03	1.896621819e-01	-3.603436382e-04	2.200580790e-11
-8.600000000e-03	1.896621826e-01	-3.584152940e-04	4.029666208e-11
-8.700000000e-03	1.896621832e-01	-3.564869497e-04	1.242267934e-11
-8.800000000e-03	1.896621838e-01	-3.545586055e-04	1.086761269e-11
-8.900000000e-03	1.896621844e-01	-3.526302613e-04	9.686884047e-12
-9.000000000e-03	1.896621848e-01	-3.507019171e-04	1.987502815e-11
-9.100000000e-03	1.896621852e-01	-3.487735730e-04	1.499494813e-11
-9.200000000e-03	1.896621856e-01	-3.468452289e-04	8.369856671e-11
-9.300000000e-03	1.896621859e-01	-3.449168848e-04	6.116474842e-12
-9.400000000e-03	1.896621861e-01	-3.429885408e-04	1.489811980e-11
-9.500000000e-03	1.896621863e-01	-3.410601968e-04	1.318793929e-11
-9.600000000e-03	1.896621864e-01	-3.391318528e-04	2.514388304e-11
-9.700000000e-03	1.896621864e-01	-3.372035089e-04	1.325107806e-11
-9.800000000e-03	1.896621864e-01	-3.352751651e-04	1.631324186e-11
-9.900000000e-03	1.896621864e-01	-3.333468213e-04	8.020767502e-12
-1.000000000e-02	1.896621863e-01	-3.314184775e-04	1.685766333e-11
-1.010000000e-02	1.896621861e-01	-3.294901338e-04	1.101731220e-11
-1.020000000e-02	1.896621858e-01	-3.275617902e-04	8.970052923e-12
-1.030000000e-02	1.896621855e-01	-3.256334466e-04	4.923290074e-12
-1.040000000e-02	1.896621852e-01	-3.237051032e-04	1.399159356e-11
-1.050000000e-02	1.896621848e-01	-3.217767597e-04	8.099869643e-12
-1.060000000e-02	1.896621843e-01	-3.198484164e-04	4.132455599e-11
-1.070000000e-02	1.896621838e-01	-3.179200731e-04	7.644963079e-11
-1.080000000e-02	1.896621832e-01	-3.159917299e-04	1.006672068e-11
-1.090000000e-02	1.896621825e-01	-3.140633868e-04	1.275795312e-11
-1.100000000e-02	1.896621818e-01	-3.121350438e-04	1.627444405e-11
-1.110000000e-02	1.896621810e-01	-3.102067009e-04	3.659583019e-11
-1.120000000e-02	1.896621802e-01	-3.082783580e-04	1.092612289e-11
-1.130000000e-02	1.896621793e-01	-3.063500153e-04	1.995513837e-11
-1.140000000e-02	1.896621784e-01	-3.044216726e-04	1.195433936e-11
-1.150000000e-02	1.896621774e-01	-3.024933301e-04	1.012264883e-11
-1.160000000e-02	1.896621763e-01	-3.005649876e-04	2.893891498e-11
-1.170000000e-02	1.896621752e-01	-2.986366453e-04	4.124580452e-11
-1.180000000e-02	1.896621740e-01	-2.967083031e-04	2.581886600e-11
-1.190000000e-02	1.896621728e-01	-2.947799609e-04	2.285592401e-11
-1.200000000e-02	1.896621715e-01	-2.928516189e-04	1.451553563e-11
-1.210000000e-02	1.896621701e-01	-2.909232770e-04	8.004459795e-12
-1.220000000e-02	1.896621687e-01	-2.889949353e-04	3.957590510e-11
-1.230000000e-02	1.896621673e-01	-2.870665936e-04	8.484110241e-12
-1.240000000e-02	1.896621657e-01	-2.851382521e-04	1.661111270e-11
-1.250000000e-02	1.896621641e-01	-2.832099108e-04	4.831617384e-11
-1.260000000e-02	1.896621625e-01	-2.812815695e-04	1.026158343e-11
-1.270000000e-02	1.896621608e-01	-2.793532284e-04	4.987696146e-11
-1.280000000e-02	1.896621590e-01	-2.774248874e-04	1.259847813e-11
-1.290000000e-02	1.896621572e-01	-2.754965466e-04	1.007233313e-11
-1.300000000e-02	1.896621553e-01	-2.735682059e-04	1.905212506e-11
-1.310000000e-02	1.896621534e-01	-2.716398654e-04	1.782667045e-11
-1.320000000e-02	1.896621514e-01	-2.697115250e-04	3.620693408e-11
-1.330000000e-02	1.896621493e-01	-2.677831848e-04	1.110693670e-11
-1.340000000e-02	1.896621472e-01	-2.658548447e-04	7.450621298e-12
-1.350000000e-02	1.896621450e-01	-2.639265048e-04	8.450627626e-12
-1.360000000e-02	1.896621428e-01	-2.619981650e-04	1.013432967e-11
-1.370000000e-02	1.896621405e-01	-2.600698254e-04	1.431283641e-11
-1.380000000e-02	1.896621381e-01	-2.581414860e-04	8.686398468e-12
-1.390000000e-02	1.896621357e-01	-2.562131468e-04	5.043803989e-11
-1.400000000e-02	1.896621332e-01	-2.542848077e-04	1.607703372e-11
-1.410000000e-02	1.896621307e-01	-2.523564688e-04	7.178711460e-12
-1.420000000e-02	1.896621281e-01	-2.504281301e-04	1.198852618e-11
-1.430000000e-02	1.896621255e-01	-2.484997916e-04	1.221087466e-11
-1.440000000e-02	1.896621227e-01	-2.465714533e-04	4.728761619e-11
-1.450000000e-02	1.896621200e-01	-2.446431151e-04	3.956706599e-11
-1.460000000e-02	1.896621172e-01	-2.427147772e-04	1.407541579e-11
-1.470000000e-02	1.896621143e-01	-2.407864394e-04	2.307153381e-11
-1.480000000e-02	1.896621113e-01	-2.388581019e-04	2.382735347e-11
-1.490000000e-02	1.896621083e-01	-2.369297645e-04	1.153286431e-11
-1.500000000e-02	1.896621053e-01	-2.350014274e-04	2.047391572e-11
-1.510000000e-02	1.896621022e-01	-2.330730904e-04	1.510560728e-11
-1.520000000e-02	1.896620990e-01	-2.311447537e-04	1.345922429e-11
-1.530000000e-02	1.896620957e-01	-2.292164172e-04	2.125960126e-11
-1.540000000e-02	1.896620924e-01	-2.272880809e-04	1.233130079e-11
-1.550000000e-02	1.896620891e-01	-2.253597448e-04	1.020115046e-11
-1.560000000e-02	1.896620857e-01	-2.234314089e-04	5.307496800e-12
-1.570000000e-02	1.896620822e-01	-2.215030733e-04	4.674380075e-11
-1.580000000e-02	1.896620787e-01	-2.195747379e-04	1.647334676e-11
-1.590000000e-02	1.896620751e-01	-2.176464027e-04	3.217308165e-11
-1.600000000e-02	1.896620714e-01	-2.157180678e-04	4.219460804e-11
-1.610000000e-02	1.896620677e-01	-2.137897331e-04	2.295274125e-11
-1.620000000e-02	1.896620640e-01	-2.118613986e-04	1.096703710e-11
-1.630000000e-02	1.896620602e-01	-2.099330644e-04	1.103674084e-11
-1.640000000e-02	1.896620563e-01	-2.080047304e-04	3.059851433e-11
-1.650000000e-02	1.896620523e-01	-2.060763967e-04	7.839880106e-12
-1.660000000e-02	1.896620483e-01	-2.041480632e-04	1.207712264e-11
-1.670000000e-02	1.896620443e-01	-2.022197300e-04	4.161569213e-11
-1.680000000e-02	1.896620402e-01	-2.002913971e-04	4.566432486e-12
-1.690000000e-02	1.896620360e-01	-1.983630644e-04	8.828904741e-12
-1.700000000e-02	1.896620317e-01	-1.964347320e-04	2.359557260e-11
-1.710000000e-02	1.896620275e-01	-1.945063998e-04	5.224203083e-12
-1.720000000e-02	1.896620231e-01	-1.925780679e-04	1.966703206e-11
-1.730000000e-02	1.896620187e-01	-1.906497363e-04	1.571714989e-11
-1.740000000e-02	1.896620142e-01	-1.887214050e-04	9.233475470e-12
-1.750000000e-02	1.896620097e-01	-1.867930739e-04	9.524683297e-12
-1.760000000e-02	1.896620051e-01	-1.848647431e-04	1.266781535e-11
-1.770000000e-02	1.896620005e-01	-1.829364127e-04	1.188925301e-11
-1.780000000e-02	1.896619958e-01	-1.810080825e-04	1.713862529e-11
-1.790000000e-02	1.896619910e-01	-1.790797525e-04	1.991423915e-11
-1.800000000e-02	1.896619862e-01	-1.771514229e-04	1.787903804e-11
-1.810000000e-02	1.896619813e-01	-1.752230936e-04	9.971587884e-12
-1.820000000e-02	1.896619763e-01	-1.732947646e-04	3.562595498e-11
-1.830000000e-02	1.896619713e-01	-1.713664359e-04	1.188845407e-11
-1.840000000e-02	1.896619663e-01	-1.694381075e-04	7.210922077e-12
-1.850000000e-02	1.896619612e-01	-1.675097794e-04	1.691079645e-11
-1.860000000e-02	1.896619560e-01	-1.655814516e-04	2.518390659e-11
-1.870000000e-02	1.896619508e-01	-1.636531241e-04	8.804475716e-12
-1.880000000e-02	1.896619455e-01	-1.617247970e-04	1.291167140e-11
-1.890000000e-02	1.896619401e-01	-1.597964701e-04	9.069613046e-12
-1.900000000e-02	1.896619347e-01	-1.578681436e-04	1.658690877e-10
-1.910000000e-02	1.896619292e-01	-1.559398174e-04	8.145316039e-12
-1.920000000e-02	1.896619237e-01	-1.540114916e-04	1.816248066e-11
-1.930000000e-02	1.896619181e-01	-1.520831661e-04	1.396308717e-11
-1.940000000e-02	1.896619125e-01	-1.501548409e-04	1.212852080e-11
-1.950000000e-02	1.896619068e-01	-1.482265161e-04	1.026132033e-11
-1.960000000e-02	1.896619010e-01	-1.462981916e-04	1.736668104e-11
-1.970000000e-02	1.896618952e-01	-1.443698674e-04	1.704079689e-11
-1.980000000e-02	1.896618893e-01	-1.424415436e-04	1.062711699e-11
-1.990000000e-02	1.896618834e-01	-1.405132201e-04	9.157518219e-12
-2.000000000e-02	1.896618774e-01	-1.385848970e-04	1.467459851e-11
-2.010000000e-02	1.896618713e-01	-1.366565743e-04	7.774744259e-11
-2.020000000e-02	1.896618652e-01	-1.347282519e-04	3.653207749e-11
-2.030000000e-02	1.896618590e-01	-1.327999299e-04	2.341034095e-11
-2.040000000e-02	1.896618528e-01	-1.308716082e-04	2.910241278e-11
-2.050000000e-02	1.896618465e-01	-1.289432870e-04	1.039168091e-11
-2.060000000e-02	1.896618402e-01	-1.270149660e-04	3.302911789e-11
-2.070000000e-02	1.896618337e-01	-1.250866455e-04	7.233259988e-12
-2.080000000e-02	1.896618273e-01	-1.231583253e-04	9.522543920e-12
-2.090000000e-02	1.896618208e-01	-1.212300056e-04	6.197143118e-12
-2.100000000e-02	1.896618142e-01	-1.193016862e-04	1.571567970e-11
-2.110000000e-02	1.896618075e-01	-1.173733672e-04	1.485445121e-11
-2.120000000e-02	1.896618008e-01	-1.154450485e-04	7.980953373e-12
-2.130000000e-02	1.896617941e-01	-1.135167303e-04	3.546820933e-11
-2.140000000e-02	1.896617872e-01	-1.115884125e-04	2.900131924e-11
-2.150000000e-02	1.896617804e-01	-1.096600951e-04	1.015755850e-11
-2.160000000e-02	1.896617734e-01	-1.077317780e-04	8.612070746e-12
-2.170000000e-02	1.896617664e-01	-1.058034614e-04	6.767947103e-12
-2.180000000e-02	1.896617594e-01	-1.038751452e-04	1.999693083e-11
-2.190000000e-02	1.896617523e-01	-1.019468294e-04	1.959925555e-11
-2.200000000e-02	1.896617451e-01	-1.000185140e-04	1.996839989e-11
-2.210000000e-02	1.896617378e-01	-9.809019900e-05	7.428740543e-12
-2.220000000e-02	1.896617306e-01	-9.616188445e-05	1.519615215e-11
-2.230000000e-02	1.896617232e-01	-9.423357031e-05	2.168505265e-11
-2.240000000e-02	1.896617158e-01	-9.230525660e-05	1.999467582e-11
-2.250000000e-02	1.896617083e-01	-9.037694332e-05	1.494166559e-11
-2.260000000e-02	1.896617008e-01	-8.844863048e-05	1.275299221e-11
-2.270000000e-02	1.896616932e-01	-8.652031806e-05	1.698804884e-11
-2.280000000e-02	1.896616856e-01	-8.459200608e-05	4.206039490e-11
-2.290000000e-02	1.896616779e-01	-8.266369455e-05	1.216582868e-11
-2.300000000e-02	1.896616701e-01	-8.073538346e-05	1.076705831e-11
-2.310000000e-02	1.896616623e-01	-7.880707282e-05	1.882651342e-11
-2.320000000e-02	1.896616544e-01	-7.687876262e-05	1.555989043e-11
-2.330000000e-02	1.896616465e-01	-7.495045288e-05	1.795364910e-11
-2.340000000e-02	1.896616385e-01	-7.302214359e-05	1.320001587e-11
-2.350000000e-02	1.896616304e-01	-7.109383476e-05	1.647287432e-11
-2.360000000e-02	1.896616223e-01	-6.916552639e-05	8.560348495e-12
-2.370000000e-02	1.896616141e-01	-6.723721849e-05	1.810735643e-11
-2.380000000e-02	1.896616059e-01	-6.530891099e-05	4.844614850e-10
-2.390000000e-02	1.896615976e-01	-6.338060409e-05	8.285794882e-12
-2.400000000e-02	1.896615893e-01	-6.145229760e-05	2.034794971e-11
-2.410000000e-02	1.896615809e-01	-5.952399159e-05	6.864819226e-11
-2.420000000e-02	1.896615724e-01	-5.759568604e-05	1.459380546e-11
-2.430000000e-02	1.896615639e-01	-5.566738099e-05	7.981104770e-12
-2.440000000e-02	1.896615553e-01	-5.373907642e-05	1.614993017e-11
-2.450000000e-02	1.896615467e-01	-5.181077234e-05	1.574995658e-11
-2.460000000e-02	1.896615380e-01	-4.988246875e-05	1.133859557e-11
-2.470000000e-02	1.896615292e-01	-4.795416565e-05	9.609183605e-12
-2.480000000e-02	1.896615204e-01	-4.602586306e-05	9.956712296e-12
-2.490000000e-02	1.896615115e-01	-4.409756096e-05	2.519562608e-11
-2.500000000e-02	1.896615026e-01	-4.216925937e-05	5.506363393e-11
-2.510000000e-02	1.896614936e-01	-4.024095828e-05	2.064016500e-11
-2.520000000e-02	1.896614845e-01	-3.831265770e-05	7.753409475e-12
-2.530000000e-02	1.896614754e-01	-3.638435763e-05	8.985449475e-12
-2.540000000e-02	1.896614662e-01	-3.445605808e-05	1.586879286e-11
-2.550000000e-02	1.896614570e-01	-3.252775904e-05	1.354077606e-11
-2.560000000e-02	1.896614477e-01	-3.059946053e-05	1.492094012e-11
-2.570000000e-02	1.896614384e-01	-2.867116254e-05	1.920284033e-11
-2.580000000e-02	1.896614290e-01	-2.674286508e-05	5.579774990e-12
-2.590000000e-02	1.896614195e-01	-2.481456815e-05	1.298689941e-11
-2.600000000e-02	1.896614100e-01	-2.288627175e-05	2.038087429e-11
-2.610000000e-02	1.896614004e-01	-2.095797589e-05	1.975459586e-11
-2.620000000e-02	1.896613907e-01	-1.902968056e-05	1.202353962e-11
-2.630000000e-02	1.896613810e-01	-1.710138578e-05	1.834960657e-11
-2.640000000e-02	1.896613713e-01	-1.517309154e-05	6.712132243e-12
-2.650000000e-02	1.896613615e-01	-1.324479785e-05	4.281482925e-11
-2.660000000e-02	1.896613516e-01	-1.131650471e-05	8.012149751e-12
-2.670000000e-02	1.896613417e-01	-9.388212132e-06	1.270663840e-11
-2.680000000e-02	1.896613317e-01	-7.459920103e-06	7.897803139e-12
-2.690000000e-02	1.896613216e-01	-5.531628637e-06	1.136152378e-11
-2.700000000e-02	1.896613115e-01	-3.603337729e-06	1.282771497e-11
-2.710000000e-02	1.896613013e-01	-1.675047393e-06	1.901715501e-11
-2.720000000e-02	1.896612911e-01	2.532423780e-07	9.863956230e-12
-2.730000000e-02	1.896612808e-01	2.181531578e-06	1.206179128e-11
-2.740000000e-02	1.896612705e-01	4.109820202e-06	1.085350083e-11
-2.750000000e-02	1.896612601e-01	6.038108249e-06	1.144219767e-11
-2.760000000e-02	1.896612496e-01	7.966395713e-06	9.010232787e-12
-2.770000000e-02	1.896612391e-01	9.894682593e-06	1.423707004e-11
-2.780000000e-02	1.896612285e-01	1.182296889e-05	1.593096609e-11
-2.790000000e-02	1.896612179e-01	1.375125460e-05	3.579963313e-11
-2.800000000e-02	1.896612072e-01	1.567953971e-05	2.065551908e-11
-2.810000000e-02	1.896611964e-01	1.760782423e-05	7.125595548e-12
-2.820000000e-02	1.896611856e-01	1.953610815e-05	1.212280745e-11
-2.830000000e-02	1.896611747e-01	2.146439146e-05	8.000066895e-12
-2.840000000e-02	1.896611638e-01	2.339267417e-05	2.117036283e-11
-2.850000000e-02	1.896611528e-01	2.532095628e-05	7.254091846e-12
-2.860000000e-02	1.896611417e-01	2.724923777e-05	1.558512159e-11
-2.870000000e-02	1.896611306e-01	2.917751865e-05	1.053379658e-11
-2.880000000e-02	1.896611195e-01	3.110579892e-05	1.190120236e-11
-2.890000000e-02	1.896611082e-01	3.303407856e-05	1.530352841e-11
-2.900000000e-02	1.896610969e-01	3.496235758e-05	1.196197824e-11
-2.910000000e-02	1.896610856e-01	3.689063598e-05	1.235931494e-11
-2.920000000e-02	1.896610742e-01	3.881891375e-05	2.477091735e-11
-2.930000000e-02	1.896610627e-01	4.074719089e-05	1.292902584e-11
-2.940000000e-02	1.896610512e-01	4.267546739e-05	8.286882901e-12
-2.950000000e-02	1.896610396e-01	4.460374326e-05	1.022744629e-11
-2.960000000e-02	1.896610280e-01	4.653201848e-05	6.278921086e-12
-2.970000000e-02	1.896610163e-01	4.846029306e-05	2.672181051e-11
-2.980000000e-02	1.896610045e-01	5.038856700e-05	9.535793085e-12
-2.990000000e-02	1.896609927e-01	5.231684028e-05	3.079056255e-11
-3.000000000e-02	1.896609808e-01	5.424511292e-05	9.611685267e-12
