# Im(epsi1)     Re(omega/c)      Im(omega/c)      Eq(det).Opt det CON kz, R=0.5 \mum, mu_c=0.3, Re(epsi1)=3.90solve_det_conkz_vs_kz.py
0.000000000e+00	1.896430320e-01	-5.242060000e-04	1.536405652e-11
-1.000000000e-04	1.896430377e-01	-5.222777577e-04	2.033386781e-11
-2.000000000e-04	1.896430433e-01	-5.203495151e-04	1.626089966e-11
-3.000000000e-04	1.896430489e-01	-5.184212722e-04	8.124594945e-12
-4.000000000e-04	1.896430544e-01	-5.164930292e-04	1.188082123e-11
-5.000000000e-04	1.896430599e-01	-5.145647859e-04	2.482956257e-11
-6.000000000e-04	1.896430653e-01	-5.126365424e-04	2.460309499e-11
-7.000000000e-04	1.896430706e-01	-5.107082986e-04	2.327450438e-11
-8.000000000e-04	1.896430759e-01	-5.087800547e-04	1.620404127e-11
-9.000000000e-04	1.896430812e-01	-5.068518105e-04	2.229225461e-11
-1.000000000e-03	1.896430863e-01	-5.049235661e-04	5.794080225e-12
-1.100000000e-03	1.896430914e-01	-5.029953215e-04	1.304777854e-11
-1.200000000e-03	1.896430965e-01	-5.010670767e-04	6.837218832e-12
-1.300000000e-03	1.896431015e-01	-4.991388317e-04	8.889346936e-12
-1.400000000e-03	1.896431064e-01	-4.972105865e-04	1.384868374e-11
-1.500000000e-03	1.896431113e-01	-4.952823411e-04	1.226270918e-11
-1.600000000e-03	1.896431161e-01	-4.933540955e-04	1.070596089e-11
-1.700000000e-03	1.896431209e-01	-4.914258497e-04	2.084682512e-11
-1.800000000e-03	1.896431255e-01	-4.894976037e-04	9.429040669e-12
-1.900000000e-03	1.896431302e-01	-4.875693576e-04	8.409364366e-11
-2.000000000e-03	1.896431348e-01	-4.856411112e-04	1.568979277e-11
-2.100000000e-03	1.896431393e-01	-4.837128647e-04	2.655257920e-11
-2.200000000e-03	1.896431437e-01	-4.817846180e-04	1.506708643e-11
-2.300000000e-03	1.896431482e-01	-4.798563711e-04	1.757256101e-11
-2.400000000e-03	1.896431525e-01	-4.779281241e-04	1.352617282e-11
-2.500000000e-03	1.896431568e-01	-4.759998768e-04	2.874848650e-11
-2.600000000e-03	1.896431610e-01	-4.740716295e-04	1.470489433e-11
-2.700000000e-03	1.896431652e-01	-4.721433819e-04	1.675627376e-11
-2.800000000e-03	1.896431693e-01	-4.702151342e-04	5.210079423e-12
-2.900000000e-03	1.896431733e-01	-4.682868863e-04	9.843210467e-12
-3.000000000e-03	1.896431773e-01	-4.663586383e-04	1.142950362e-11
-3.100000000e-03	1.896431813e-01	-4.644303902e-04	7.097218525e-12
-3.200000000e-03	1.896431851e-01	-4.625021419e-04	1.977197641e-11
-3.300000000e-03	1.896431890e-01	-4.605738934e-04	1.054312139e-11
-3.400000000e-03	1.896431927e-01	-4.586456448e-04	2.385747281e-11
-3.500000000e-03	1.896431964e-01	-4.567173961e-04	9.156328750e-12
-3.600000000e-03	1.896432000e-01	-4.547891472e-04	2.764806708e-11
-3.700000000e-03	1.896432036e-01	-4.528608982e-04	5.641135829e-11
-3.800000000e-03	1.896432071e-01	-4.509326491e-04	9.519116500e-12
-3.900000000e-03	1.896432106e-01	-4.490043999e-04	1.494140526e-11
-4.000000000e-03	1.896432140e-01	-4.470761505e-04	2.019458206e-11
-4.100000000e-03	1.896432174e-01	-4.451479010e-04	2.720264143e-11
-4.200000000e-03	1.896432206e-01	-4.432196514e-04	2.504398084e-11
-4.300000000e-03	1.896432239e-01	-4.412914016e-04	1.046160104e-11
-4.400000000e-03	1.896432270e-01	-4.393631518e-04	6.303102483e-12
-4.500000000e-03	1.896432302e-01	-4.374349019e-04	1.663136423e-11
-4.600000000e-03	1.896432332e-01	-4.355066518e-04	1.111777629e-10
-4.700000000e-03	1.896432362e-01	-4.335784017e-04	8.077298446e-12
-4.800000000e-03	1.896432391e-01	-4.316501514e-04	7.665191158e-11
-4.900000000e-03	1.896432420e-01	-4.297219011e-04	1.361184111e-11
-5.000000000e-03	1.896432448e-01	-4.277936506e-04	1.549515162e-11
-5.100000000e-03	1.896432476e-01	-4.258654001e-04	7.231714744e-12
-5.200000000e-03	1.896432503e-01	-4.239371495e-04	3.519271424e-11
-5.300000000e-03	1.896432529e-01	-4.220088988e-04	2.212920569e-11
-5.400000000e-03	1.896432555e-01	-4.200806480e-04	5.086458320e-11
-5.500000000e-03	1.896432580e-01	-4.181523971e-04	1.087317439e-11
-5.600000000e-03	1.896432605e-01	-4.162241462e-04	4.367178543e-12
-5.700000000e-03	1.896432629e-01	-4.142958951e-04	9.377392174e-12
-5.800000000e-03	1.896432652e-01	-4.123676441e-04	1.859368819e-11
-5.900000000e-03	1.896432675e-01	-4.104393929e-04	1.375992391e-11
-6.000000000e-03	1.896432698e-01	-4.085111417e-04	1.780757734e-11
-6.100000000e-03	1.896432719e-01	-4.065828904e-04	3.251122613e-11
-6.200000000e-03	1.896432740e-01	-4.046546391e-04	3.410497455e-11
-6.300000000e-03	1.896432761e-01	-4.027263877e-04	9.937903371e-12
-6.400000000e-03	1.896432781e-01	-4.007981363e-04	1.525568876e-11
-6.500000000e-03	1.896432800e-01	-3.988698848e-04	2.672651036e-11
-6.600000000e-03	1.896432819e-01	-3.969416333e-04	2.271047482e-11
-6.700000000e-03	1.896432837e-01	-3.950133817e-04	1.238168905e-11
-6.800000000e-03	1.896432855e-01	-3.930851301e-04	1.811477302e-11
-6.900000000e-03	1.896432872e-01	-3.911568784e-04	1.674625807e-11
-7.000000000e-03	1.896432888e-01	-3.892286268e-04	1.377936158e-11
-7.100000000e-03	1.896432904e-01	-3.873003751e-04	8.580283327e-12
-7.200000000e-03	1.896432919e-01	-3.853721233e-04	1.297599884e-11
-7.300000000e-03	1.896432934e-01	-3.834438716e-04	9.761657038e-12
-7.400000000e-03	1.896432948e-01	-3.815156198e-04	1.561487937e-11
-7.500000000e-03	1.896432961e-01	-3.795873680e-04	9.367665479e-12
-7.600000000e-03	1.896432974e-01	-3.776591161e-04	2.531059030e-11
-7.700000000e-03	1.896432987e-01	-3.757308643e-04	3.332303201e-11
-7.800000000e-03	1.896432998e-01	-3.738026125e-04	2.853333217e-11
-7.900000000e-03	1.896433009e-01	-3.718743606e-04	9.617088192e-12
-8.000000000e-03	1.896433020e-01	-3.699461088e-04	1.387034538e-11
-8.100000000e-03	1.896433030e-01	-3.680178569e-04	2.739030383e-11
-8.200000000e-03	1.896433039e-01	-3.660896051e-04	1.262997068e-11
-8.300000000e-03	1.896433048e-01	-3.641613532e-04	1.401490091e-10
-8.400000000e-03	1.896433056e-01	-3.622331014e-04	3.904112799e-11
-8.500000000e-03	1.896433064e-01	-3.603048495e-04	9.119216968e-12
-8.600000000e-03	1.896433071e-01	-3.583765977e-04	3.546062329e-11
-8.700000000e-03	1.896433077e-01	-3.564483459e-04	1.497143784e-11
-8.800000000e-03	1.896433083e-01	-3.545200942e-04	1.007943798e-11
-8.900000000e-03	1.896433088e-01	-3.525918424e-04	7.121744167e-12
-9.000000000e-03	1.896433093e-01	-3.506635907e-04	1.593114017e-11
-9.100000000e-03	1.896433097e-01	-3.487353390e-04	9.536194253e-12
-9.200000000e-03	1.896433101e-01	-3.468070873e-04	1.110385153e-11
-9.300000000e-03	1.896433103e-01	-3.448788357e-04	4.940754244e-11
-9.400000000e-03	1.896433106e-01	-3.429505841e-04	1.439362946e-11
-9.500000000e-03	1.896433108e-01	-3.410223325e-04	5.799680033e-12
-9.600000000e-03	1.896433109e-01	-3.390940810e-04	1.735621988e-11
-9.700000000e-03	1.896433109e-01	-3.371658296e-04	1.367990216e-11
-9.800000000e-03	1.896433109e-01	-3.352375782e-04	4.924142032e-12
-9.900000000e-03	1.896433109e-01	-3.333093268e-04	1.267036672e-11
-1.000000000e-02	1.896433107e-01	-3.313810755e-04	1.302587517e-11
-1.010000000e-02	1.896433105e-01	-3.294528243e-04	4.888715234e-11
-1.020000000e-02	1.896433103e-01	-3.275245731e-04	8.887306596e-12
-1.030000000e-02	1.896433100e-01	-3.255963220e-04	8.595668323e-12
-1.040000000e-02	1.896433097e-01	-3.236680709e-04	4.774634895e-11
-1.050000000e-02	1.896433092e-01	-3.217398199e-04	9.020634457e-12
-1.060000000e-02	1.896433088e-01	-3.198115690e-04	2.946028990e-11
-1.070000000e-02	1.896433082e-01	-3.178833182e-04	6.403965240e-12
-1.080000000e-02	1.896433076e-01	-3.159550675e-04	7.009289216e-12
-1.090000000e-02	1.896433070e-01	-3.140268168e-04	2.191134671e-11
-1.100000000e-02	1.896433063e-01	-3.120985662e-04	1.274216262e-11
-1.110000000e-02	1.896433055e-01	-3.101703157e-04	1.676460038e-11
-1.120000000e-02	1.896433047e-01	-3.082420653e-04	6.681944415e-12
-1.130000000e-02	1.896433038e-01	-3.063138150e-04	2.157591498e-11
-1.140000000e-02	1.896433029e-01	-3.043855648e-04	1.427329313e-11
-1.150000000e-02	1.896433019e-01	-3.024573147e-04	1.158213761e-11
-1.160000000e-02	1.896433008e-01	-3.005290647e-04	7.927260200e-12
-1.170000000e-02	1.896432997e-01	-2.986008148e-04	9.981088506e-12
-1.180000000e-02	1.896432985e-01	-2.966725650e-04	1.155520576e-11
-1.190000000e-02	1.896432973e-01	-2.947443153e-04	9.239517843e-12
-1.200000000e-02	1.896432960e-01	-2.928160658e-04	1.259824275e-11
-1.210000000e-02	1.896432946e-01	-2.908878163e-04	8.358124331e-12
-1.220000000e-02	1.896432932e-01	-2.889595670e-04	6.274083283e-11
-1.230000000e-02	1.896432917e-01	-2.870313178e-04	2.426686050e-11
-1.240000000e-02	1.896432902e-01	-2.851030688e-04	4.928957536e-12
-1.250000000e-02	1.896432886e-01	-2.831748198e-04	7.940154609e-12
-1.260000000e-02	1.896432869e-01	-2.812465710e-04	5.464895672e-12
-1.270000000e-02	1.896432852e-01	-2.793183223e-04	4.621385586e-11
-1.280000000e-02	1.896432835e-01	-2.773900738e-04	1.157470569e-11
-1.290000000e-02	1.896432816e-01	-2.754618254e-04	1.646504792e-11
-1.300000000e-02	1.896432798e-01	-2.735335772e-04	1.940446318e-11
-1.310000000e-02	1.896432778e-01	-2.716053291e-04	1.189614374e-11
-1.320000000e-02	1.896432758e-01	-2.696770812e-04	1.295635150e-11
-1.330000000e-02	1.896432737e-01	-2.677488334e-04	7.720762062e-12
-1.340000000e-02	1.896432716e-01	-2.658205858e-04	5.440999905e-12
-1.350000000e-02	1.896432694e-01	-2.638923383e-04	1.964952766e-11
-1.360000000e-02	1.896432672e-01	-2.619640910e-04	3.375128983e-11
-1.370000000e-02	1.896432649e-01	-2.600358438e-04	7.176922746e-12
-1.380000000e-02	1.896432626e-01	-2.581075969e-04	2.166772464e-11
-1.390000000e-02	1.896432601e-01	-2.561793501e-04	1.361136069e-11
-1.400000000e-02	1.896432577e-01	-2.542511035e-04	6.046161967e-11
-1.410000000e-02	1.896432551e-01	-2.523228570e-04	9.516823286e-12
-1.420000000e-02	1.896432525e-01	-2.503946108e-04	1.214212974e-11
-1.430000000e-02	1.896432499e-01	-2.484663647e-04	9.891323426e-11
-1.440000000e-02	1.896432472e-01	-2.465381188e-04	1.927726851e-11
-1.450000000e-02	1.896432444e-01	-2.446098731e-04	9.414433244e-12
-1.460000000e-02	1.896432416e-01	-2.426816276e-04	1.806289551e-11
-1.470000000e-02	1.896432387e-01	-2.407533823e-04	2.314714379e-11
-1.480000000e-02	1.896432358e-01	-2.388251371e-04	7.500677932e-12
-1.490000000e-02	1.896432328e-01	-2.368968922e-04	1.865468515e-11
-1.500000000e-02	1.896432297e-01	-2.349686475e-04	2.285002787e-11
-1.510000000e-02	1.896432266e-01	-2.330404030e-04	8.718554440e-12
-1.520000000e-02	1.896432234e-01	-2.311121587e-04	8.461221999e-12
-1.530000000e-02	1.896432202e-01	-2.291839147e-04	3.613342165e-11
-1.540000000e-02	1.896432169e-01	-2.272556708e-04	1.580820463e-11
-1.550000000e-02	1.896432135e-01	-2.253274272e-04	1.092245026e-11
-1.560000000e-02	1.896432101e-01	-2.233991838e-04	1.545610433e-11
-1.570000000e-02	1.896432066e-01	-2.214709406e-04	3.836153869e-11
-1.580000000e-02	1.896432031e-01	-2.195426976e-04	1.502517505e-11
-1.590000000e-02	1.896431995e-01	-2.176144549e-04	1.632799977e-11
-1.600000000e-02	1.896431959e-01	-2.156862124e-04	1.214839031e-11
-1.610000000e-02	1.896431922e-01	-2.137579701e-04	1.370377337e-11
-1.620000000e-02	1.896431884e-01	-2.118297281e-04	2.424899220e-11
-1.630000000e-02	1.896431846e-01	-2.099014864e-04	9.660629487e-12
-1.640000000e-02	1.896431807e-01	-2.079732448e-04	1.659912914e-11
-1.650000000e-02	1.896431768e-01	-2.060450036e-04	1.432187101e-11
-1.660000000e-02	1.896431728e-01	-2.041167626e-04	1.285341108e-11
-1.670000000e-02	1.896431687e-01	-2.021885218e-04	1.584137932e-11
-1.680000000e-02	1.896431646e-01	-2.002602813e-04	8.366427900e-12
-1.690000000e-02	1.896431604e-01	-1.983320410e-04	3.261817787e-11
-1.700000000e-02	1.896431562e-01	-1.964038011e-04	1.759012331e-11
-1.710000000e-02	1.896431519e-01	-1.944755613e-04	8.495080430e-12
-1.720000000e-02	1.896431475e-01	-1.925473219e-04	1.713430182e-11
-1.730000000e-02	1.896431431e-01	-1.906190827e-04	1.087315888e-11
-1.740000000e-02	1.896431386e-01	-1.886908438e-04	1.785417540e-11
-1.750000000e-02	1.896431341e-01	-1.867626052e-04	1.676323282e-11
-1.760000000e-02	1.896431295e-01	-1.848343669e-04	1.309694014e-11
-1.770000000e-02	1.896431249e-01	-1.829061289e-04	7.038657607e-12
-1.780000000e-02	1.896431202e-01	-1.809778911e-04	8.229609592e-12
-1.790000000e-02	1.896431154e-01	-1.790496536e-04	9.528853749e-12
-1.800000000e-02	1.896431106e-01	-1.771214165e-04	2.563976807e-11
-1.810000000e-02	1.896431057e-01	-1.751931796e-04	7.406050968e-12
-1.820000000e-02	1.896431008e-01	-1.732649430e-04	2.195727684e-11
-1.830000000e-02	1.896430958e-01	-1.713367068e-04	1.458568593e-11
-1.840000000e-02	1.896430907e-01	-1.694084708e-04	2.025881513e-11
-1.850000000e-02	1.896430856e-01	-1.674802351e-04	1.739176717e-11
-1.860000000e-02	1.896430804e-01	-1.655519998e-04	7.232973797e-12
-1.870000000e-02	1.896430752e-01	-1.636237648e-04	1.267054560e-11
-1.880000000e-02	1.896430699e-01	-1.616955301e-04	2.091093441e-11
-1.890000000e-02	1.896430645e-01	-1.597672957e-04	3.229447090e-11
-1.900000000e-02	1.896430591e-01	-1.578390616e-04	1.223298535e-11
-1.910000000e-02	1.896430537e-01	-1.559108279e-04	4.303105740e-11
-1.920000000e-02	1.896430481e-01	-1.539825945e-04	1.613699118e-11
-1.930000000e-02	1.896430425e-01	-1.520543614e-04	1.065963334e-11
-1.940000000e-02	1.896430369e-01	-1.501261287e-04	1.805484580e-11
-1.950000000e-02	1.896430312e-01	-1.481978963e-04	1.581068772e-11
-1.960000000e-02	1.896430254e-01	-1.462696642e-04	1.895521056e-11
-1.970000000e-02	1.896430196e-01	-1.443414325e-04	9.185596077e-12
-1.980000000e-02	1.896430137e-01	-1.424132012e-04	1.201646122e-11
-1.990000000e-02	1.896430078e-01	-1.404849702e-04	8.339539527e-12
-2.000000000e-02	1.896430018e-01	-1.385567395e-04	1.245258411e-11
-2.010000000e-02	1.896429957e-01	-1.366285092e-04	4.595840217e-11
-2.020000000e-02	1.896429896e-01	-1.347002793e-04	9.045376670e-12
-2.030000000e-02	1.896429834e-01	-1.327720497e-04	1.440640439e-11
-2.040000000e-02	1.896429772e-01	-1.308438205e-04	2.786927403e-11
-2.050000000e-02	1.896429709e-01	-1.289155917e-04	1.114601318e-11
-2.060000000e-02	1.896429646e-01	-1.269873632e-04	1.015677543e-11
-2.070000000e-02	1.896429581e-01	-1.250591351e-04	1.830272953e-11
-2.080000000e-02	1.896429517e-01	-1.231309074e-04	1.244977385e-11
-2.090000000e-02	1.896429452e-01	-1.212026801e-04	9.248665155e-12
-2.100000000e-02	1.896429386e-01	-1.192744531e-04	6.865269105e-12
-2.110000000e-02	1.896429319e-01	-1.173462266e-04	1.785578697e-11
-2.120000000e-02	1.896429252e-01	-1.154180004e-04	2.880642412e-11
-2.130000000e-02	1.896429185e-01	-1.134897746e-04	1.072437205e-11
-2.140000000e-02	1.896429116e-01	-1.115615492e-04	2.676144894e-11
-2.150000000e-02	1.896429048e-01	-1.096333242e-04	8.308046367e-12
-2.160000000e-02	1.896428978e-01	-1.077050997e-04	1.828657479e-11
-2.170000000e-02	1.896428908e-01	-1.057768755e-04	5.331295594e-12
-2.180000000e-02	1.896428838e-01	-1.038486517e-04	1.053694719e-11
-2.190000000e-02	1.896428766e-01	-1.019204283e-04	2.041082124e-11
-2.200000000e-02	1.896428695e-01	-9.999220541e-05	4.004217683e-11
-2.210000000e-02	1.896428622e-01	-9.806398287e-05	1.490034742e-11
-2.220000000e-02	1.896428549e-01	-9.613576076e-05	1.303324723e-11
-2.230000000e-02	1.896428476e-01	-9.420753908e-05	2.035645111e-11
-2.240000000e-02	1.896428402e-01	-9.227931781e-05	2.426279990e-11
-2.250000000e-02	1.896428327e-01	-9.035109698e-05	1.440590973e-11
-2.260000000e-02	1.896428252e-01	-8.842287658e-05	7.992309155e-12
-2.270000000e-02	1.896428176e-01	-8.649465662e-05	1.325890200e-11
-2.280000000e-02	1.896428100e-01	-8.456643709e-05	1.628676520e-11
-2.290000000e-02	1.896428023e-01	-8.263821801e-05	5.126136179e-11
-2.300000000e-02	1.896427945e-01	-8.070999936e-05	2.223155699e-11
-2.310000000e-02	1.896427867e-01	-7.878178116e-05	7.591670548e-12
-2.320000000e-02	1.896427788e-01	-7.685356342e-05	8.269948943e-12
-2.330000000e-02	1.896427709e-01	-7.492534612e-05	7.553822540e-12
-2.340000000e-02	1.896427629e-01	-7.299712929e-05	2.990824505e-11
-2.350000000e-02	1.896427548e-01	-7.106891290e-05	4.264322681e-12
-2.360000000e-02	1.896427467e-01	-6.914069698e-05	7.689147806e-12
-2.370000000e-02	1.896427385e-01	-6.721248153e-05	1.108027725e-11
-2.380000000e-02	1.896427303e-01	-6.528426654e-05	1.166804669e-11
-2.390000000e-02	1.896427220e-01	-6.335605202e-05	6.886584216e-12
-2.400000000e-02	1.896427137e-01	-6.142783798e-05	1.602942162e-11
-2.410000000e-02	1.896427053e-01	-5.949962441e-05	1.452351054e-11
-2.420000000e-02	1.896426968e-01	-5.757141133e-05	1.347629682e-11
-2.430000000e-02	1.896426883e-01	-5.564319872e-05	8.497481751e-12
-2.440000000e-02	1.896426797e-01	-5.371498660e-05	5.113124073e-11
-2.450000000e-02	1.896426710e-01	-5.178677498e-05	2.976018140e-11
-2.460000000e-02	1.896426623e-01	-4.985856383e-05	1.091451742e-11
-2.470000000e-02	1.896426536e-01	-4.793035318e-05	1.819152008e-11
-2.480000000e-02	1.896426448e-01	-4.600214304e-05	1.520623781e-11
-2.490000000e-02	1.896426359e-01	-4.407393338e-05	9.635345139e-12
-2.500000000e-02	1.896426269e-01	-4.214572424e-05	1.327070555e-11
-2.510000000e-02	1.896426179e-01	-4.021751561e-05	1.905667965e-11
-2.520000000e-02	1.896426089e-01	-3.828930748e-05	3.100616119e-11
-2.530000000e-02	1.896425998e-01	-3.636109986e-05	1.428006888e-11
-2.540000000e-02	1.896425906e-01	-3.443289275e-05	1.657721801e-11
-2.550000000e-02	1.896425814e-01	-3.250468617e-05	5.621405530e-12
-2.560000000e-02	1.896425721e-01	-3.057648010e-05	1.730250236e-11
-2.570000000e-02	1.896425627e-01	-2.864827457e-05	1.164546010e-11
-2.580000000e-02	1.896425533e-01	-2.672006956e-05	1.104568614e-10
-2.590000000e-02	1.896425439e-01	-2.479186507e-05	7.353993141e-12
-2.600000000e-02	1.896425343e-01	-2.286366112e-05	7.974185847e-12
-2.610000000e-02	1.896425248e-01	-2.093545771e-05	1.196948408e-11
-2.620000000e-02	1.896425151e-01	-1.900725483e-05	1.487299883e-11
-2.630000000e-02	1.896425054e-01	-1.707905250e-05	1.502697032e-11
-2.640000000e-02	1.896424957e-01	-1.515085071e-05	1.271891297e-11
-2.650000000e-02	1.896424858e-01	-1.322264948e-05	1.124218131e-11
-2.660000000e-02	1.896424760e-01	-1.129444879e-05	9.596247138e-12
-2.670000000e-02	1.896424660e-01	-9.366248656e-06	1.027247570e-11
-2.680000000e-02	1.896424560e-01	-7.438049064e-06	5.958825870e-11
-2.690000000e-02	1.896424460e-01	-5.509850058e-06	5.192937124e-12
-2.700000000e-02	1.896424359e-01	-3.581651607e-06	1.421238406e-11
-2.710000000e-02	1.896424257e-01	-1.653453726e-06	5.322778838e-11
-2.720000000e-02	1.896424155e-01	2.747436007e-07	1.665072023e-11
-2.730000000e-02	1.896424052e-01	2.202940353e-06	8.305367453e-12
-2.740000000e-02	1.896423948e-01	4.131136524e-06	1.407928460e-11
-2.750000000e-02	1.896423844e-01	6.059332120e-06	8.041001411e-12
-2.760000000e-02	1.896423740e-01	7.987527139e-06	1.610969809e-11
-2.770000000e-02	1.896423634e-01	9.915721566e-06	6.322893675e-11
-2.780000000e-02	1.896423529e-01	1.184391541e-05	1.428863085e-11
-2.790000000e-02	1.896423422e-01	1.377210866e-05	1.302586084e-11
-2.800000000e-02	1.896423315e-01	1.570030133e-05	5.984152321e-12
-2.810000000e-02	1.896423208e-01	1.762849340e-05	2.784087994e-11
-2.820000000e-02	1.896423099e-01	1.955668486e-05	8.325707904e-12
-2.830000000e-02	1.896422991e-01	2.148487572e-05	9.424145901e-11
-2.840000000e-02	1.896422881e-01	2.341306599e-05	1.236018306e-11
-2.850000000e-02	1.896422771e-01	2.534125564e-05	1.169647967e-11
-2.860000000e-02	1.896422661e-01	2.726944468e-05	8.158330798e-12
-2.870000000e-02	1.896422550e-01	2.919763312e-05	1.495503232e-11
-2.880000000e-02	1.896422438e-01	3.112582093e-05	1.224921864e-11
-2.890000000e-02	1.896422326e-01	3.305400812e-05	7.554638034e-12
-2.900000000e-02	1.896422213e-01	3.498219469e-05	8.943376097e-11
-2.910000000e-02	1.896422099e-01	3.691038064e-05	1.342959081e-11
-2.920000000e-02	1.896421985e-01	3.883856595e-05	8.758367165e-12
-2.930000000e-02	1.896421871e-01	4.076675064e-05	1.040431325e-11
-2.940000000e-02	1.896421755e-01	4.269493469e-05	2.256784899e-11
-2.950000000e-02	1.896421640e-01	4.462311810e-05	1.006517565e-11
-2.960000000e-02	1.896421523e-01	4.655130088e-05	9.292394147e-12
-2.970000000e-02	1.896421406e-01	4.847948301e-05	2.509948336e-11
-2.980000000e-02	1.896421289e-01	5.040766449e-05	1.604803288e-11
-2.990000000e-02	1.896421171e-01	5.233584532e-05	7.817027048e-11
-3.000000000e-02	1.896421052e-01	5.426402551e-05	6.961105481e-12
