# Im(epsi1)     Re(omega/c)      Im(omega/c)      Eq(det).Opt det CON kz, R=0.5 \mum, mu_c=0.3, Re(epsi1)=3.90solve_det_conkz_vs_kz.py
0.000000000e+00	1.896555803e-01	-5.242388926e-04	9.436993502e-12
-1.000000000e-04	1.896555860e-01	-5.223105889e-04	8.398767543e-12
-2.000000000e-04	1.896555916e-01	-5.203822849e-04	9.599641535e-12
-3.000000000e-04	1.896555972e-01	-5.184539806e-04	1.024857891e-11
-4.000000000e-04	1.896556027e-01	-5.165256762e-04	4.129241486e-11
-5.000000000e-04	1.896556082e-01	-5.145973715e-04	1.255091436e-11
-6.000000000e-04	1.896556136e-01	-5.126690665e-04	2.072172754e-11
-7.000000000e-04	1.896556189e-01	-5.107407614e-04	1.122382124e-11
-8.000000000e-04	1.896556242e-01	-5.088124560e-04	7.174168531e-12
-9.000000000e-04	1.896556294e-01	-5.068841505e-04	1.425070761e-11
-1.000000000e-03	1.896556346e-01	-5.049558447e-04	4.362206010e-11
-1.100000000e-03	1.896556397e-01	-5.030275387e-04	1.443829578e-11
-1.200000000e-03	1.896556448e-01	-5.010992325e-04	2.535858498e-11
-1.300000000e-03	1.896556498e-01	-4.991709261e-04	1.291775187e-11
-1.400000000e-03	1.896556547e-01	-4.972426195e-04	5.362164830e-11
-1.500000000e-03	1.896556596e-01	-4.953143127e-04	1.551090415e-11
-1.600000000e-03	1.896556644e-01	-4.933860057e-04	5.808853657e-11
-1.700000000e-03	1.896556691e-01	-4.914576985e-04	4.286181353e-11
-1.800000000e-03	1.896556738e-01	-4.895293911e-04	6.659360110e-12
-1.900000000e-03	1.896556785e-01	-4.876010835e-04	1.018773527e-11
-2.000000000e-03	1.896556830e-01	-4.856727758e-04	1.028656621e-11
-2.100000000e-03	1.896556876e-01	-4.837444678e-04	9.308717513e-12
-2.200000000e-03	1.896556920e-01	-4.818161597e-04	1.443032992e-11
-2.300000000e-03	1.896556964e-01	-4.798878515e-04	1.782504638e-11
-2.400000000e-03	1.896557008e-01	-4.779595430e-04	1.043558824e-11
-2.500000000e-03	1.896557051e-01	-4.760312344e-04	1.609521466e-11
-2.600000000e-03	1.896557093e-01	-4.741029256e-04	1.194161766e-11
-2.700000000e-03	1.896557135e-01	-4.721746167e-04	1.979733806e-11
-2.800000000e-03	1.896557176e-01	-4.702463076e-04	2.585472342e-11
-2.900000000e-03	1.896557216e-01	-4.683179983e-04	1.664428255e-11
-3.000000000e-03	1.896557256e-01	-4.663896889e-04	5.289515625e-12
-3.100000000e-03	1.896557295e-01	-4.644613793e-04	1.574394268e-11
-3.200000000e-03	1.896557334e-01	-4.625330696e-04	9.708044102e-12
-3.300000000e-03	1.896557372e-01	-4.606047598e-04	6.470657457e-12
-3.400000000e-03	1.896557410e-01	-4.586764498e-04	6.611195124e-12
-3.500000000e-03	1.896557447e-01	-4.567481396e-04	1.941336018e-11
-3.600000000e-03	1.896557483e-01	-4.548198294e-04	5.059624394e-11
-3.700000000e-03	1.896557519e-01	-4.528915190e-04	1.345240653e-11
-3.800000000e-03	1.896557554e-01	-4.509632084e-04	1.378946030e-11
-3.900000000e-03	1.896557589e-01	-4.490348978e-04	1.107529621e-11
-4.000000000e-03	1.896557623e-01	-4.471065870e-04	6.470620334e-12
-4.100000000e-03	1.896557657e-01	-4.451782761e-04	7.545042399e-12
-4.200000000e-03	1.896557689e-01	-4.432499651e-04	6.633691887e-12
-4.300000000e-03	1.896557722e-01	-4.413216540e-04	2.029361550e-11
-4.400000000e-03	1.896557753e-01	-4.393933427e-04	1.997495997e-11
-4.500000000e-03	1.896557784e-01	-4.374650314e-04	1.366404781e-11
-4.600000000e-03	1.896557815e-01	-4.355367199e-04	3.236288807e-11
-4.700000000e-03	1.896557845e-01	-4.336084084e-04	1.214956756e-11
-4.800000000e-03	1.896557874e-01	-4.316800967e-04	1.039607298e-11
-4.900000000e-03	1.896557903e-01	-4.297517850e-04	7.711914041e-12
-5.000000000e-03	1.896557931e-01	-4.278234731e-04	2.513712085e-11
-5.100000000e-03	1.896557959e-01	-4.258951612e-04	2.098664833e-11
-5.200000000e-03	1.896557986e-01	-4.239668492e-04	5.728629035e-11
-5.300000000e-03	1.896558012e-01	-4.220385370e-04	1.010857663e-11
-5.400000000e-03	1.896558038e-01	-4.201102249e-04	1.106333779e-11
-5.500000000e-03	1.896558063e-01	-4.181819126e-04	3.098454436e-11
-5.600000000e-03	1.896558088e-01	-4.162536003e-04	5.969477304e-12
-5.700000000e-03	1.896558112e-01	-4.143252878e-04	7.102291834e-12
-5.800000000e-03	1.896558135e-01	-4.123969754e-04	1.148077336e-11
-5.900000000e-03	1.896558158e-01	-4.104686628e-04	1.227068135e-11
-6.000000000e-03	1.896558181e-01	-4.085403502e-04	2.193272540e-11
-6.100000000e-03	1.896558202e-01	-4.066120375e-04	1.135594308e-11
-6.200000000e-03	1.896558223e-01	-4.046837248e-04	2.205775090e-11
-6.300000000e-03	1.896558244e-01	-4.027554120e-04	2.376923341e-11
-6.400000000e-03	1.896558264e-01	-4.008270992e-04	2.192711979e-11
-6.500000000e-03	1.896558283e-01	-3.988987863e-04	2.582702113e-11
-6.600000000e-03	1.896558302e-01	-3.969704733e-04	1.243257257e-11
-6.700000000e-03	1.896558320e-01	-3.950421604e-04	1.537249833e-11
-6.800000000e-03	1.896558338e-01	-3.931138474e-04	1.275052951e-11
-6.900000000e-03	1.896558355e-01	-3.911855343e-04	1.385708779e-11
-7.000000000e-03	1.896558371e-01	-3.892572212e-04	1.230144698e-11
-7.100000000e-03	1.896558387e-01	-3.873289081e-04	1.495382567e-11
-7.200000000e-03	1.896558402e-01	-3.854005950e-04	1.559082313e-11
-7.300000000e-03	1.896558417e-01	-3.834722818e-04	8.851012999e-12
-7.400000000e-03	1.896558431e-01	-3.815439686e-04	3.210264485e-11
-7.500000000e-03	1.896558444e-01	-3.796156554e-04	1.686294954e-11
-7.600000000e-03	1.896558457e-01	-3.776873422e-04	1.604180882e-11
-7.700000000e-03	1.896558470e-01	-3.757590290e-04	1.601051869e-11
-7.800000000e-03	1.896558481e-01	-3.738307157e-04	1.095317295e-11
-7.900000000e-03	1.896558493e-01	-3.719024025e-04	4.793873660e-11
-8.000000000e-03	1.896558503e-01	-3.699740892e-04	1.266874483e-11
-8.100000000e-03	1.896558513e-01	-3.680457759e-04	5.195265819e-11
-8.200000000e-03	1.896558522e-01	-3.661174627e-04	1.239804517e-11
-8.300000000e-03	1.896558531e-01	-3.641891494e-04	9.181161854e-12
-8.400000000e-03	1.896558539e-01	-3.622608362e-04	1.428189328e-11
-8.500000000e-03	1.896558547e-01	-3.603325230e-04	2.310460913e-11
-8.600000000e-03	1.896558554e-01	-3.584042097e-04	9.539031781e-12
-8.700000000e-03	1.896558560e-01	-3.564758966e-04	2.289374976e-11
-8.800000000e-03	1.896558566e-01	-3.545475834e-04	1.932569831e-11
-8.900000000e-03	1.896558571e-01	-3.526192702e-04	1.178814080e-11
-9.000000000e-03	1.896558576e-01	-3.506909571e-04	1.142873975e-11
-9.100000000e-03	1.896558580e-01	-3.487626440e-04	8.390847553e-12
-9.200000000e-03	1.896558584e-01	-3.468343309e-04	1.119843701e-11
-9.300000000e-03	1.896558587e-01	-3.449060179e-04	1.009871405e-10
-9.400000000e-03	1.896558589e-01	-3.429777049e-04	1.158275455e-11
-9.500000000e-03	1.896558591e-01	-3.410493919e-04	2.037398567e-11
-9.600000000e-03	1.896558592e-01	-3.391210790e-04	9.922289765e-12
-9.700000000e-03	1.896558592e-01	-3.371927662e-04	4.516976206e-11
-9.800000000e-03	1.896558592e-01	-3.352644533e-04	1.760344062e-11
-9.900000000e-03	1.896558592e-01	-3.333361406e-04	2.283212999e-11
-1.000000000e-02	1.896558590e-01	-3.314078279e-04	1.153811462e-11
-1.010000000e-02	1.896558589e-01	-3.294795152e-04	4.614588053e-11
-1.020000000e-02	1.896558586e-01	-3.275512026e-04	1.005741867e-11
-1.030000000e-02	1.896558583e-01	-3.256228901e-04	1.258306624e-11
-1.040000000e-02	1.896558580e-01	-3.236945777e-04	1.931855256e-11
-1.050000000e-02	1.896558576e-01	-3.217662653e-04	6.838955848e-12
-1.060000000e-02	1.896558571e-01	-3.198379530e-04	2.008341260e-11
-1.070000000e-02	1.896558566e-01	-3.179096408e-04	2.879342216e-11
-1.080000000e-02	1.896558560e-01	-3.159813286e-04	2.130453368e-10
-1.090000000e-02	1.896558553e-01	-3.140530165e-04	8.467450152e-12
-1.100000000e-02	1.896558546e-01	-3.121247046e-04	1.535559575e-11
-1.110000000e-02	1.896558538e-01	-3.101963927e-04	1.972255565e-11
-1.120000000e-02	1.896558530e-01	-3.082680809e-04	5.555687631e-12
-1.130000000e-02	1.896558521e-01	-3.063397691e-04	9.895298185e-12
-1.140000000e-02	1.896558512e-01	-3.044114575e-04	7.444776964e-12
-1.150000000e-02	1.896558502e-01	-3.024831460e-04	9.190416905e-12
-1.160000000e-02	1.896558491e-01	-3.005548346e-04	1.899631262e-11
-1.170000000e-02	1.896558480e-01	-2.986265233e-04	1.064205280e-11
-1.180000000e-02	1.896558468e-01	-2.966982121e-04	1.952101479e-11
-1.190000000e-02	1.896558456e-01	-2.947699011e-04	8.081939073e-12
-1.200000000e-02	1.896558443e-01	-2.928415901e-04	1.409723612e-11
-1.210000000e-02	1.896558429e-01	-2.909132792e-04	9.826936490e-12
-1.220000000e-02	1.896558415e-01	-2.889849685e-04	7.551984366e-12
-1.230000000e-02	1.896558400e-01	-2.870566579e-04	1.430388310e-11
-1.240000000e-02	1.896558385e-01	-2.851283475e-04	1.754793785e-11
-1.250000000e-02	1.896558369e-01	-2.832000371e-04	1.217244996e-11
-1.260000000e-02	1.896558353e-01	-2.812717269e-04	2.215011415e-11
-1.270000000e-02	1.896558336e-01	-2.793434168e-04	1.600427577e-11
-1.280000000e-02	1.896558318e-01	-2.774151069e-04	6.520550710e-12
-1.290000000e-02	1.896558300e-01	-2.754867971e-04	2.236468766e-11
-1.300000000e-02	1.896558281e-01	-2.735584875e-04	1.835313322e-11
-1.310000000e-02	1.896558261e-01	-2.716301780e-04	3.296730675e-11
-1.320000000e-02	1.896558241e-01	-2.697018686e-04	8.108005775e-12
-1.330000000e-02	1.896558221e-01	-2.677735594e-04	1.504509795e-11
-1.340000000e-02	1.896558200e-01	-2.658452504e-04	1.007182719e-11
-1.350000000e-02	1.896558178e-01	-2.639169415e-04	8.718545623e-12
-1.360000000e-02	1.896558155e-01	-2.619886328e-04	9.431442635e-12
-1.370000000e-02	1.896558132e-01	-2.600603243e-04	1.864820819e-11
-1.380000000e-02	1.896558109e-01	-2.581320159e-04	6.236968507e-12
-1.390000000e-02	1.896558085e-01	-2.562037077e-04	6.800230690e-12
-1.400000000e-02	1.896558060e-01	-2.542753997e-04	1.640445383e-11
-1.410000000e-02	1.896558035e-01	-2.523470918e-04	6.629099596e-12
-1.420000000e-02	1.896558009e-01	-2.504187842e-04	2.256172282e-11
-1.430000000e-02	1.896557982e-01	-2.484904767e-04	1.465035802e-11
-1.440000000e-02	1.896557955e-01	-2.465621694e-04	1.926514044e-11
-1.450000000e-02	1.896557928e-01	-2.446338623e-04	6.946031331e-12
-1.460000000e-02	1.896557899e-01	-2.427055554e-04	5.686523933e-11
-1.470000000e-02	1.896557871e-01	-2.407772487e-04	1.844376742e-11
-1.480000000e-02	1.896557841e-01	-2.388489422e-04	1.065926288e-11
-1.490000000e-02	1.896557811e-01	-2.369206358e-04	1.657426983e-11
-1.500000000e-02	1.896557781e-01	-2.349923297e-04	2.950803822e-11
-1.510000000e-02	1.896557749e-01	-2.330640238e-04	1.857049664e-11
-1.520000000e-02	1.896557718e-01	-2.311357181e-04	8.220704924e-12
-1.530000000e-02	1.896557685e-01	-2.292074127e-04	9.763158563e-12
-1.540000000e-02	1.896557652e-01	-2.272791074e-04	9.332439282e-12
-1.550000000e-02	1.896557619e-01	-2.253508024e-04	1.295073257e-11
-1.560000000e-02	1.896557585e-01	-2.234224975e-04	1.793512561e-11
-1.570000000e-02	1.896557550e-01	-2.214941929e-04	1.799952515e-11
-1.580000000e-02	1.896557515e-01	-2.195658886e-04	1.831980567e-11
-1.590000000e-02	1.896557479e-01	-2.176375845e-04	6.770558568e-12
-1.600000000e-02	1.896557442e-01	-2.157092806e-04	2.572758921e-11
-1.610000000e-02	1.896557405e-01	-2.137809769e-04	3.426812472e-11
-1.620000000e-02	1.896557368e-01	-2.118526735e-04	1.403884741e-11
-1.630000000e-02	1.896557329e-01	-2.099243703e-04	1.226639851e-11
-1.640000000e-02	1.896557291e-01	-2.079960674e-04	9.099237625e-12
-1.650000000e-02	1.896557251e-01	-2.060677647e-04	1.092542196e-11
-1.660000000e-02	1.896557211e-01	-2.041394623e-04	1.420678841e-11
-1.670000000e-02	1.896557171e-01	-2.022111601e-04	1.145774139e-11
-1.680000000e-02	1.896557129e-01	-2.002828582e-04	1.921282262e-11
-1.690000000e-02	1.896557088e-01	-1.983545565e-04	9.347584353e-12
-1.700000000e-02	1.896557045e-01	-1.964262552e-04	1.507931658e-11
-1.710000000e-02	1.896557002e-01	-1.944979540e-04	2.348262918e-11
-1.720000000e-02	1.896556959e-01	-1.925696532e-04	2.417154587e-11
-1.730000000e-02	1.896556915e-01	-1.906413526e-04	1.252344809e-11
-1.740000000e-02	1.896556870e-01	-1.887130523e-04	1.105473455e-11
-1.750000000e-02	1.896556825e-01	-1.867847523e-04	3.028065173e-11
-1.760000000e-02	1.896556779e-01	-1.848564526e-04	7.129033263e-12
-1.770000000e-02	1.896556732e-01	-1.829281531e-04	5.624153118e-12
-1.780000000e-02	1.896556685e-01	-1.809998540e-04	5.965484730e-12
-1.790000000e-02	1.896556638e-01	-1.790715551e-04	2.242646831e-11
-1.800000000e-02	1.896556589e-01	-1.771432565e-04	2.947799599e-11
-1.810000000e-02	1.896556541e-01	-1.752149582e-04	7.290831291e-12
-1.820000000e-02	1.896556491e-01	-1.732866603e-04	2.673896097e-11
-1.830000000e-02	1.896556441e-01	-1.713583626e-04	7.534997408e-12
-1.840000000e-02	1.896556391e-01	-1.694300652e-04	1.809381927e-11
-1.850000000e-02	1.896556339e-01	-1.675017682e-04	6.852066657e-12
-1.860000000e-02	1.896556288e-01	-1.655734714e-04	1.338402218e-11
-1.870000000e-02	1.896556235e-01	-1.636451750e-04	1.277446414e-11
-1.880000000e-02	1.896556182e-01	-1.617168789e-04	1.518773175e-11
-1.890000000e-02	1.896556129e-01	-1.597885831e-04	3.206449075e-11
-1.900000000e-02	1.896556075e-01	-1.578602876e-04	1.896540578e-11
-1.910000000e-02	1.896556020e-01	-1.559319925e-04	1.640671548e-11
-1.920000000e-02	1.896555965e-01	-1.540036977e-04	1.218733058e-11
-1.930000000e-02	1.896555909e-01	-1.520754032e-04	8.842577532e-12
-1.940000000e-02	1.896555853e-01	-1.501471091e-04	2.405901658e-11
-1.950000000e-02	1.896555796e-01	-1.482188153e-04	2.290282267e-11
-1.960000000e-02	1.896555738e-01	-1.462905218e-04	2.245394373e-11
-1.970000000e-02	1.896555680e-01	-1.443622287e-04	2.585695587e-11
-1.980000000e-02	1.896555621e-01	-1.424339359e-04	1.942178499e-11
-1.990000000e-02	1.896555561e-01	-1.405056435e-04	6.767502560e-12
-2.000000000e-02	1.896555501e-01	-1.385773515e-04	7.543712500e-12
-2.010000000e-02	1.896555441e-01	-1.366490598e-04	1.812017814e-11
-2.020000000e-02	1.896555380e-01	-1.347207684e-04	1.517570674e-11
-2.030000000e-02	1.896555318e-01	-1.327924774e-04	1.426106282e-11
-2.040000000e-02	1.896555256e-01	-1.308641868e-04	1.374334833e-11
-2.050000000e-02	1.896555193e-01	-1.289358966e-04	1.034233717e-11
-2.060000000e-02	1.896555129e-01	-1.270076067e-04	3.857139349e-11
-2.070000000e-02	1.896555065e-01	-1.250793172e-04	1.862579002e-11
-2.080000000e-02	1.896555000e-01	-1.231510281e-04	1.415276024e-11
-2.090000000e-02	1.896554935e-01	-1.212227394e-04	9.035451346e-12
-2.100000000e-02	1.896554869e-01	-1.192944510e-04	3.622673590e-11
-2.110000000e-02	1.896554803e-01	-1.173661630e-04	2.692508989e-11
-2.120000000e-02	1.896554736e-01	-1.154378755e-04	2.811363080e-11
-2.130000000e-02	1.896554668e-01	-1.135095883e-04	1.704452577e-11
-2.140000000e-02	1.896554600e-01	-1.115813015e-04	4.081260681e-11
-2.150000000e-02	1.896554531e-01	-1.096530151e-04	8.819205434e-12
-2.160000000e-02	1.896554462e-01	-1.077247291e-04	1.268650389e-11
-2.170000000e-02	1.896554392e-01	-1.057964435e-04	1.505496986e-11
-2.180000000e-02	1.896554321e-01	-1.038681583e-04	1.131095384e-11
-2.190000000e-02	1.896554250e-01	-1.019398736e-04	1.110290674e-11
-2.200000000e-02	1.896554178e-01	-1.000115892e-04	7.658770350e-12
-2.210000000e-02	1.896554106e-01	-9.808330529e-05	6.438230554e-12
-2.220000000e-02	1.896554033e-01	-9.615502178e-05	1.150515157e-11
-2.230000000e-02	1.896553960e-01	-9.422673869e-05	2.730545384e-11
-2.240000000e-02	1.896553886e-01	-9.229845602e-05	7.376567432e-12
-2.250000000e-02	1.896553811e-01	-9.037017378e-05	1.269629813e-11
-2.260000000e-02	1.896553736e-01	-8.844189197e-05	6.088083547e-12
-2.270000000e-02	1.896553660e-01	-8.651361060e-05	7.175404284e-12
-2.280000000e-02	1.896553583e-01	-8.458532967e-05	1.053848780e-11
-2.290000000e-02	1.896553506e-01	-8.265704917e-05	1.344545448e-11
-2.300000000e-02	1.896553429e-01	-8.072876912e-05	8.017018734e-12
-2.310000000e-02	1.896553351e-01	-7.880048951e-05	4.083982475e-11
-2.320000000e-02	1.896553272e-01	-7.687221036e-05	1.339228835e-11
-2.330000000e-02	1.896553193e-01	-7.494393166e-05	7.614204459e-12
-2.340000000e-02	1.896553113e-01	-7.301565342e-05	8.328513704e-12
-2.350000000e-02	1.896553032e-01	-7.108737563e-05	1.704990008e-11
-2.360000000e-02	1.896552951e-01	-6.915909830e-05	1.002475801e-11
-2.370000000e-02	1.896552869e-01	-6.723082144e-05	2.003998825e-11
-2.380000000e-02	1.896552787e-01	-6.530254505e-05	1.762343132e-11
-2.390000000e-02	1.896552704e-01	-6.337426912e-05	2.096312490e-11
-2.400000000e-02	1.896552620e-01	-6.144599367e-05	1.428888963e-11
-2.410000000e-02	1.896552536e-01	-5.951771870e-05	8.158234784e-12
-2.420000000e-02	1.896552452e-01	-5.758944421e-05	1.613338886e-11
-2.430000000e-02	1.896552366e-01	-5.566117019e-05	1.277148064e-11
-2.440000000e-02	1.896552281e-01	-5.373289666e-05	1.233514519e-11
-2.450000000e-02	1.896552194e-01	-5.180462362e-05	2.680385541e-11
-2.460000000e-02	1.896552107e-01	-4.987635108e-05	1.351468841e-11
-2.470000000e-02	1.896552020e-01	-4.794807903e-05	1.297802725e-11
-2.480000000e-02	1.896551931e-01	-4.601980747e-05	1.059115823e-11
-2.490000000e-02	1.896551843e-01	-4.409153641e-05	1.173210187e-11
-2.500000000e-02	1.896551753e-01	-4.216326586e-05	1.551998601e-11
-2.510000000e-02	1.896551663e-01	-4.023499581e-05	1.116739883e-11
-2.520000000e-02	1.896551573e-01	-3.830672627e-05	1.549001504e-11
-2.530000000e-02	1.896551482e-01	-3.637845725e-05	9.585164059e-12
-2.540000000e-02	1.896551390e-01	-3.445018874e-05	1.568742093e-11
-2.550000000e-02	1.896551298e-01	-3.252192075e-05	5.516425665e-12
-2.560000000e-02	1.896551205e-01	-3.059365328e-05	5.079163534e-12
-2.570000000e-02	1.896551111e-01	-2.866538633e-05	9.535720870e-12
-2.580000000e-02	1.896551017e-01	-2.673711991e-05	1.442815087e-11
-2.590000000e-02	1.896550923e-01	-2.480885402e-05	1.728396258e-11
-2.600000000e-02	1.896550827e-01	-2.288058866e-05	9.507825071e-12
-2.610000000e-02	1.896550732e-01	-2.095232384e-05	9.124690234e-12
-2.620000000e-02	1.896550635e-01	-1.902405956e-05	9.187892870e-12
-2.630000000e-02	1.896550538e-01	-1.709579582e-05	8.230972486e-12
-2.640000000e-02	1.896550441e-01	-1.516753262e-05	7.555257602e-12
-2.650000000e-02	1.896550342e-01	-1.323926998e-05	8.382176406e-12
-2.660000000e-02	1.896550244e-01	-1.131100788e-05	1.911480256e-11
-2.670000000e-02	1.896550144e-01	-9.382746335e-06	2.365019389e-11
-2.680000000e-02	1.896550044e-01	-7.454485351e-06	1.364779326e-11
-2.690000000e-02	1.896549944e-01	-5.526224927e-06	1.993282634e-11
-2.700000000e-02	1.896549843e-01	-3.597965065e-06	2.917406296e-11
-2.710000000e-02	1.896549741e-01	-1.669705765e-06	1.207167637e-11
-2.720000000e-02	1.896549639e-01	2.585529750e-07	1.009094789e-10
-2.730000000e-02	1.896549536e-01	2.186811120e-06	2.338981049e-11
-2.740000000e-02	1.896549432e-01	4.115068697e-06	1.546084010e-11
-2.750000000e-02	1.896549328e-01	6.043325706e-06	1.798527593e-11
-2.760000000e-02	1.896549224e-01	7.971582129e-06	1.851685752e-11
-2.770000000e-02	1.896549118e-01	9.899837964e-06	1.192515118e-11
-2.780000000e-02	1.896549013e-01	1.182809321e-05	3.122226984e-11
-2.790000000e-02	1.896548906e-01	1.375634788e-05	1.297190616e-11
-2.800000000e-02	1.896548799e-01	1.568460195e-05	9.948136009e-12
-2.810000000e-02	1.896548692e-01	1.761285543e-05	3.701539742e-11
-2.820000000e-02	1.896548583e-01	1.954110831e-05	8.538303319e-12
-2.830000000e-02	1.896548475e-01	2.146936058e-05	1.307157645e-11
-2.840000000e-02	1.896548365e-01	2.339761225e-05	4.332269439e-11
-2.850000000e-02	1.896548255e-01	2.532586331e-05	2.254751728e-11
-2.860000000e-02	1.896548145e-01	2.725411376e-05	2.888180336e-10
-2.870000000e-02	1.896548034e-01	2.918236360e-05	7.562070042e-12
-2.880000000e-02	1.896547922e-01	3.111061282e-05	8.337874295e-12
-2.890000000e-02	1.896547810e-01	3.303886142e-05	9.818527129e-12
-2.900000000e-02	1.896547697e-01	3.496710941e-05	1.536231740e-11
-2.910000000e-02	1.896547584e-01	3.689535676e-05	1.351308335e-11
-2.920000000e-02	1.896547469e-01	3.882360349e-05	1.777576922e-11
-2.930000000e-02	1.896547355e-01	4.075184958e-05	1.291802442e-11
-2.940000000e-02	1.896547240e-01	4.268009504e-05	7.294875175e-12
-2.950000000e-02	1.896547124e-01	4.460833986e-05	5.485928940e-12
-2.960000000e-02	1.896547007e-01	4.653658405e-05	1.314767649e-11
-2.970000000e-02	1.896546890e-01	4.846482759e-05	4.951776289e-11
-2.980000000e-02	1.896546773e-01	5.039307048e-05	1.928043893e-11
-2.990000000e-02	1.896546655e-01	5.232131272e-05	9.136777894e-12
-3.000000000e-02	1.896546536e-01	5.424955431e-05	9.320942679e-12
