# Im(epsi1)     Re(omega/c)      Im(omega/c)      Eq(det).Opt det CON kz, R=0.5 \mum, mu_c=0.3, Re(epsi1)=3.90solve_det_conkz_vs_kz.py
0.000000000e+00	1.896599740e-01	-5.242486447e-04	1.071934952e-11
-1.000000000e-04	1.896599796e-01	-5.223203194e-04	1.302790511e-11
-2.000000000e-04	1.896599853e-01	-5.203919939e-04	5.232512677e-12
-3.000000000e-04	1.896599909e-01	-5.184636681e-04	2.094950627e-11
-4.000000000e-04	1.896599964e-01	-5.165353421e-04	1.288968807e-11
-5.000000000e-04	1.896600018e-01	-5.146070158e-04	2.903953932e-11
-6.000000000e-04	1.896600073e-01	-5.126786894e-04	1.964378459e-11
-7.000000000e-04	1.896600126e-01	-5.107503627e-04	3.523978804e-11
-8.000000000e-04	1.896600179e-01	-5.088220358e-04	1.200571222e-11
-9.000000000e-04	1.896600231e-01	-5.068937086e-04	2.112106088e-11
-1.000000000e-03	1.896600283e-01	-5.049653813e-04	8.969062356e-12
-1.100000000e-03	1.896600334e-01	-5.030370538e-04	1.241283553e-11
-1.200000000e-03	1.896600384e-01	-5.011087260e-04	3.024047276e-11
-1.300000000e-03	1.896600434e-01	-4.991803980e-04	3.857920443e-11
-1.400000000e-03	1.896600484e-01	-4.972520699e-04	2.274302123e-11
-1.500000000e-03	1.896600532e-01	-4.953237415e-04	2.106533831e-11
-1.600000000e-03	1.896600580e-01	-4.933954130e-04	1.155671538e-11
-1.700000000e-03	1.896600628e-01	-4.914670842e-04	1.875741675e-11
-1.800000000e-03	1.896600675e-01	-4.895387553e-04	1.636518636e-11
-1.900000000e-03	1.896600721e-01	-4.876104262e-04	1.555467248e-11
-2.000000000e-03	1.896600767e-01	-4.856820969e-04	1.605250099e-11
-2.100000000e-03	1.896600812e-01	-4.837537674e-04	5.298911753e-11
-2.200000000e-03	1.896600857e-01	-4.818254378e-04	1.641720414e-11
-2.300000000e-03	1.896600901e-01	-4.798971079e-04	2.050546409e-11
-2.400000000e-03	1.896600945e-01	-4.779687779e-04	6.343590170e-11
-2.500000000e-03	1.896600987e-01	-4.760404478e-04	9.272359014e-12
-2.600000000e-03	1.896601030e-01	-4.741121174e-04	8.695454011e-12
-2.700000000e-03	1.896601071e-01	-4.721837870e-04	2.837253129e-11
-2.800000000e-03	1.896601112e-01	-4.702554563e-04	7.958889292e-12
-2.900000000e-03	1.896601153e-01	-4.683271255e-04	1.058744186e-11
-3.000000000e-03	1.896601193e-01	-4.663987945e-04	1.310759630e-11
-3.100000000e-03	1.896601232e-01	-4.644704634e-04	1.293393722e-11
-3.200000000e-03	1.896601271e-01	-4.625421322e-04	3.097056139e-11
-3.300000000e-03	1.896601309e-01	-4.606138008e-04	6.199494371e-12
-3.400000000e-03	1.896601347e-01	-4.586854692e-04	3.089798926e-11
-3.500000000e-03	1.896601384e-01	-4.567571375e-04	7.518305976e-12
-3.600000000e-03	1.896601420e-01	-4.548288057e-04	2.863022253e-11
-3.700000000e-03	1.896601456e-01	-4.529004738e-04	1.216788090e-11
-3.800000000e-03	1.896601491e-01	-4.509721417e-04	1.674678588e-11
-3.900000000e-03	1.896601526e-01	-4.490438095e-04	1.225150628e-11
-4.000000000e-03	1.896601560e-01	-4.471154772e-04	8.488988332e-12
-4.100000000e-03	1.896601593e-01	-4.451871447e-04	2.348215095e-11
-4.200000000e-03	1.896601626e-01	-4.432588122e-04	9.408825700e-12
-4.300000000e-03	1.896601658e-01	-4.413304795e-04	6.046499380e-12
-4.400000000e-03	1.896601690e-01	-4.394021467e-04	9.629379288e-12
-4.500000000e-03	1.896601721e-01	-4.374738138e-04	1.812239356e-11
-4.600000000e-03	1.896601752e-01	-4.355454808e-04	2.047810435e-11
-4.700000000e-03	1.896601782e-01	-4.336171477e-04	1.128186220e-11
-4.800000000e-03	1.896601811e-01	-4.316888145e-04	2.072164104e-11
-4.900000000e-03	1.896601840e-01	-4.297604812e-04	8.920616869e-11
-5.000000000e-03	1.896601868e-01	-4.278321478e-04	1.496123389e-11
-5.100000000e-03	1.896601896e-01	-4.259038143e-04	1.611813967e-11
-5.200000000e-03	1.896601923e-01	-4.239754807e-04	2.258474780e-11
-5.300000000e-03	1.896601949e-01	-4.220471471e-04	1.426540157e-11
-5.400000000e-03	1.896601975e-01	-4.201188133e-04	4.289103575e-11
-5.500000000e-03	1.896602000e-01	-4.181904795e-04	6.575114720e-12
-5.600000000e-03	1.896602025e-01	-4.162621456e-04	1.261743891e-11
-5.700000000e-03	1.896602049e-01	-4.143338117e-04	9.561548340e-12
-5.800000000e-03	1.896602072e-01	-4.124054776e-04	1.776195549e-11
-5.900000000e-03	1.896602095e-01	-4.104771435e-04	1.276310585e-11
-6.000000000e-03	1.896602117e-01	-4.085488094e-04	1.367323848e-11
-6.100000000e-03	1.896602139e-01	-4.066204752e-04	1.400781051e-11
-6.200000000e-03	1.896602160e-01	-4.046921409e-04	1.003434384e-11
-6.300000000e-03	1.896602181e-01	-4.027638065e-04	1.102609934e-11
-6.400000000e-03	1.896602201e-01	-4.008354722e-04	5.855473303e-12
-6.500000000e-03	1.896602220e-01	-3.989071377e-04	6.074412795e-12
-6.600000000e-03	1.896602239e-01	-3.969788032e-04	1.121540994e-11
-6.700000000e-03	1.896602257e-01	-3.950504687e-04	9.173566460e-12
-6.800000000e-03	1.896602275e-01	-3.931221342e-04	1.251566209e-11
-6.900000000e-03	1.896602292e-01	-3.911937996e-04	6.637178010e-12
-7.000000000e-03	1.896602308e-01	-3.892654649e-04	1.368006905e-11
-7.100000000e-03	1.896602324e-01	-3.873371303e-04	1.681050846e-11
-7.200000000e-03	1.896602339e-01	-3.854087956e-04	7.769157479e-12
-7.300000000e-03	1.896602354e-01	-3.834804609e-04	2.867018120e-11
-7.400000000e-03	1.896602368e-01	-3.815521261e-04	2.719667545e-11
-7.500000000e-03	1.896602381e-01	-3.796237914e-04	1.012510379e-11
-7.600000000e-03	1.896602394e-01	-3.776954566e-04	1.077260698e-11
-7.700000000e-03	1.896602407e-01	-3.757671218e-04	4.214494119e-11
-7.800000000e-03	1.896602418e-01	-3.738387870e-04	1.165336491e-11
-7.900000000e-03	1.896602429e-01	-3.719104522e-04	8.683250190e-12
-8.000000000e-03	1.896602440e-01	-3.699821174e-04	1.617500577e-11
-8.100000000e-03	1.896602450e-01	-3.680537826e-04	1.369324477e-11
-8.200000000e-03	1.896602459e-01	-3.661254478e-04	1.749994162e-11
-8.300000000e-03	1.896602468e-01	-3.641971130e-04	7.246189564e-12
-8.400000000e-03	1.896602476e-01	-3.622687782e-04	9.960912729e-12
-8.500000000e-03	1.896602484e-01	-3.603404434e-04	1.711831394e-11
-8.600000000e-03	1.896602491e-01	-3.584121087e-04	1.329294067e-11
-8.700000000e-03	1.896602497e-01	-3.564837739e-04	1.265608713e-11
-8.800000000e-03	1.896602503e-01	-3.545554392e-04	7.525678831e-12
-8.900000000e-03	1.896602508e-01	-3.526271045e-04	9.794443007e-12
-9.000000000e-03	1.896602513e-01	-3.506987698e-04	1.999076561e-11
-9.100000000e-03	1.896602517e-01	-3.487704352e-04	8.083894464e-12
-9.200000000e-03	1.896602521e-01	-3.468421005e-04	1.413443729e-11
-9.300000000e-03	1.896602523e-01	-3.449137660e-04	8.560815853e-12
-9.400000000e-03	1.896602526e-01	-3.429854314e-04	1.835960677e-11
-9.500000000e-03	1.896602528e-01	-3.410570969e-04	6.903737826e-12
-9.600000000e-03	1.896602529e-01	-3.391287624e-04	7.965152890e-12
-9.700000000e-03	1.896602529e-01	-3.372004280e-04	3.848623812e-11
-9.800000000e-03	1.896602529e-01	-3.352720937e-04	1.238595359e-11
-9.900000000e-03	1.896602529e-01	-3.333437594e-04	7.857280472e-12
-1.000000000e-02	1.896602527e-01	-3.314154251e-04	1.074797244e-11
-1.010000000e-02	1.896602526e-01	-3.294870909e-04	1.315541207e-11
-1.020000000e-02	1.896602523e-01	-3.275587568e-04	1.557395240e-11
-1.030000000e-02	1.896602520e-01	-3.256304227e-04	7.938913446e-12
-1.040000000e-02	1.896602517e-01	-3.237020887e-04	1.648121928e-11
-1.050000000e-02	1.896602512e-01	-3.217737548e-04	7.320026505e-12
-1.060000000e-02	1.896602508e-01	-3.198454209e-04	3.355789938e-11
-1.070000000e-02	1.896602502e-01	-3.179170871e-04	2.379467084e-11
-1.080000000e-02	1.896602496e-01	-3.159887534e-04	9.939735024e-12
-1.090000000e-02	1.896602490e-01	-3.140604198e-04	2.152546789e-11
-1.100000000e-02	1.896602483e-01	-3.121320863e-04	1.639906405e-11
-1.110000000e-02	1.896602475e-01	-3.102037528e-04	4.812718280e-11
-1.120000000e-02	1.896602467e-01	-3.082754195e-04	1.114165315e-11
-1.130000000e-02	1.896602458e-01	-3.063470862e-04	2.763155364e-11
-1.140000000e-02	1.896602449e-01	-3.044187531e-04	3.356783354e-11
-1.150000000e-02	1.896602439e-01	-3.024904200e-04	9.059889991e-12
-1.160000000e-02	1.896602428e-01	-3.005620871e-04	1.214975529e-11
-1.170000000e-02	1.896602417e-01	-2.986337542e-04	4.336399569e-11
-1.180000000e-02	1.896602405e-01	-2.967054215e-04	1.145934987e-11
-1.190000000e-02	1.896602393e-01	-2.947770888e-04	9.945193850e-12
-1.200000000e-02	1.896602380e-01	-2.928487563e-04	9.995545486e-12
-1.210000000e-02	1.896602366e-01	-2.909204239e-04	1.009679576e-11
-1.220000000e-02	1.896602352e-01	-2.889920917e-04	9.015299748e-12
-1.230000000e-02	1.896602337e-01	-2.870637595e-04	1.233331366e-11
-1.240000000e-02	1.896602322e-01	-2.851354275e-04	7.632917241e-12
-1.250000000e-02	1.896602306e-01	-2.832070956e-04	1.195299714e-11
-1.260000000e-02	1.896602290e-01	-2.812787639e-04	1.210909057e-11
-1.270000000e-02	1.896602272e-01	-2.793504323e-04	2.197173978e-10
-1.280000000e-02	1.896602255e-01	-2.774221008e-04	3.229954731e-11
-1.290000000e-02	1.896602237e-01	-2.754937694e-04	6.907421707e-12
-1.300000000e-02	1.896602218e-01	-2.735654382e-04	1.183278396e-11
-1.310000000e-02	1.896602198e-01	-2.716371072e-04	1.145396436e-11
-1.320000000e-02	1.896602178e-01	-2.697087763e-04	1.270311043e-11
-1.330000000e-02	1.896602158e-01	-2.677804456e-04	9.591595945e-12
-1.340000000e-02	1.896602136e-01	-2.658521150e-04	1.593424752e-11
-1.350000000e-02	1.896602115e-01	-2.639237846e-04	2.394926358e-11
-1.360000000e-02	1.896602092e-01	-2.619954543e-04	9.646400584e-11
-1.370000000e-02	1.896602069e-01	-2.600671242e-04	1.260961414e-11
-1.380000000e-02	1.896602046e-01	-2.581387943e-04	1.619263228e-11
-1.390000000e-02	1.896602022e-01	-2.562104645e-04	1.009237519e-11
-1.400000000e-02	1.896601997e-01	-2.542821350e-04	6.913393292e-12
-1.410000000e-02	1.896601972e-01	-2.523538056e-04	8.847466460e-12
-1.420000000e-02	1.896601946e-01	-2.504254763e-04	9.424203936e-12
-1.430000000e-02	1.896601919e-01	-2.484971473e-04	1.592170302e-11
-1.440000000e-02	1.896601892e-01	-2.465688185e-04	1.110596332e-11
-1.450000000e-02	1.896601865e-01	-2.446404898e-04	1.309868762e-11
-1.460000000e-02	1.896601836e-01	-2.427121614e-04	1.734320357e-11
-1.470000000e-02	1.896601807e-01	-2.407838331e-04	8.388222542e-12
-1.480000000e-02	1.896601778e-01	-2.388555050e-04	7.620433087e-12
-1.490000000e-02	1.896601748e-01	-2.369271772e-04	3.225233528e-11
-1.500000000e-02	1.896601717e-01	-2.349988495e-04	8.516864521e-12
-1.510000000e-02	1.896601686e-01	-2.330705220e-04	8.788061564e-12
-1.520000000e-02	1.896601655e-01	-2.311421948e-04	1.278012707e-11
-1.530000000e-02	1.896601622e-01	-2.292138678e-04	1.581087977e-11
-1.540000000e-02	1.896601589e-01	-2.272855410e-04	1.237689705e-10
-1.550000000e-02	1.896601556e-01	-2.253572144e-04	1.869088044e-11
-1.560000000e-02	1.896601522e-01	-2.234288880e-04	2.959055398e-11
-1.570000000e-02	1.896601487e-01	-2.215005619e-04	1.344098613e-11
-1.580000000e-02	1.896601452e-01	-2.195722360e-04	4.288901825e-11
-1.590000000e-02	1.896601416e-01	-2.176439103e-04	4.399816121e-11
-1.600000000e-02	1.896601379e-01	-2.157155848e-04	1.744025981e-11
-1.610000000e-02	1.896601342e-01	-2.137872596e-04	1.257332824e-11
-1.620000000e-02	1.896601304e-01	-2.118589347e-04	9.874037284e-12
-1.630000000e-02	1.896601266e-01	-2.099306099e-04	9.322518838e-12
-1.640000000e-02	1.896601227e-01	-2.080022855e-04	1.132035001e-11
-1.650000000e-02	1.896601188e-01	-2.060739612e-04	8.670531978e-12
-1.660000000e-02	1.896601148e-01	-2.041456373e-04	1.164518479e-11
-1.670000000e-02	1.896601107e-01	-2.022173135e-04	1.249158169e-11
-1.680000000e-02	1.896601066e-01	-2.002889901e-04	1.142597383e-11
-1.690000000e-02	1.896601025e-01	-1.983606669e-04	1.000077324e-11
-1.700000000e-02	1.896600982e-01	-1.964323439e-04	5.489721049e-12
-1.710000000e-02	1.896600939e-01	-1.945040213e-04	1.202917548e-11
-1.720000000e-02	1.896600896e-01	-1.925756989e-04	6.890548465e-12
-1.730000000e-02	1.896600852e-01	-1.906473768e-04	9.414574332e-12
-1.740000000e-02	1.896600807e-01	-1.887190549e-04	1.710177336e-11
-1.750000000e-02	1.896600762e-01	-1.867907333e-04	3.888555031e-11
-1.760000000e-02	1.896600716e-01	-1.848624121e-04	1.357610298e-11
-1.770000000e-02	1.896600669e-01	-1.829340911e-04	1.147807617e-11
-1.780000000e-02	1.896600622e-01	-1.810057704e-04	1.104045548e-11
-1.790000000e-02	1.896600575e-01	-1.790774499e-04	1.558484542e-11
-1.800000000e-02	1.896600526e-01	-1.771491298e-04	8.168585456e-12
-1.810000000e-02	1.896600478e-01	-1.752208100e-04	1.141781749e-11
-1.820000000e-02	1.896600428e-01	-1.732924905e-04	1.119101382e-11
-1.830000000e-02	1.896600378e-01	-1.713641712e-04	7.628671426e-12
-1.840000000e-02	1.896600328e-01	-1.694358523e-04	2.340817484e-11
-1.850000000e-02	1.896600276e-01	-1.675075337e-04	2.831317807e-11
-1.860000000e-02	1.896600225e-01	-1.655792154e-04	1.104750175e-11
-1.870000000e-02	1.896600172e-01	-1.636508974e-04	9.418299166e-12
-1.880000000e-02	1.896600119e-01	-1.617225798e-04	3.913753887e-11
-1.890000000e-02	1.896600066e-01	-1.597942624e-04	1.540608536e-11
-1.900000000e-02	1.896600012e-01	-1.578659454e-04	5.168182685e-11
-1.910000000e-02	1.896599957e-01	-1.559376287e-04	1.876892612e-11
-1.920000000e-02	1.896599902e-01	-1.540093124e-04	3.453064452e-11
-1.930000000e-02	1.896599846e-01	-1.520809963e-04	1.500045792e-11
-1.940000000e-02	1.896599790e-01	-1.501526807e-04	1.028677818e-11
-1.950000000e-02	1.896599732e-01	-1.482243653e-04	7.797444711e-12
-1.960000000e-02	1.896599675e-01	-1.462960503e-04	6.788371831e-12
-1.970000000e-02	1.896599617e-01	-1.443677356e-04	2.415905568e-11
-1.980000000e-02	1.896599558e-01	-1.424394213e-04	1.009598911e-11
-1.990000000e-02	1.896599498e-01	-1.405111074e-04	7.142098366e-12
-2.000000000e-02	1.896599438e-01	-1.385827938e-04	3.566246712e-11
-2.010000000e-02	1.896599378e-01	-1.366544805e-04	1.131032303e-11
-2.020000000e-02	1.896599317e-01	-1.347261676e-04	1.021674691e-11
-2.030000000e-02	1.896599255e-01	-1.327978551e-04	9.930424863e-11
-2.040000000e-02	1.896599193e-01	-1.308695429e-04	4.343367560e-11
-2.050000000e-02	1.896599130e-01	-1.289412311e-04	1.779731467e-11
-2.060000000e-02	1.896599066e-01	-1.270129197e-04	1.869713831e-11
-2.070000000e-02	1.896599002e-01	-1.250846087e-04	7.363492276e-12
-2.080000000e-02	1.896598937e-01	-1.231562980e-04	7.285331284e-12
-2.090000000e-02	1.896598872e-01	-1.212279877e-04	1.238597088e-11
-2.100000000e-02	1.896598806e-01	-1.192996778e-04	1.202653942e-11
-2.110000000e-02	1.896598740e-01	-1.173713683e-04	1.623795951e-11
-2.120000000e-02	1.896598673e-01	-1.154430591e-04	2.037480119e-11
-2.130000000e-02	1.896598605e-01	-1.135147504e-04	1.180129675e-11
-2.140000000e-02	1.896598537e-01	-1.115864421e-04	1.216422905e-11
-2.150000000e-02	1.896598468e-01	-1.096581341e-04	4.438560061e-11
-2.160000000e-02	1.896598399e-01	-1.077298266e-04	6.727210863e-12
-2.170000000e-02	1.896598329e-01	-1.058015195e-04	1.440666328e-11
-2.180000000e-02	1.896598258e-01	-1.038732127e-04	1.884444132e-11
-2.190000000e-02	1.896598187e-01	-1.019449064e-04	1.310275418e-11
-2.200000000e-02	1.896598115e-01	-1.000166005e-04	7.962364753e-12
-2.210000000e-02	1.896598043e-01	-9.808829504e-05	1.036900656e-11
-2.220000000e-02	1.896597970e-01	-9.615998997e-05	7.265418624e-12
-2.230000000e-02	1.896597897e-01	-9.423168533e-05	1.011952138e-11
-2.240000000e-02	1.896597823e-01	-9.230338111e-05	9.575199255e-12
-2.250000000e-02	1.896597748e-01	-9.037507733e-05	1.279625782e-11
-2.260000000e-02	1.896597673e-01	-8.844677397e-05	1.066517801e-11
-2.270000000e-02	1.896597597e-01	-8.651847105e-05	1.733535531e-11
-2.280000000e-02	1.896597520e-01	-8.459016856e-05	5.605899800e-11
-2.290000000e-02	1.896597443e-01	-8.266186652e-05	6.713116085e-12
-2.300000000e-02	1.896597366e-01	-8.073356491e-05	3.660856545e-11
-2.310000000e-02	1.896597288e-01	-7.880526377e-05	4.843764911e-11
-2.320000000e-02	1.896597209e-01	-7.687696306e-05	1.438078547e-11
-2.330000000e-02	1.896597130e-01	-7.494866281e-05	2.086915838e-11
-2.340000000e-02	1.896597050e-01	-7.302036301e-05	1.026649506e-11
-2.350000000e-02	1.896596969e-01	-7.109206368e-05	1.186073868e-11
-2.360000000e-02	1.896596888e-01	-6.916376480e-05	6.836806463e-12
-2.370000000e-02	1.896596806e-01	-6.723546639e-05	9.499341690e-12
-2.380000000e-02	1.896596724e-01	-6.530716844e-05	8.285544348e-12
-2.390000000e-02	1.896596641e-01	-6.337887097e-05	1.096228897e-11
-2.400000000e-02	1.896596557e-01	-6.145057397e-05	2.142452465e-11
-2.410000000e-02	1.896596473e-01	-5.952227744e-05	1.541688165e-11
-2.420000000e-02	1.896596389e-01	-5.759398140e-05	1.127259321e-11
-2.430000000e-02	1.896596303e-01	-5.566568583e-05	4.179609056e-11
-2.440000000e-02	1.896596218e-01	-5.373739076e-05	1.497328860e-11
-2.450000000e-02	1.896596131e-01	-5.180909617e-05	1.797965402e-11
-2.460000000e-02	1.896596044e-01	-4.988080207e-05	1.575915144e-11
-2.470000000e-02	1.896595957e-01	-4.795250847e-05	1.104757756e-11
-2.480000000e-02	1.896595868e-01	-4.602421536e-05	1.822813864e-11
-2.490000000e-02	1.896595780e-01	-4.409592276e-05	1.324044697e-11
-2.500000000e-02	1.896595690e-01	-4.216763065e-05	9.500099178e-12
-2.510000000e-02	1.896595600e-01	-4.023933906e-05	2.686550748e-11
-2.520000000e-02	1.896595510e-01	-3.831104797e-05	1.245854839e-11
-2.530000000e-02	1.896595419e-01	-3.638275739e-05	2.346647583e-11
-2.540000000e-02	1.896595327e-01	-3.445446733e-05	1.431783319e-11
-2.550000000e-02	1.896595235e-01	-3.252617779e-05	1.545105144e-11
-2.560000000e-02	1.896595142e-01	-3.059788877e-05	1.437410907e-11
-2.570000000e-02	1.896595048e-01	-2.866960027e-05	1.586857746e-11
-2.580000000e-02	1.896594954e-01	-2.674131230e-05	1.603403833e-11
-2.590000000e-02	1.896594860e-01	-2.481302483e-05	2.593990299e-10
-2.600000000e-02	1.896594764e-01	-2.288473795e-05	1.339024694e-11
-2.610000000e-02	1.896594669e-01	-2.095645159e-05	1.182005305e-10
-2.620000000e-02	1.896594572e-01	-1.902816575e-05	1.668182656e-11
-2.630000000e-02	1.896594475e-01	-1.709988045e-05	5.033296235e-11
-2.640000000e-02	1.896594378e-01	-1.517159572e-05	2.578237098e-11
-2.650000000e-02	1.896594279e-01	-1.324331152e-05	1.422589137e-11
-2.660000000e-02	1.896594181e-01	-1.131502787e-05	5.986676724e-11
-2.670000000e-02	1.896594081e-01	-9.386744777e-06	7.763104550e-12
-2.680000000e-02	1.896593981e-01	-7.458462242e-06	2.559940329e-11
-2.690000000e-02	1.896593881e-01	-5.530180256e-06	6.905660796e-11
-2.700000000e-02	1.896593780e-01	-3.601898852e-06	8.455698839e-12
-2.710000000e-02	1.896593678e-01	-1.673618004e-06	1.314056654e-11
-2.720000000e-02	1.896593576e-01	2.546622722e-07	1.120853549e-11
-2.730000000e-02	1.896593473e-01	2.182941982e-06	1.564687648e-11
-2.740000000e-02	1.896593369e-01	4.111221113e-06	1.226043348e-11
-2.750000000e-02	1.896593265e-01	6.039499667e-06	1.586999649e-11
-2.760000000e-02	1.896593161e-01	7.967777641e-06	2.537130184e-11
-2.770000000e-02	1.896593055e-01	9.896055032e-06	3.455753549e-11
-2.780000000e-02	1.896592950e-01	1.182433183e-05	2.108556398e-11
-2.790000000e-02	1.896592843e-01	1.375260805e-05	7.359812536e-12
-2.800000000e-02	1.896592736e-01	1.568088367e-05	8.715944191e-12
-2.810000000e-02	1.896592629e-01	1.760915869e-05	3.177089807e-11
-2.820000000e-02	1.896592521e-01	1.953743312e-05	2.592413553e-11
-2.830000000e-02	1.896592412e-01	2.146570695e-05	2.500712022e-11
-2.840000000e-02	1.896592302e-01	2.339398016e-05	2.644789411e-11
-2.850000000e-02	1.896592192e-01	2.532225278e-05	1.748595686e-11
-2.860000000e-02	1.896592082e-01	2.725052478e-05	4.291967245e-11
-2.870000000e-02	1.896591971e-01	2.917879617e-05	2.819982430e-11
-2.880000000e-02	1.896591859e-01	3.110706695e-05	1.982848730e-11
-2.890000000e-02	1.896591747e-01	3.303533710e-05	1.252545090e-11
-2.900000000e-02	1.896591634e-01	3.496360663e-05	6.357802350e-12
-2.910000000e-02	1.896591521e-01	3.689187553e-05	1.704622521e-11
-2.920000000e-02	1.896591407e-01	3.882014381e-05	1.192483950e-11
-2.930000000e-02	1.896591292e-01	4.074841146e-05	9.279248712e-11
-2.940000000e-02	1.896591177e-01	4.267667847e-05	2.198413210e-11
-2.950000000e-02	1.896591061e-01	4.460494484e-05	1.134208864e-11
-2.960000000e-02	1.896590945e-01	4.653321057e-05	1.152322881e-11
-2.970000000e-02	1.896590828e-01	4.846147566e-05	1.175490345e-11
-2.980000000e-02	1.896590710e-01	5.038974011e-05	1.058212415e-11
-2.990000000e-02	1.896590592e-01	5.231800390e-05	2.434637402e-11
-3.000000000e-02	1.896590473e-01	5.424626704e-05	5.664498373e-12
