# Im(epsi1)     Re(omega/c)      Im(omega/c)      Eq(det).Opt det CON kz, R=0.5 \mum, mu_c=0.3, Re(epsi1)=3.90solve_det_conkz_vs_kz.py
0.000000000e+00	1.896489633e-01	-5.242224782e-04	3.913323385e-11
-1.000000000e-04	1.896489690e-01	-5.222942068e-04	1.283309216e-11
-2.000000000e-04	1.896489746e-01	-5.203659352e-04	1.286373536e-11
-3.000000000e-04	1.896489802e-01	-5.184376634e-04	3.748481930e-11
-4.000000000e-04	1.896489857e-01	-5.165093913e-04	7.633199427e-12
-5.000000000e-04	1.896489912e-01	-5.145811190e-04	9.486678857e-12
-6.000000000e-04	1.896489966e-01	-5.126528465e-04	9.659567688e-12
-7.000000000e-04	1.896490019e-01	-5.107245738e-04	7.268369074e-12
-8.000000000e-04	1.896490072e-01	-5.087963008e-04	2.171775395e-11
-9.000000000e-04	1.896490124e-01	-5.068680277e-04	1.008783831e-11
-1.000000000e-03	1.896490176e-01	-5.049397543e-04	4.697805079e-11
-1.100000000e-03	1.896490227e-01	-5.030114807e-04	1.127767211e-11
-1.200000000e-03	1.896490278e-01	-5.010832069e-04	1.090857303e-11
-1.300000000e-03	1.896490328e-01	-4.991549329e-04	1.044054901e-11
-1.400000000e-03	1.896490377e-01	-4.972266587e-04	3.255413827e-11
-1.500000000e-03	1.896490426e-01	-4.952983843e-04	1.006872347e-11
-1.600000000e-03	1.896490474e-01	-4.933701097e-04	3.513359566e-11
-1.700000000e-03	1.896490521e-01	-4.914418349e-04	1.786070169e-11
-1.800000000e-03	1.896490568e-01	-4.895135599e-04	1.383880961e-11
-1.900000000e-03	1.896490615e-01	-4.875852848e-04	2.049122845e-11
-2.000000000e-03	1.896490661e-01	-4.856570094e-04	1.017760837e-11
-2.100000000e-03	1.896490706e-01	-4.837287339e-04	1.412701136e-11
-2.200000000e-03	1.896490750e-01	-4.818004582e-04	1.199756454e-11
-2.300000000e-03	1.896490794e-01	-4.798721823e-04	1.070362801e-11
-2.400000000e-03	1.896490838e-01	-4.779439063e-04	5.957756914e-12
-2.500000000e-03	1.896490881e-01	-4.760156300e-04	1.058964431e-11
-2.600000000e-03	1.896490923e-01	-4.740873537e-04	1.661111634e-11
-2.700000000e-03	1.896490965e-01	-4.721590771e-04	8.163771736e-12
-2.800000000e-03	1.896491006e-01	-4.702308004e-04	1.539600658e-11
-2.900000000e-03	1.896491046e-01	-4.683025236e-04	2.452419973e-11
-3.000000000e-03	1.896491086e-01	-4.663742466e-04	1.413219683e-11
-3.100000000e-03	1.896491126e-01	-4.644459694e-04	2.173172953e-11
-3.200000000e-03	1.896491164e-01	-4.625176921e-04	2.040563793e-11
-3.300000000e-03	1.896491202e-01	-4.605894147e-04	7.741043165e-12
-3.400000000e-03	1.896491240e-01	-4.586611371e-04	2.113660528e-11
-3.500000000e-03	1.896491277e-01	-4.567328593e-04	7.402068382e-12
-3.600000000e-03	1.896491313e-01	-4.548045815e-04	1.635432580e-11
-3.700000000e-03	1.896491349e-01	-4.528763035e-04	6.466917312e-12
-3.800000000e-03	1.896491384e-01	-4.509480253e-04	8.892765701e-11
-3.900000000e-03	1.896491419e-01	-4.490197471e-04	1.131504303e-11
-4.000000000e-03	1.896491453e-01	-4.470914687e-04	1.013928511e-11
-4.100000000e-03	1.896491487e-01	-4.451631902e-04	3.201104960e-11
-4.200000000e-03	1.896491519e-01	-4.432349116e-04	2.586510367e-11
-4.300000000e-03	1.896491552e-01	-4.413066329e-04	1.345922391e-11
-4.400000000e-03	1.896491583e-01	-4.393783541e-04	9.787224709e-12
-4.500000000e-03	1.896491614e-01	-4.374500751e-04	1.048160861e-11
-4.600000000e-03	1.896491645e-01	-4.355217961e-04	6.962294068e-12
-4.700000000e-03	1.896491675e-01	-4.335935169e-04	1.116424074e-11
-4.800000000e-03	1.896491704e-01	-4.316652377e-04	2.200859165e-11
-4.900000000e-03	1.896491733e-01	-4.297369583e-04	2.140016322e-11
-5.000000000e-03	1.896491761e-01	-4.278086789e-04	8.223094384e-12
-5.100000000e-03	1.896491789e-01	-4.258803994e-04	1.229003883e-11
-5.200000000e-03	1.896491816e-01	-4.239521197e-04	8.483877773e-12
-5.300000000e-03	1.896491842e-01	-4.220238400e-04	2.621416206e-11
-5.400000000e-03	1.896491868e-01	-4.200955603e-04	6.110358640e-12
-5.500000000e-03	1.896491893e-01	-4.181672804e-04	1.718081603e-11
-5.600000000e-03	1.896491918e-01	-4.162390005e-04	7.933621073e-12
-5.700000000e-03	1.896491942e-01	-4.143107204e-04	1.676738267e-11
-5.800000000e-03	1.896491965e-01	-4.123824404e-04	3.227561243e-11
-5.900000000e-03	1.896491988e-01	-4.104541602e-04	8.987544092e-12
-6.000000000e-03	1.896492011e-01	-4.085258800e-04	1.204798622e-11
-6.100000000e-03	1.896492032e-01	-4.065975997e-04	2.130383859e-11
-6.200000000e-03	1.896492053e-01	-4.046693194e-04	8.538150174e-12
-6.300000000e-03	1.896492074e-01	-4.027410390e-04	8.638202217e-12
-6.400000000e-03	1.896492094e-01	-4.008127586e-04	8.781608560e-12
-6.500000000e-03	1.896492113e-01	-3.988844781e-04	1.571473198e-11
-6.600000000e-03	1.896492132e-01	-3.969561976e-04	1.950576004e-11
-6.700000000e-03	1.896492150e-01	-3.950279170e-04	2.832005990e-11
-6.800000000e-03	1.896492168e-01	-3.930996364e-04	3.114352975e-11
-6.900000000e-03	1.896492185e-01	-3.911713558e-04	1.963262819e-11
-7.000000000e-03	1.896492201e-01	-3.892430751e-04	2.401405910e-11
-7.100000000e-03	1.896492217e-01	-3.873147944e-04	1.192619089e-11
-7.200000000e-03	1.896492232e-01	-3.853865137e-04	1.912687603e-11
-7.300000000e-03	1.896492247e-01	-3.834582329e-04	1.335254434e-11
-7.400000000e-03	1.896492261e-01	-3.815299521e-04	1.123751604e-11
-7.500000000e-03	1.896492274e-01	-3.796016713e-04	9.833213141e-12
-7.600000000e-03	1.896492287e-01	-3.776733905e-04	1.188961998e-11
-7.700000000e-03	1.896492300e-01	-3.757451097e-04	2.355258731e-11
-7.800000000e-03	1.896492311e-01	-3.738168288e-04	1.315185443e-11
-7.900000000e-03	1.896492322e-01	-3.718885481e-04	6.112873145e-10
-8.000000000e-03	1.896492333e-01	-3.699602671e-04	1.237437689e-11
-8.100000000e-03	1.896492343e-01	-3.680319863e-04	5.951105734e-12
-8.200000000e-03	1.896492352e-01	-3.661037054e-04	1.312513171e-11
-8.300000000e-03	1.896492361e-01	-3.641754246e-04	7.568718417e-12
-8.400000000e-03	1.896492369e-01	-3.622471437e-04	5.634636804e-11
-8.500000000e-03	1.896492377e-01	-3.603188629e-04	9.260505113e-12
-8.600000000e-03	1.896492384e-01	-3.583905821e-04	7.959362128e-12
-8.700000000e-03	1.896492390e-01	-3.564623013e-04	8.565019297e-12
-8.800000000e-03	1.896492396e-01	-3.545340205e-04	1.802518297e-11
-8.900000000e-03	1.896492401e-01	-3.526057398e-04	9.706749896e-12
-9.000000000e-03	1.896492406e-01	-3.506774591e-04	7.548076329e-12
-9.100000000e-03	1.896492410e-01	-3.487491784e-04	1.474856620e-11
-9.200000000e-03	1.896492414e-01	-3.468208977e-04	2.410157419e-11
-9.300000000e-03	1.896492417e-01	-3.448926171e-04	2.492456034e-11
-9.400000000e-03	1.896492419e-01	-3.429643365e-04	3.198975089e-11
-9.500000000e-03	1.896492421e-01	-3.410360559e-04	1.394959170e-11
-9.600000000e-03	1.896492422e-01	-3.391077754e-04	4.234754901e-11
-9.700000000e-03	1.896492422e-01	-3.371794950e-04	1.297848832e-11
-9.800000000e-03	1.896492422e-01	-3.352512146e-04	8.188443527e-12
-9.900000000e-03	1.896492422e-01	-3.333229342e-04	1.383680540e-11
-1.000000000e-02	1.896492420e-01	-3.313946539e-04	1.794019657e-11
-1.010000000e-02	1.896492419e-01	-3.294663737e-04	9.060526526e-12
-1.020000000e-02	1.896492416e-01	-3.275380935e-04	1.241080072e-11
-1.030000000e-02	1.896492413e-01	-3.256098134e-04	9.342327545e-12
-1.040000000e-02	1.896492410e-01	-3.236815333e-04	5.503727983e-12
-1.050000000e-02	1.896492405e-01	-3.217532533e-04	6.247516923e-12
-1.060000000e-02	1.896492401e-01	-3.198249734e-04	3.265726142e-11
-1.070000000e-02	1.896492395e-01	-3.178966936e-04	7.978762829e-12
-1.080000000e-02	1.896492389e-01	-3.159684139e-04	1.107457181e-11
-1.090000000e-02	1.896492383e-01	-3.140401342e-04	1.428227749e-11
-1.100000000e-02	1.896492376e-01	-3.121118546e-04	1.933539417e-11
-1.110000000e-02	1.896492368e-01	-3.101835751e-04	1.236031974e-11
-1.120000000e-02	1.896492360e-01	-3.082552957e-04	1.822978485e-11
-1.130000000e-02	1.896492351e-01	-3.063270164e-04	2.063856265e-11
-1.140000000e-02	1.896492342e-01	-3.043987372e-04	1.156618321e-11
-1.150000000e-02	1.896492332e-01	-3.024704581e-04	1.247421938e-11
-1.160000000e-02	1.896492321e-01	-3.005421791e-04	7.694977089e-12
-1.170000000e-02	1.896492310e-01	-2.986139002e-04	1.286203486e-11
-1.180000000e-02	1.896492298e-01	-2.966856214e-04	1.826502660e-11
-1.190000000e-02	1.896492286e-01	-2.947573428e-04	9.965040102e-12
-1.200000000e-02	1.896492273e-01	-2.928290642e-04	1.064156575e-11
-1.210000000e-02	1.896492259e-01	-2.909007858e-04	7.818880002e-12
-1.220000000e-02	1.896492245e-01	-2.889725075e-04	1.052849302e-11
-1.230000000e-02	1.896492230e-01	-2.870442293e-04	7.695728484e-12
-1.240000000e-02	1.896492215e-01	-2.851159512e-04	2.683062800e-11
-1.250000000e-02	1.896492199e-01	-2.831876733e-04	7.410882407e-12
-1.260000000e-02	1.896492182e-01	-2.812593955e-04	6.797895001e-12
-1.270000000e-02	1.896492165e-01	-2.793311178e-04	3.255306357e-11
-1.280000000e-02	1.896492148e-01	-2.774028403e-04	6.688693377e-11
-1.290000000e-02	1.896492129e-01	-2.754745629e-04	1.664324563e-11
-1.300000000e-02	1.896492111e-01	-2.735462857e-04	1.142777781e-11
-1.310000000e-02	1.896492091e-01	-2.716180086e-04	6.347597560e-12
-1.320000000e-02	1.896492071e-01	-2.696897316e-04	6.878395619e-11
-1.330000000e-02	1.896492051e-01	-2.677614549e-04	3.782697625e-11
-1.340000000e-02	1.896492029e-01	-2.658331782e-04	3.392875749e-11
-1.350000000e-02	1.896492008e-01	-2.639049018e-04	8.516842400e-12
-1.360000000e-02	1.896491985e-01	-2.619766255e-04	2.579658237e-11
-1.370000000e-02	1.896491962e-01	-2.600483493e-04	2.090774943e-11
-1.380000000e-02	1.896491939e-01	-2.581200733e-04	1.172802560e-11
-1.390000000e-02	1.896491915e-01	-2.561917976e-04	1.243876407e-11
-1.400000000e-02	1.896491890e-01	-2.542635219e-04	9.723777372e-12
-1.410000000e-02	1.896491865e-01	-2.523352465e-04	9.369387903e-12
-1.420000000e-02	1.896491839e-01	-2.504069712e-04	1.132213209e-11
-1.430000000e-02	1.896491812e-01	-2.484786962e-04	9.408718068e-12
-1.440000000e-02	1.896491785e-01	-2.465504213e-04	2.318934843e-11
-1.450000000e-02	1.896491757e-01	-2.446221466e-04	2.395655925e-11
-1.460000000e-02	1.896491729e-01	-2.426938721e-04	1.148223124e-11
-1.470000000e-02	1.896491700e-01	-2.407655977e-04	3.791433124e-11
-1.480000000e-02	1.896491671e-01	-2.388373236e-04	1.171513299e-11
-1.490000000e-02	1.896491641e-01	-2.369090497e-04	1.004008878e-11
-1.500000000e-02	1.896491610e-01	-2.349807760e-04	2.447754480e-11
-1.510000000e-02	1.896491579e-01	-2.330525025e-04	9.184461188e-12
-1.520000000e-02	1.896491547e-01	-2.311242292e-04	1.199483194e-11
-1.530000000e-02	1.896491515e-01	-2.291959562e-04	1.165448212e-11
-1.540000000e-02	1.896491482e-01	-2.272676833e-04	7.900304367e-12
-1.550000000e-02	1.896491449e-01	-2.253394107e-04	1.128790310e-11
-1.560000000e-02	1.896491414e-01	-2.234111383e-04	2.132440330e-11
-1.570000000e-02	1.896491380e-01	-2.214828661e-04	1.042518602e-11
-1.580000000e-02	1.896491344e-01	-2.195545941e-04	2.243764312e-11
-1.590000000e-02	1.896491308e-01	-2.176263224e-04	2.005751356e-11
-1.600000000e-02	1.896491272e-01	-2.156980509e-04	4.642063559e-12
-1.610000000e-02	1.896491235e-01	-2.137697797e-04	1.454348500e-11
-1.620000000e-02	1.896491197e-01	-2.118415086e-04	1.379040375e-11
-1.630000000e-02	1.896491159e-01	-2.099132379e-04	3.152227104e-11
-1.640000000e-02	1.896491120e-01	-2.079849674e-04	1.783840332e-10
-1.650000000e-02	1.896491081e-01	-2.060566971e-04	1.792279631e-11
-1.660000000e-02	1.896491041e-01	-2.041284270e-04	1.538222001e-10
-1.670000000e-02	1.896491000e-01	-2.022001573e-04	1.216384339e-11
-1.680000000e-02	1.896490959e-01	-2.002718878e-04	7.021836792e-12
-1.690000000e-02	1.896490917e-01	-1.983436185e-04	9.717853650e-12
-1.700000000e-02	1.896490875e-01	-1.964153496e-04	1.154776063e-11
-1.710000000e-02	1.896490832e-01	-1.944870809e-04	1.329485870e-11
-1.720000000e-02	1.896490788e-01	-1.925588124e-04	1.483022865e-11
-1.730000000e-02	1.896490744e-01	-1.906305443e-04	1.184658368e-11
-1.740000000e-02	1.896490700e-01	-1.887022764e-04	2.448401467e-11
-1.750000000e-02	1.896490654e-01	-1.867740087e-04	1.331214756e-11
-1.760000000e-02	1.896490608e-01	-1.848457414e-04	2.193768206e-11
-1.770000000e-02	1.896490562e-01	-1.829174744e-04	1.122636940e-11
-1.780000000e-02	1.896490515e-01	-1.809892076e-04	3.269844691e-11
-1.790000000e-02	1.896490467e-01	-1.790609412e-04	1.922469856e-11
-1.800000000e-02	1.896490419e-01	-1.771326750e-04	8.667168727e-12
-1.810000000e-02	1.896490370e-01	-1.752044091e-04	6.384176075e-12
-1.820000000e-02	1.896490321e-01	-1.732761436e-04	2.636056981e-11
-1.830000000e-02	1.896490271e-01	-1.713478783e-04	7.891109742e-12
-1.840000000e-02	1.896490220e-01	-1.694196133e-04	1.263457882e-11
-1.850000000e-02	1.896490169e-01	-1.674913487e-04	1.718806397e-11
-1.860000000e-02	1.896490117e-01	-1.655630843e-04	8.640926696e-12
-1.870000000e-02	1.896490065e-01	-1.636348203e-04	2.053887272e-11
-1.880000000e-02	1.896490012e-01	-1.617065566e-04	1.312762983e-11
-1.890000000e-02	1.896489959e-01	-1.597782932e-04	1.301253310e-11
-1.900000000e-02	1.896489904e-01	-1.578500302e-04	1.819825499e-11
-1.910000000e-02	1.896489850e-01	-1.559217674e-04	1.392267942e-11
-1.920000000e-02	1.896489795e-01	-1.539935050e-04	1.447695884e-11
-1.930000000e-02	1.896489739e-01	-1.520652430e-04	7.999579783e-12
-1.940000000e-02	1.896489682e-01	-1.501369812e-04	1.065583300e-11
-1.950000000e-02	1.896489625e-01	-1.482087198e-04	7.899770050e-12
-1.960000000e-02	1.896489568e-01	-1.462804588e-04	3.613979589e-11
-1.970000000e-02	1.896489509e-01	-1.443521981e-04	1.221090222e-11
-1.980000000e-02	1.896489450e-01	-1.424239377e-04	1.222792742e-11
-1.990000000e-02	1.896489391e-01	-1.404956777e-04	8.426635169e-12
-2.000000000e-02	1.896489331e-01	-1.385674181e-04	2.242883762e-11
-2.010000000e-02	1.896489271e-01	-1.366391588e-04	1.515340837e-11
-2.020000000e-02	1.896489209e-01	-1.347108998e-04	3.039785472e-11
-2.030000000e-02	1.896489148e-01	-1.327826413e-04	5.764969883e-12
-2.040000000e-02	1.896489085e-01	-1.308543830e-04	2.249733327e-11
-2.050000000e-02	1.896489022e-01	-1.289261252e-04	7.285784149e-11
-2.060000000e-02	1.896488959e-01	-1.269978677e-04	1.047861916e-11
-2.070000000e-02	1.896488895e-01	-1.250696107e-04	7.790667998e-12
-2.080000000e-02	1.896488830e-01	-1.231413539e-04	1.139580088e-11
-2.090000000e-02	1.896488765e-01	-1.212130976e-04	9.377200564e-12
-2.100000000e-02	1.896488699e-01	-1.192848417e-04	7.666898669e-12
-2.110000000e-02	1.896488633e-01	-1.173565861e-04	9.006221783e-12
-2.120000000e-02	1.896488566e-01	-1.154283309e-04	1.335456894e-11
-2.130000000e-02	1.896488498e-01	-1.135000762e-04	1.629117842e-11
-2.140000000e-02	1.896488430e-01	-1.115718218e-04	4.758490823e-12
-2.150000000e-02	1.896488361e-01	-1.096435678e-04	1.231243762e-11
-2.160000000e-02	1.896488291e-01	-1.077153142e-04	6.476781806e-12
-2.170000000e-02	1.896488222e-01	-1.057870610e-04	9.708628113e-12
-2.180000000e-02	1.896488151e-01	-1.038588083e-04	6.443842363e-12
-2.190000000e-02	1.896488080e-01	-1.019305559e-04	9.823493327e-12
-2.200000000e-02	1.896488008e-01	-1.000023040e-04	8.653535522e-12
-2.210000000e-02	1.896487936e-01	-9.807405243e-05	1.118932743e-11
-2.220000000e-02	1.896487863e-01	-9.614580131e-05	5.729979431e-11
-2.230000000e-02	1.896487789e-01	-9.421755063e-05	1.545500012e-11
-2.240000000e-02	1.896487715e-01	-9.228930037e-05	1.099617793e-11
-2.250000000e-02	1.896487641e-01	-9.036105054e-05	8.759371025e-12
-2.260000000e-02	1.896487565e-01	-8.843280114e-05	1.516382167e-11
-2.270000000e-02	1.896487489e-01	-8.650455218e-05	1.189089682e-11
-2.280000000e-02	1.896487413e-01	-8.457630365e-05	2.478023367e-11
-2.290000000e-02	1.896487336e-01	-8.264805556e-05	7.128159621e-12
-2.300000000e-02	1.896487258e-01	-8.071980792e-05	1.081807084e-11
-2.310000000e-02	1.896487180e-01	-7.879156072e-05	2.483103834e-11
-2.320000000e-02	1.896487101e-01	-7.686331398e-05	9.237475713e-12
-2.330000000e-02	1.896487022e-01	-7.493506768e-05	2.474136689e-11
-2.340000000e-02	1.896486942e-01	-7.300682184e-05	1.808800635e-11
-2.350000000e-02	1.896486862e-01	-7.107857646e-05	1.440566232e-11
-2.360000000e-02	1.896486780e-01	-6.915033154e-05	2.122264779e-11
-2.370000000e-02	1.896486699e-01	-6.722208708e-05	5.103485569e-11
-2.380000000e-02	1.896486616e-01	-6.529384310e-05	1.645131126e-11
-2.390000000e-02	1.896486533e-01	-6.336559958e-05	1.080490130e-11
-2.400000000e-02	1.896486450e-01	-6.143735654e-05	1.251653811e-11
-2.410000000e-02	1.896486366e-01	-5.950911397e-05	6.826062490e-12
-2.420000000e-02	1.896486281e-01	-5.758087188e-05	1.040363839e-11
-2.430000000e-02	1.896486196e-01	-5.565263028e-05	5.328662797e-12
-2.440000000e-02	1.896486110e-01	-5.372438916e-05	1.743866589e-11
-2.450000000e-02	1.896486024e-01	-5.179614853e-05	7.715651575e-12
-2.460000000e-02	1.896485937e-01	-4.986790839e-05	9.480209620e-12
-2.470000000e-02	1.896485849e-01	-4.793966874e-05	8.630392845e-12
-2.480000000e-02	1.896485761e-01	-4.601142959e-05	1.513355358e-11
-2.490000000e-02	1.896485672e-01	-4.408319095e-05	2.969905495e-11
-2.500000000e-02	1.896485583e-01	-4.215495280e-05	8.668735715e-12
-2.510000000e-02	1.896485493e-01	-4.022671516e-05	1.374755767e-11
-2.520000000e-02	1.896485402e-01	-3.829847803e-05	1.007494701e-11
-2.530000000e-02	1.896485311e-01	-3.637024141e-05	1.927298535e-11
-2.540000000e-02	1.896485219e-01	-3.444200531e-05	5.147536312e-12
-2.550000000e-02	1.896485127e-01	-3.251376972e-05	1.377617561e-11
-2.560000000e-02	1.896485034e-01	-3.058553466e-05	1.457911863e-11
-2.570000000e-02	1.896484941e-01	-2.865730012e-05	2.172771874e-11
-2.580000000e-02	1.896484847e-01	-2.672906611e-05	3.539572555e-11
-2.590000000e-02	1.896484752e-01	-2.480083262e-05	5.435242822e-12
-2.600000000e-02	1.896484657e-01	-2.287259968e-05	7.324886167e-12
-2.610000000e-02	1.896484561e-01	-2.094436726e-05	1.742558195e-11
-2.620000000e-02	1.896484465e-01	-1.901613538e-05	2.279547029e-11
-2.630000000e-02	1.896484368e-01	-1.708790406e-05	1.706182054e-11
-2.640000000e-02	1.896484270e-01	-1.515967327e-05	9.133143944e-12
-2.650000000e-02	1.896484172e-01	-1.323144302e-05	3.095333624e-11
-2.660000000e-02	1.896484073e-01	-1.130321334e-05	2.027876114e-11
-2.670000000e-02	1.896483974e-01	-9.374984203e-06	1.401296961e-11
-2.680000000e-02	1.896483874e-01	-7.446755628e-06	1.331783016e-11
-2.690000000e-02	1.896483773e-01	-5.518527610e-06	1.562261374e-11
-2.700000000e-02	1.896483672e-01	-3.590300153e-06	1.959919294e-11
-2.710000000e-02	1.896483570e-01	-1.662073273e-06	5.690530399e-11
-2.720000000e-02	1.896483468e-01	2.661530546e-07	2.074549373e-11
-2.730000000e-02	1.896483365e-01	2.194378800e-06	2.941781516e-11
-2.740000000e-02	1.896483262e-01	4.122603980e-06	6.698486836e-12
-2.750000000e-02	1.896483158e-01	6.050828575e-06	2.271086719e-11
-2.760000000e-02	1.896483053e-01	7.979052589e-06	1.387033810e-11
-2.770000000e-02	1.896482948e-01	9.907276021e-06	1.001875334e-11
-2.780000000e-02	1.896482842e-01	1.183549887e-05	9.336240695e-12
-2.790000000e-02	1.896482736e-01	1.376372112e-05	9.022165162e-12
-2.800000000e-02	1.896482629e-01	1.569194279e-05	1.808837840e-11
-2.810000000e-02	1.896482521e-01	1.762016385e-05	2.578815139e-11
-2.820000000e-02	1.896482413e-01	1.954838432e-05	3.126906138e-11
-2.830000000e-02	1.896482304e-01	2.147660419e-05	5.922954712e-11
-2.840000000e-02	1.896482195e-01	2.340482345e-05	1.166504295e-11
-2.850000000e-02	1.896482085e-01	2.533304210e-05	8.675731450e-12
-2.860000000e-02	1.896481974e-01	2.726126015e-05	6.625928298e-12
-2.870000000e-02	1.896481863e-01	2.918947758e-05	2.078647666e-11
-2.880000000e-02	1.896481752e-01	3.111769439e-05	6.530793225e-12
-2.890000000e-02	1.896481639e-01	3.304591059e-05	1.488414423e-11
-2.900000000e-02	1.896481526e-01	3.497412616e-05	3.472440346e-11
-2.910000000e-02	1.896481413e-01	3.690234110e-05	1.402092039e-11
-2.920000000e-02	1.896481299e-01	3.883055542e-05	7.654136200e-12
-2.930000000e-02	1.896481184e-01	4.075876911e-05	6.473095603e-12
-2.940000000e-02	1.896481069e-01	4.268698216e-05	1.353007583e-11
-2.950000000e-02	1.896480953e-01	4.461519458e-05	1.252787225e-11
-2.960000000e-02	1.896480837e-01	4.654340635e-05	2.505707517e-11
-2.970000000e-02	1.896480720e-01	4.847161748e-05	9.969623714e-12
-2.980000000e-02	1.896480602e-01	5.039982796e-05	1.412853322e-11
-2.990000000e-02	1.896480484e-01	5.232803780e-05	1.181636167e-11
-3.000000000e-02	1.896480365e-01	5.425624699e-05	2.325792030e-11
