# Im(epsi1)     Re(omega/c)      Im(omega/c)      Eq(det).Opt det CON kz, R=0.5 \mum, mu_c=0.3, Re(epsi1)=3.90solve_det_conkz_vs_kz.py
0.000000000e+00	1.896547770e-01	-5.242370106e-04	1.521281217e-11
-1.000000000e-04	1.896547827e-01	-5.223087108e-04	1.359140934e-11
-2.000000000e-04	1.896547883e-01	-5.203804107e-04	2.929778425e-11
-3.000000000e-04	1.896547939e-01	-5.184521104e-04	1.331395892e-11
-4.000000000e-04	1.896547994e-01	-5.165238099e-04	2.802031864e-11
-5.000000000e-04	1.896548049e-01	-5.145955091e-04	2.746787588e-11
-6.000000000e-04	1.896548103e-01	-5.126672082e-04	8.094663302e-12
-7.000000000e-04	1.896548156e-01	-5.107389070e-04	1.165015481e-11
-8.000000000e-04	1.896548209e-01	-5.088106055e-04	1.523650158e-11
-9.000000000e-04	1.896548261e-01	-5.068823039e-04	1.250608713e-11
-1.000000000e-03	1.896548313e-01	-5.049540020e-04	6.880719078e-12
-1.100000000e-03	1.896548364e-01	-5.030257000e-04	1.620285475e-11
-1.200000000e-03	1.896548414e-01	-5.010973977e-04	7.346030285e-12
-1.300000000e-03	1.896548464e-01	-4.991690953e-04	2.745191018e-11
-1.400000000e-03	1.896548514e-01	-4.972407926e-04	1.580792969e-11
-1.500000000e-03	1.896548562e-01	-4.953124897e-04	8.188292784e-12
-1.600000000e-03	1.896548611e-01	-4.933841866e-04	6.938966528e-12
-1.700000000e-03	1.896548658e-01	-4.914558834e-04	9.148072072e-12
-1.800000000e-03	1.896548705e-01	-4.895275799e-04	2.329959629e-11
-1.900000000e-03	1.896548752e-01	-4.875992763e-04	2.572702734e-11
-2.000000000e-03	1.896548797e-01	-4.856709725e-04	7.712474749e-12
-2.100000000e-03	1.896548843e-01	-4.837426685e-04	1.451649333e-11
-2.200000000e-03	1.896548887e-01	-4.818143643e-04	1.150852394e-11
-2.300000000e-03	1.896548931e-01	-4.798860600e-04	3.439654340e-11
-2.400000000e-03	1.896548975e-01	-4.779577555e-04	1.494527320e-11
-2.500000000e-03	1.896549018e-01	-4.760294508e-04	2.669735405e-11
-2.600000000e-03	1.896549060e-01	-4.741011460e-04	1.077112703e-11
-2.700000000e-03	1.896549101e-01	-4.721728410e-04	1.079210642e-11
-2.800000000e-03	1.896549143e-01	-4.702445358e-04	1.128944897e-11
-2.900000000e-03	1.896549183e-01	-4.683162305e-04	1.928315379e-11
-3.000000000e-03	1.896549223e-01	-4.663879250e-04	1.001630911e-11
-3.100000000e-03	1.896549262e-01	-4.644596194e-04	1.509937977e-11
-3.200000000e-03	1.896549301e-01	-4.625313136e-04	2.019302992e-11
-3.300000000e-03	1.896549339e-01	-4.606030077e-04	1.594726758e-11
-3.400000000e-03	1.896549377e-01	-4.586747016e-04	3.550341548e-11
-3.500000000e-03	1.896549414e-01	-4.567463954e-04	1.282061345e-11
-3.600000000e-03	1.896549450e-01	-4.548180891e-04	8.258176423e-12
-3.700000000e-03	1.896549486e-01	-4.528897826e-04	1.265618128e-11
-3.800000000e-03	1.896549521e-01	-4.509614760e-04	2.522502466e-11
-3.900000000e-03	1.896549556e-01	-4.490331693e-04	1.924982331e-11
-4.000000000e-03	1.896549590e-01	-4.471048625e-04	7.118291867e-12
-4.100000000e-03	1.896549623e-01	-4.451765555e-04	1.089652822e-11
-4.200000000e-03	1.896549656e-01	-4.432482484e-04	7.615233149e-12
-4.300000000e-03	1.896549689e-01	-4.413199412e-04	7.570538965e-12
-4.400000000e-03	1.896549720e-01	-4.393916339e-04	1.949082595e-11
-4.500000000e-03	1.896549751e-01	-4.374633265e-04	1.279201198e-11
-4.600000000e-03	1.896549782e-01	-4.355350190e-04	2.535534499e-11
-4.700000000e-03	1.896549812e-01	-4.336067114e-04	6.985562272e-11
-4.800000000e-03	1.896549841e-01	-4.316784037e-04	1.403540309e-11
-4.900000000e-03	1.896549870e-01	-4.297500959e-04	1.883589232e-11
-5.000000000e-03	1.896549898e-01	-4.278217880e-04	1.300813300e-11
-5.100000000e-03	1.896549926e-01	-4.258934800e-04	5.284936875e-11
-5.200000000e-03	1.896549953e-01	-4.239651719e-04	1.734636259e-11
-5.300000000e-03	1.896549979e-01	-4.220368637e-04	1.392563809e-11
-5.400000000e-03	1.896550005e-01	-4.201085555e-04	1.690201088e-11
-5.500000000e-03	1.896550030e-01	-4.181802471e-04	2.114053225e-11
-5.600000000e-03	1.896550055e-01	-4.162519387e-04	1.103595729e-11
-5.700000000e-03	1.896550079e-01	-4.143236302e-04	1.053426193e-11
-5.800000000e-03	1.896550102e-01	-4.123953217e-04	1.339612915e-11
-5.900000000e-03	1.896550125e-01	-4.104670131e-04	7.460161319e-12
-6.000000000e-03	1.896550147e-01	-4.085387044e-04	6.416985469e-12
-6.100000000e-03	1.896550169e-01	-4.066103957e-04	2.109248044e-11
-6.200000000e-03	1.896550190e-01	-4.046820869e-04	1.002966672e-11
-6.300000000e-03	1.896550211e-01	-4.027537780e-04	1.202757211e-11
-6.400000000e-03	1.896550231e-01	-4.008254691e-04	1.774902358e-11
-6.500000000e-03	1.896550250e-01	-3.988971602e-04	1.540183416e-11
-6.600000000e-03	1.896550269e-01	-3.969688512e-04	1.096994955e-11
-6.700000000e-03	1.896550287e-01	-3.950405422e-04	1.185034916e-11
-6.800000000e-03	1.896550305e-01	-3.931122331e-04	1.668763864e-11
-6.900000000e-03	1.896550322e-01	-3.911839240e-04	1.195842227e-11
-7.000000000e-03	1.896550338e-01	-3.892556148e-04	1.245329058e-11
-7.100000000e-03	1.896550354e-01	-3.873273057e-04	1.369448438e-10
-7.200000000e-03	1.896550369e-01	-3.853989964e-04	3.630230556e-11
-7.300000000e-03	1.896550384e-01	-3.834706872e-04	8.701426708e-12
-7.400000000e-03	1.896550398e-01	-3.815423780e-04	7.425945998e-12
-7.500000000e-03	1.896550411e-01	-3.796140687e-04	7.149194616e-12
-7.600000000e-03	1.896550424e-01	-3.776857594e-04	1.104850438e-11
-7.700000000e-03	1.896550437e-01	-3.757574501e-04	1.894832150e-11
-7.800000000e-03	1.896550448e-01	-3.738291408e-04	1.571037846e-11
-7.900000000e-03	1.896550459e-01	-3.719008315e-04	1.953843458e-11
-8.000000000e-03	1.896550470e-01	-3.699725222e-04	8.716161611e-12
-8.100000000e-03	1.896550480e-01	-3.680442128e-04	1.323195119e-11
-8.200000000e-03	1.896550489e-01	-3.661159035e-04	1.090973245e-11
-8.300000000e-03	1.896550498e-01	-3.641875942e-04	1.504953738e-11
-8.400000000e-03	1.896550506e-01	-3.622592849e-04	1.575624256e-11
-8.500000000e-03	1.896550514e-01	-3.603309756e-04	1.229492451e-11
-8.600000000e-03	1.896550521e-01	-3.584026663e-04	1.107691785e-11
-8.700000000e-03	1.896550527e-01	-3.564743571e-04	7.360094888e-12
-8.800000000e-03	1.896550533e-01	-3.545460478e-04	5.880316854e-12
-8.900000000e-03	1.896550538e-01	-3.526177386e-04	9.508654488e-12
-9.000000000e-03	1.896550543e-01	-3.506894294e-04	2.567051386e-11
-9.100000000e-03	1.896550547e-01	-3.487611203e-04	1.512534733e-11
-9.200000000e-03	1.896550551e-01	-3.468328111e-04	1.404686196e-11
-9.300000000e-03	1.896550553e-01	-3.449045020e-04	3.158741344e-11
-9.400000000e-03	1.896550556e-01	-3.429761930e-04	1.371445940e-11
-9.500000000e-03	1.896550558e-01	-3.410478840e-04	5.046708611e-12
-9.600000000e-03	1.896550559e-01	-3.391195750e-04	9.058303470e-12
-9.700000000e-03	1.896550559e-01	-3.371912661e-04	5.321302198e-12
-9.800000000e-03	1.896550559e-01	-3.352629572e-04	1.436581264e-11
-9.900000000e-03	1.896550559e-01	-3.333346484e-04	8.432975150e-12
-1.000000000e-02	1.896550557e-01	-3.314063396e-04	2.991950863e-11
-1.010000000e-02	1.896550556e-01	-3.294780309e-04	5.941088933e-12
-1.020000000e-02	1.896550553e-01	-3.275497222e-04	1.616840845e-11
-1.030000000e-02	1.896550550e-01	-3.256214136e-04	1.920832526e-11
-1.040000000e-02	1.896550547e-01	-3.236931051e-04	1.528358789e-11
-1.050000000e-02	1.896550542e-01	-3.217647967e-04	1.286178489e-11
-1.060000000e-02	1.896550538e-01	-3.198364883e-04	4.170825374e-11
-1.070000000e-02	1.896550532e-01	-3.179081800e-04	9.543411370e-12
-1.080000000e-02	1.896550526e-01	-3.159798718e-04	1.122024361e-11
-1.090000000e-02	1.896550520e-01	-3.140515637e-04	1.474775114e-11
-1.100000000e-02	1.896550513e-01	-3.121232556e-04	5.043792513e-12
-1.110000000e-02	1.896550505e-01	-3.101949477e-04	2.126036807e-11
-1.120000000e-02	1.896550497e-01	-3.082666398e-04	2.289646866e-11
-1.130000000e-02	1.896550488e-01	-3.063383320e-04	1.037787805e-11
-1.140000000e-02	1.896550479e-01	-3.044100244e-04	1.080127252e-11
-1.150000000e-02	1.896550469e-01	-3.024817168e-04	1.343923964e-11
-1.160000000e-02	1.896550458e-01	-3.005534093e-04	8.999538301e-12
-1.170000000e-02	1.896550447e-01	-2.986251019e-04	4.122020461e-11
-1.180000000e-02	1.896550435e-01	-2.966967947e-04	1.124692382e-11
-1.190000000e-02	1.896550423e-01	-2.947684876e-04	1.280290832e-11
-1.200000000e-02	1.896550410e-01	-2.928401805e-04	1.649259055e-11
-1.210000000e-02	1.896550396e-01	-2.909118736e-04	6.350850215e-12
-1.220000000e-02	1.896550382e-01	-2.889835668e-04	1.451718034e-11
-1.230000000e-02	1.896550367e-01	-2.870552602e-04	2.977118340e-11
-1.240000000e-02	1.896550352e-01	-2.851269537e-04	5.874395731e-12
-1.250000000e-02	1.896550336e-01	-2.831986473e-04	3.119837537e-11
-1.260000000e-02	1.896550320e-01	-2.812703410e-04	7.057855497e-12
-1.270000000e-02	1.896550302e-01	-2.793420348e-04	7.394782356e-12
-1.280000000e-02	1.896550285e-01	-2.774137289e-04	7.931778309e-11
-1.290000000e-02	1.896550267e-01	-2.754854230e-04	1.342167878e-11
-1.300000000e-02	1.896550248e-01	-2.735571173e-04	1.471283627e-11
-1.310000000e-02	1.896550228e-01	-2.716288117e-04	1.198531266e-11
-1.320000000e-02	1.896550208e-01	-2.697005063e-04	7.431832132e-12
-1.330000000e-02	1.896550188e-01	-2.677722011e-04	7.713359682e-12
-1.340000000e-02	1.896550166e-01	-2.658438960e-04	8.608790598e-12
-1.350000000e-02	1.896550145e-01	-2.639155911e-04	1.864685930e-11
-1.360000000e-02	1.896550122e-01	-2.619872863e-04	7.418780008e-12
-1.370000000e-02	1.896550099e-01	-2.600589817e-04	1.011043345e-11
-1.380000000e-02	1.896550076e-01	-2.581306772e-04	1.563963581e-11
-1.390000000e-02	1.896550052e-01	-2.562023730e-04	7.083551899e-12
-1.400000000e-02	1.896550027e-01	-2.542740689e-04	1.133954981e-11
-1.410000000e-02	1.896550002e-01	-2.523457650e-04	2.709093094e-11
-1.420000000e-02	1.896549976e-01	-2.504174612e-04	8.896963145e-12
-1.430000000e-02	1.896549949e-01	-2.484891577e-04	1.912241040e-11
-1.440000000e-02	1.896549922e-01	-2.465608543e-04	1.598837468e-11
-1.450000000e-02	1.896549895e-01	-2.446325512e-04	2.146424818e-11
-1.460000000e-02	1.896549866e-01	-2.427042482e-04	1.803719361e-11
-1.470000000e-02	1.896549837e-01	-2.407759454e-04	1.194740862e-11
-1.480000000e-02	1.896549808e-01	-2.388476428e-04	1.891824572e-11
-1.490000000e-02	1.896549778e-01	-2.369193405e-04	1.171967769e-11
-1.500000000e-02	1.896549747e-01	-2.349910383e-04	1.143745182e-11
-1.510000000e-02	1.896549716e-01	-2.330627363e-04	1.240390800e-11
-1.520000000e-02	1.896549684e-01	-2.311344346e-04	8.580191162e-12
-1.530000000e-02	1.896549652e-01	-2.292061330e-04	5.483282124e-12
-1.540000000e-02	1.896549619e-01	-2.272778317e-04	1.501239230e-11
-1.550000000e-02	1.896549586e-01	-2.253495306e-04	1.863884884e-11
-1.560000000e-02	1.896549551e-01	-2.234212297e-04	2.045570736e-11
-1.570000000e-02	1.896549517e-01	-2.214929291e-04	1.548270093e-11
-1.580000000e-02	1.896549481e-01	-2.195646286e-04	7.388370470e-12
-1.590000000e-02	1.896549446e-01	-2.176363284e-04	1.134850060e-11
-1.600000000e-02	1.896549409e-01	-2.157080285e-04	1.174062884e-11
-1.610000000e-02	1.896549372e-01	-2.137797288e-04	6.494652297e-12
-1.620000000e-02	1.896549334e-01	-2.118514293e-04	2.638211609e-11
-1.630000000e-02	1.896549296e-01	-2.099231300e-04	1.123218019e-11
-1.640000000e-02	1.896549257e-01	-2.079948311e-04	6.399779725e-12
-1.650000000e-02	1.896549218e-01	-2.060665323e-04	4.655747332e-11
-1.660000000e-02	1.896549178e-01	-2.041382338e-04	1.172729683e-11
-1.670000000e-02	1.896549137e-01	-2.022099356e-04	1.048109950e-11
-1.680000000e-02	1.896549096e-01	-2.002816376e-04	2.286557837e-11
-1.690000000e-02	1.896549054e-01	-1.983533399e-04	2.301559486e-11
-1.700000000e-02	1.896549012e-01	-1.964250425e-04	1.341865345e-11
-1.710000000e-02	1.896548969e-01	-1.944967453e-04	1.277054842e-11
-1.720000000e-02	1.896548926e-01	-1.925684484e-04	8.892716169e-12
-1.730000000e-02	1.896548881e-01	-1.906401517e-04	1.131121024e-11
-1.740000000e-02	1.896548837e-01	-1.887118554e-04	1.184882198e-11
-1.750000000e-02	1.896548792e-01	-1.867835593e-04	1.286694254e-11
-1.760000000e-02	1.896548746e-01	-1.848552635e-04	1.409926438e-11
-1.770000000e-02	1.896548699e-01	-1.829269680e-04	8.662976868e-12
-1.780000000e-02	1.896548652e-01	-1.809986728e-04	4.557812924e-12
-1.790000000e-02	1.896548604e-01	-1.790703778e-04	1.771987110e-11
-1.800000000e-02	1.896548556e-01	-1.771420832e-04	2.894443168e-11
-1.810000000e-02	1.896548507e-01	-1.752137889e-04	8.918924882e-12
-1.820000000e-02	1.896548458e-01	-1.732854948e-04	2.046104857e-11
-1.830000000e-02	1.896548408e-01	-1.713572011e-04	1.323373028e-11
-1.840000000e-02	1.896548357e-01	-1.694289077e-04	1.947603013e-11
-1.850000000e-02	1.896548306e-01	-1.675006145e-04	6.796591841e-12
-1.860000000e-02	1.896548255e-01	-1.655723217e-04	9.592624940e-11
-1.870000000e-02	1.896548202e-01	-1.636440292e-04	1.861336558e-11
-1.880000000e-02	1.896548149e-01	-1.617157371e-04	3.399872091e-11
-1.890000000e-02	1.896548096e-01	-1.597874452e-04	1.367707694e-11
-1.900000000e-02	1.896548042e-01	-1.578591537e-04	1.216507435e-11
-1.910000000e-02	1.896547987e-01	-1.559308625e-04	2.027993208e-11
-1.920000000e-02	1.896547932e-01	-1.540025716e-04	1.355991428e-11
-1.930000000e-02	1.896547876e-01	-1.520742811e-04	2.299680935e-11
-1.940000000e-02	1.896547819e-01	-1.501459909e-04	1.017560011e-11
-1.950000000e-02	1.896547762e-01	-1.482177010e-04	2.950861182e-11
-1.960000000e-02	1.896547705e-01	-1.462894115e-04	3.438552184e-11
-1.970000000e-02	1.896547646e-01	-1.443611223e-04	2.075731288e-11
-1.980000000e-02	1.896547588e-01	-1.424328335e-04	1.102040154e-11
-1.990000000e-02	1.896547528e-01	-1.405045450e-04	1.513628339e-11
-2.000000000e-02	1.896547468e-01	-1.385762569e-04	1.846408975e-11
-2.010000000e-02	1.896547408e-01	-1.366479691e-04	1.464826169e-11
-2.020000000e-02	1.896547347e-01	-1.347196817e-04	6.231405610e-12
-2.030000000e-02	1.896547285e-01	-1.327913947e-04	9.301509435e-12
-2.040000000e-02	1.896547223e-01	-1.308631080e-04	1.911120598e-11
-2.050000000e-02	1.896547160e-01	-1.289348217e-04	1.137280155e-11
-2.060000000e-02	1.896547096e-01	-1.270065358e-04	1.388812342e-11
-2.070000000e-02	1.896547032e-01	-1.250782502e-04	4.804849402e-12
-2.080000000e-02	1.896546967e-01	-1.231499650e-04	1.784061161e-11
-2.090000000e-02	1.896546902e-01	-1.212216802e-04	2.547187824e-11
-2.100000000e-02	1.896546836e-01	-1.192933958e-04	2.072402323e-11
-2.110000000e-02	1.896546770e-01	-1.173651118e-04	5.825225021e-11
-2.120000000e-02	1.896546703e-01	-1.154368281e-04	1.555243201e-11
-2.130000000e-02	1.896546635e-01	-1.135085449e-04	3.528415947e-11
-2.140000000e-02	1.896546567e-01	-1.115802620e-04	6.958353422e-12
-2.150000000e-02	1.896546498e-01	-1.096519796e-04	1.350454970e-11
-2.160000000e-02	1.896546429e-01	-1.077236975e-04	2.547351437e-11
-2.170000000e-02	1.896546359e-01	-1.057954159e-04	1.777475514e-11
-2.180000000e-02	1.896546288e-01	-1.038671346e-04	1.860494663e-11
-2.190000000e-02	1.896546217e-01	-1.019388538e-04	8.776035884e-12
-2.200000000e-02	1.896546145e-01	-1.000105734e-04	5.008019126e-11
-2.210000000e-02	1.896546073e-01	-9.808229339e-05	7.141159718e-11
-2.220000000e-02	1.896546000e-01	-9.615401381e-05	2.833418538e-11
-2.230000000e-02	1.896545927e-01	-9.422573466e-05	2.219324777e-11
-2.240000000e-02	1.896545853e-01	-9.229745594e-05	2.233290096e-11
-2.250000000e-02	1.896545778e-01	-9.036917763e-05	1.192389280e-11
-2.260000000e-02	1.896545703e-01	-8.844089977e-05	1.157789875e-11
-2.270000000e-02	1.896545627e-01	-8.651262231e-05	1.314510621e-10
-2.280000000e-02	1.896545550e-01	-8.458434534e-05	2.355923837e-11
-2.290000000e-02	1.896545473e-01	-8.265606878e-05	2.532692297e-11
-2.300000000e-02	1.896545396e-01	-8.072779266e-05	7.075170086e-12
-2.310000000e-02	1.896545317e-01	-7.879951700e-05	2.062292808e-11
-2.320000000e-02	1.896545239e-01	-7.687124178e-05	1.409160022e-11
-2.330000000e-02	1.896545159e-01	-7.494296701e-05	2.290013563e-11
-2.340000000e-02	1.896545079e-01	-7.301469271e-05	1.815827793e-11
-2.350000000e-02	1.896544999e-01	-7.108641886e-05	7.959675266e-12
-2.360000000e-02	1.896544918e-01	-6.915814547e-05	1.188455536e-11
-2.370000000e-02	1.896544836e-01	-6.722987254e-05	5.592646447e-11
-2.380000000e-02	1.896544754e-01	-6.530160009e-05	3.862076191e-11
-2.390000000e-02	1.896544671e-01	-6.337332810e-05	1.991130489e-11
-2.400000000e-02	1.896544587e-01	-6.144505659e-05	2.806436173e-11
-2.410000000e-02	1.896544503e-01	-5.951678555e-05	8.405707522e-12
-2.420000000e-02	1.896544419e-01	-5.758851499e-05	2.915661816e-11
-2.430000000e-02	1.896544333e-01	-5.566024492e-05	5.728772574e-12
-2.440000000e-02	1.896544247e-01	-5.373197533e-05	8.992207259e-12
-2.450000000e-02	1.896544161e-01	-5.180370623e-05	1.875881235e-11
-2.460000000e-02	1.896544074e-01	-4.987543761e-05	1.440433637e-11
-2.470000000e-02	1.896543986e-01	-4.794716950e-05	1.162165720e-11
-2.480000000e-02	1.896543898e-01	-4.601890188e-05	2.879398875e-11
-2.490000000e-02	1.896543809e-01	-4.409063476e-05	7.481787289e-12
-2.500000000e-02	1.896543720e-01	-4.216236814e-05	1.401313313e-11
-2.510000000e-02	1.896543630e-01	-4.023410203e-05	2.181071083e-11
-2.520000000e-02	1.896543540e-01	-3.830583644e-05	2.002502645e-11
-2.530000000e-02	1.896543448e-01	-3.637757135e-05	3.394396888e-11
-2.540000000e-02	1.896543357e-01	-3.444930678e-05	2.074808209e-11
-2.550000000e-02	1.896543264e-01	-3.252104272e-05	1.433795256e-11
-2.560000000e-02	1.896543172e-01	-3.059277919e-05	1.164355927e-11
-2.570000000e-02	1.896543078e-01	-2.866451618e-05	9.268708535e-12
-2.580000000e-02	1.896542984e-01	-2.673625370e-05	1.768878179e-11
-2.590000000e-02	1.896542889e-01	-2.480799174e-05	2.269100896e-11
-2.600000000e-02	1.896542794e-01	-2.287973032e-05	2.412725296e-11
-2.610000000e-02	1.896542698e-01	-2.095146944e-05	1.152241177e-11
-2.620000000e-02	1.896542602e-01	-1.902320910e-05	1.387371550e-11
-2.630000000e-02	1.896542505e-01	-1.709494929e-05	1.364453210e-11
-2.640000000e-02	1.896542407e-01	-1.516669003e-05	9.750359398e-12
-2.650000000e-02	1.896542309e-01	-1.323843133e-05	2.159688619e-11
-2.660000000e-02	1.896542210e-01	-1.131017316e-05	5.653471472e-11
-2.670000000e-02	1.896542111e-01	-9.381915559e-06	3.292789638e-11
-2.680000000e-02	1.896542011e-01	-7.453658513e-06	1.348977785e-11
-2.690000000e-02	1.896541911e-01	-5.525402022e-06	1.990424275e-11
-2.700000000e-02	1.896541809e-01	-3.597146099e-06	5.944563840e-12
-2.710000000e-02	1.896541708e-01	-1.668890739e-06	2.725291323e-11
-2.720000000e-02	1.896541605e-01	2.593640632e-07	7.871315628e-11
-2.730000000e-02	1.896541503e-01	2.187618273e-06	2.373826005e-11
-2.740000000e-02	1.896541399e-01	4.115871914e-06	7.275655432e-12
-2.750000000e-02	1.896541295e-01	6.044124983e-06	1.309889879e-11
-2.760000000e-02	1.896541190e-01	7.972377465e-06	6.744839352e-12
-2.770000000e-02	1.896541085e-01	9.900629369e-06	1.256530720e-11
-2.780000000e-02	1.896540979e-01	1.182888068e-05	8.984220885e-12
-2.790000000e-02	1.896540873e-01	1.375713141e-05	9.430783055e-12
-2.800000000e-02	1.896540766e-01	1.568538154e-05	2.597595022e-11
-2.810000000e-02	1.896540658e-01	1.761363108e-05	2.593336873e-11
-2.820000000e-02	1.896540550e-01	1.954188002e-05	2.172880431e-11
-2.830000000e-02	1.896540442e-01	2.147012836e-05	8.416055965e-12
-2.840000000e-02	1.896540332e-01	2.339837609e-05	4.173410497e-11
-2.850000000e-02	1.896540222e-01	2.532662320e-05	6.988010838e-11
-2.860000000e-02	1.896540112e-01	2.725486973e-05	1.051440491e-11
-2.870000000e-02	1.896540001e-01	2.918311563e-05	1.121649613e-11
-2.880000000e-02	1.896539889e-01	3.111136091e-05	9.593946795e-12
-2.890000000e-02	1.896539777e-01	3.303960558e-05	1.524559300e-11
-2.900000000e-02	1.896539664e-01	3.496784962e-05	1.165725039e-11
-2.910000000e-02	1.896539550e-01	3.689609304e-05	9.690099842e-12
-2.920000000e-02	1.896539436e-01	3.882433583e-05	1.006013204e-11
-2.930000000e-02	1.896539322e-01	4.075257798e-05	9.469156746e-12
-2.940000000e-02	1.896539206e-01	4.268081951e-05	1.575592764e-11
-2.950000000e-02	1.896539091e-01	4.460906039e-05	2.049903578e-11
-2.960000000e-02	1.896538974e-01	4.653730063e-05	1.686833821e-11
-2.970000000e-02	1.896538857e-01	4.846554024e-05	7.264558103e-12
-2.980000000e-02	1.896538740e-01	5.039377920e-05	1.040803489e-11
-2.990000000e-02	1.896538622e-01	5.232201750e-05	7.545567756e-12
-3.000000000e-02	1.896538503e-01	5.425025515e-05	2.341221171e-11
