# Im(epsi1)     Re(omega/c)      Im(omega/c)      Eq(det).Opt det CON kz, R=0.5 \mum, mu_c=0.3, Re(epsi1)=3.90solve_det_conkz_vs_kz.py
0.000000000e+00	1.896803078e-01	-5.242818549e-04	1.893726505e-11
-1.000000000e-04	1.896803135e-01	-5.223534296e-04	1.026477895e-11
-2.000000000e-04	1.896803191e-01	-5.204250039e-04	1.382315069e-11
-3.000000000e-04	1.896803247e-01	-5.184965781e-04	1.108055514e-11
-4.000000000e-04	1.896803302e-01	-5.165681520e-04	1.015880314e-11
-5.000000000e-04	1.896803357e-01	-5.146397257e-04	1.309223320e-11
-6.000000000e-04	1.896803411e-01	-5.127112992e-04	1.474956746e-11
-7.000000000e-04	1.896803465e-01	-5.107828724e-04	1.516144287e-11
-8.000000000e-04	1.896803517e-01	-5.088544455e-04	6.296947405e-11
-9.000000000e-04	1.896803570e-01	-5.069260183e-04	1.056711708e-11
-1.000000000e-03	1.896803621e-01	-5.049975909e-04	2.636283729e-11
-1.100000000e-03	1.896803672e-01	-5.030691633e-04	3.217499319e-11
-1.200000000e-03	1.896803723e-01	-5.011407355e-04	9.604953944e-11
-1.300000000e-03	1.896803773e-01	-4.992123075e-04	4.103682260e-11
-1.400000000e-03	1.896803822e-01	-4.972838792e-04	1.190421291e-11
-1.500000000e-03	1.896803871e-01	-4.953554508e-04	9.554808279e-12
-1.600000000e-03	1.896803919e-01	-4.934270222e-04	1.401567439e-11
-1.700000000e-03	1.896803967e-01	-4.914985934e-04	2.809923157e-11
-1.800000000e-03	1.896804014e-01	-4.895701644e-04	4.922850756e-11
-1.900000000e-03	1.896804060e-01	-4.876417352e-04	1.655600087e-11
-2.000000000e-03	1.896804106e-01	-4.857133059e-04	2.473311474e-11
-2.100000000e-03	1.896804151e-01	-4.837848763e-04	6.737921714e-12
-2.200000000e-03	1.896804196e-01	-4.818564466e-04	9.159405497e-12
-2.300000000e-03	1.896804240e-01	-4.799280167e-04	1.964812603e-11
-2.400000000e-03	1.896804283e-01	-4.779995867e-04	7.209977053e-12
-2.500000000e-03	1.896804326e-01	-4.760711565e-04	1.851056398e-11
-2.600000000e-03	1.896804368e-01	-4.741427261e-04	8.489446654e-12
-2.700000000e-03	1.896804410e-01	-4.722142955e-04	1.638972017e-11
-2.800000000e-03	1.896804451e-01	-4.702858648e-04	1.731599168e-11
-2.900000000e-03	1.896804492e-01	-4.683574339e-04	3.355852977e-11
-3.000000000e-03	1.896804532e-01	-4.664290029e-04	1.573647585e-11
-3.100000000e-03	1.896804571e-01	-4.645005717e-04	1.495700130e-11
-3.200000000e-03	1.896804610e-01	-4.625721404e-04	4.537101124e-12
-3.300000000e-03	1.896804648e-01	-4.606437090e-04	1.142764853e-11
-3.400000000e-03	1.896804685e-01	-4.587152773e-04	3.634069772e-11
-3.500000000e-03	1.896804722e-01	-4.567868456e-04	7.218712205e-12
-3.600000000e-03	1.896804759e-01	-4.548584137e-04	1.379605203e-11
-3.700000000e-03	1.896804795e-01	-4.529299817e-04	1.949138086e-11
-3.800000000e-03	1.896804830e-01	-4.510015496e-04	1.450626090e-11
-3.900000000e-03	1.896804864e-01	-4.490731173e-04	7.434444072e-12
-4.000000000e-03	1.896804898e-01	-4.471446849e-04	1.778490670e-11
-4.100000000e-03	1.896804932e-01	-4.452162524e-04	2.891777266e-11
-4.200000000e-03	1.896804965e-01	-4.432878198e-04	1.230152487e-11
-4.300000000e-03	1.896804997e-01	-4.413593871e-04	1.193207845e-11
-4.400000000e-03	1.896805029e-01	-4.394309542e-04	5.691305035e-11
-4.500000000e-03	1.896805060e-01	-4.375025213e-04	1.092034524e-11
-4.600000000e-03	1.896805090e-01	-4.355740882e-04	9.507869044e-12
-4.700000000e-03	1.896805120e-01	-4.336456550e-04	7.228299740e-12
-4.800000000e-03	1.896805150e-01	-4.317172218e-04	1.013282487e-11
-4.900000000e-03	1.896805178e-01	-4.297887884e-04	9.836362930e-12
-5.000000000e-03	1.896805207e-01	-4.278603549e-04	1.587489951e-11
-5.100000000e-03	1.896805234e-01	-4.259319214e-04	4.309184740e-11
-5.200000000e-03	1.896805261e-01	-4.240034878e-04	1.472540416e-11
-5.300000000e-03	1.896805288e-01	-4.220750541e-04	7.122571170e-12
-5.400000000e-03	1.896805313e-01	-4.201466203e-04	8.927298053e-12
-5.500000000e-03	1.896805339e-01	-4.182181864e-04	1.956814862e-11
-5.600000000e-03	1.896805363e-01	-4.162897524e-04	1.943470445e-11
-5.700000000e-03	1.896805387e-01	-4.143613184e-04	2.525879346e-11
-5.800000000e-03	1.896805411e-01	-4.124328843e-04	1.403374936e-11
-5.900000000e-03	1.896805434e-01	-4.105044502e-04	9.650165714e-12
-6.000000000e-03	1.896805456e-01	-4.085760159e-04	2.539958576e-11
-6.100000000e-03	1.896805478e-01	-4.066475817e-04	1.182587587e-11
-6.200000000e-03	1.896805499e-01	-4.047191473e-04	7.896816205e-12
-6.300000000e-03	1.896805519e-01	-4.027907129e-04	1.231524179e-11
-6.400000000e-03	1.896805539e-01	-4.008622785e-04	8.596140868e-12
-6.500000000e-03	1.896805559e-01	-3.989338440e-04	1.262271885e-11
-6.600000000e-03	1.896805577e-01	-3.970054094e-04	2.758717144e-11
-6.700000000e-03	1.896805596e-01	-3.950769749e-04	8.539384536e-12
-6.800000000e-03	1.896805613e-01	-3.931485402e-04	1.292233610e-11
-6.900000000e-03	1.896805630e-01	-3.912201056e-04	2.236088492e-11
-7.000000000e-03	1.896805647e-01	-3.892916709e-04	1.157054429e-11
-7.100000000e-03	1.896805663e-01	-3.873632362e-04	2.556114128e-11
-7.200000000e-03	1.896805678e-01	-3.854348014e-04	1.236463686e-11
-7.300000000e-03	1.896805692e-01	-3.835063666e-04	8.884164936e-12
-7.400000000e-03	1.896805706e-01	-3.815779318e-04	1.364466900e-11
-7.500000000e-03	1.896805720e-01	-3.796494970e-04	1.757633211e-11
-7.600000000e-03	1.896805733e-01	-3.777210622e-04	1.253097544e-11
-7.700000000e-03	1.896805745e-01	-3.757926273e-04	1.508255447e-11
-7.800000000e-03	1.896805757e-01	-3.738641925e-04	1.065124029e-11
-7.900000000e-03	1.896805768e-01	-3.719357576e-04	1.993075840e-11
-8.000000000e-03	1.896805779e-01	-3.700073228e-04	1.439780944e-11
-8.100000000e-03	1.896805789e-01	-3.680788879e-04	6.006362777e-12
-8.200000000e-03	1.896805798e-01	-3.661504530e-04	1.818382942e-11
-8.300000000e-03	1.896805807e-01	-3.642220182e-04	5.383121825e-12
-8.400000000e-03	1.896805815e-01	-3.622935833e-04	1.328638994e-11
-8.500000000e-03	1.896805822e-01	-3.603651485e-04	2.757776626e-11
-8.600000000e-03	1.896805829e-01	-3.584367137e-04	7.374095024e-12
-8.700000000e-03	1.896805836e-01	-3.565082788e-04	2.227074882e-11
-8.800000000e-03	1.896805842e-01	-3.545798441e-04	3.655216447e-11
-8.900000000e-03	1.896805847e-01	-3.526514093e-04	1.129442216e-11
-9.000000000e-03	1.896805852e-01	-3.507229746e-04	3.603482403e-11
-9.100000000e-03	1.896805856e-01	-3.487945398e-04	1.468159927e-11
-9.200000000e-03	1.896805859e-01	-3.468661052e-04	1.167784055e-11
-9.300000000e-03	1.896805862e-01	-3.449376705e-04	8.072041424e-12
-9.400000000e-03	1.896805864e-01	-3.430092359e-04	1.037747434e-11
-9.500000000e-03	1.896805866e-01	-3.410808014e-04	4.240297171e-12
-9.600000000e-03	1.896805867e-01	-3.391523668e-04	3.312706909e-11
-9.700000000e-03	1.896805868e-01	-3.372239324e-04	4.805063206e-12
-9.800000000e-03	1.896805868e-01	-3.352954979e-04	1.238588776e-11
-9.900000000e-03	1.896805867e-01	-3.333670636e-04	1.476298028e-11
-1.000000000e-02	1.896805866e-01	-3.314386292e-04	1.876792552e-11
-1.010000000e-02	1.896805864e-01	-3.295101950e-04	7.233929945e-12
-1.020000000e-02	1.896805862e-01	-3.275817608e-04	8.201084989e-12
-1.030000000e-02	1.896805859e-01	-3.256533267e-04	5.089063783e-11
-1.040000000e-02	1.896805855e-01	-3.237248926e-04	1.336639031e-11
-1.050000000e-02	1.896805851e-01	-3.217964586e-04	7.169714754e-12
-1.060000000e-02	1.896805846e-01	-3.198680247e-04	1.191652363e-11
-1.070000000e-02	1.896805841e-01	-3.179395909e-04	3.687758536e-11
-1.080000000e-02	1.896805835e-01	-3.160111571e-04	1.245245712e-11
-1.090000000e-02	1.896805829e-01	-3.140827234e-04	9.138889432e-12
-1.100000000e-02	1.896805822e-01	-3.121542898e-04	8.309824727e-12
-1.110000000e-02	1.896805814e-01	-3.102258563e-04	2.286658090e-11
-1.120000000e-02	1.896805806e-01	-3.082974229e-04	1.569019342e-11
-1.130000000e-02	1.896805797e-01	-3.063689896e-04	1.606368325e-11
-1.140000000e-02	1.896805787e-01	-3.044405564e-04	9.991078610e-12
-1.150000000e-02	1.896805777e-01	-3.025121233e-04	1.209268889e-11
-1.160000000e-02	1.896805767e-01	-3.005836902e-04	6.162478648e-12
-1.170000000e-02	1.896805756e-01	-2.986552573e-04	4.621964506e-11
-1.180000000e-02	1.896805744e-01	-2.967268245e-04	7.818086148e-12
-1.190000000e-02	1.896805731e-01	-2.947983918e-04	1.020241612e-11
-1.200000000e-02	1.896805718e-01	-2.928699593e-04	1.116356142e-11
-1.210000000e-02	1.896805705e-01	-2.909415268e-04	1.442051483e-11
-1.220000000e-02	1.896805691e-01	-2.890130945e-04	1.488712906e-11
-1.230000000e-02	1.896805676e-01	-2.870846623e-04	1.546993414e-11
-1.240000000e-02	1.896805661e-01	-2.851562302e-04	1.311085064e-11
-1.250000000e-02	1.896805645e-01	-2.832277983e-04	2.085957096e-11
-1.260000000e-02	1.896805628e-01	-2.812993664e-04	4.513201958e-12
-1.270000000e-02	1.896805611e-01	-2.793709348e-04	1.029801608e-11
-1.280000000e-02	1.896805594e-01	-2.774425032e-04	1.303995710e-11
-1.290000000e-02	1.896805575e-01	-2.755140718e-04	3.339327803e-11
-1.300000000e-02	1.896805556e-01	-2.735856406e-04	2.403874620e-11
-1.310000000e-02	1.896805537e-01	-2.716572095e-04	1.105798632e-11
-1.320000000e-02	1.896805517e-01	-2.697287785e-04	3.008195866e-11
-1.330000000e-02	1.896805496e-01	-2.678003477e-04	2.784120927e-11
-1.340000000e-02	1.896805475e-01	-2.658719171e-04	1.356068923e-11
-1.350000000e-02	1.896805453e-01	-2.639434866e-04	2.277797075e-11
-1.360000000e-02	1.896805431e-01	-2.620150563e-04	1.160962384e-11
-1.370000000e-02	1.896805408e-01	-2.600866261e-04	1.286923441e-11
-1.380000000e-02	1.896805385e-01	-2.581581961e-04	6.843471054e-12
-1.390000000e-02	1.896805360e-01	-2.562297663e-04	2.230789623e-11
-1.400000000e-02	1.896805336e-01	-2.543013367e-04	1.074822788e-11
-1.410000000e-02	1.896805310e-01	-2.523729072e-04	1.026542261e-11
-1.420000000e-02	1.896805285e-01	-2.504444780e-04	3.597168152e-11
-1.430000000e-02	1.896805258e-01	-2.485160489e-04	1.700239641e-11
-1.440000000e-02	1.896805231e-01	-2.465876200e-04	2.959597872e-11
-1.450000000e-02	1.896805203e-01	-2.446591912e-04	4.016034205e-11
-1.460000000e-02	1.896805175e-01	-2.427307627e-04	2.285471818e-11
-1.470000000e-02	1.896805146e-01	-2.408023344e-04	1.229625419e-11
-1.480000000e-02	1.896805117e-01	-2.388739063e-04	1.250646327e-11
-1.490000000e-02	1.896805087e-01	-2.369454783e-04	1.370282630e-11
-1.500000000e-02	1.896805056e-01	-2.350170506e-04	5.854485607e-12
-1.510000000e-02	1.896805025e-01	-2.330886231e-04	8.500578028e-12
-1.520000000e-02	1.896804993e-01	-2.311601958e-04	8.767014463e-12
-1.530000000e-02	1.896804961e-01	-2.292317687e-04	1.955059430e-11
-1.540000000e-02	1.896804928e-01	-2.273033418e-04	7.370652671e-12
-1.550000000e-02	1.896804894e-01	-2.253749152e-04	5.857746577e-12
-1.560000000e-02	1.896804860e-01	-2.234464888e-04	6.063142613e-11
-1.570000000e-02	1.896804826e-01	-2.215180626e-04	8.485717926e-12
-1.580000000e-02	1.896804790e-01	-2.195896366e-04	7.391629452e-12
-1.590000000e-02	1.896804754e-01	-2.176612109e-04	2.904359030e-11
-1.600000000e-02	1.896804718e-01	-2.157327853e-04	1.592715654e-11
-1.610000000e-02	1.896804681e-01	-2.138043601e-04	8.133772896e-12
-1.620000000e-02	1.896804643e-01	-2.118759350e-04	6.684004196e-12
-1.630000000e-02	1.896804605e-01	-2.099475103e-04	1.692607875e-11
-1.640000000e-02	1.896804566e-01	-2.080190857e-04	1.110685724e-11
-1.650000000e-02	1.896804527e-01	-2.060906614e-04	7.534647050e-12
-1.660000000e-02	1.896804487e-01	-2.041622374e-04	1.606482758e-11
-1.670000000e-02	1.896804446e-01	-2.022338136e-04	7.884745218e-12
-1.680000000e-02	1.896804405e-01	-2.003053901e-04	3.646447817e-11
-1.690000000e-02	1.896804363e-01	-1.983769668e-04	1.594593155e-11
-1.700000000e-02	1.896804321e-01	-1.964485438e-04	1.326056783e-11
-1.710000000e-02	1.896804278e-01	-1.945201211e-04	1.500396568e-11
-1.720000000e-02	1.896804235e-01	-1.925916987e-04	1.252659888e-11
-1.730000000e-02	1.896804190e-01	-1.906632765e-04	1.122966080e-11
-1.740000000e-02	1.896804146e-01	-1.887348546e-04	7.252416935e-12
-1.750000000e-02	1.896804100e-01	-1.868064329e-04	7.995357232e-12
-1.760000000e-02	1.896804055e-01	-1.848780116e-04	1.241446689e-11
-1.770000000e-02	1.896804008e-01	-1.829495905e-04	2.471604656e-11
-1.780000000e-02	1.896803961e-01	-1.810211698e-04	1.764206034e-11
-1.790000000e-02	1.896803913e-01	-1.790927493e-04	2.749270441e-11
-1.800000000e-02	1.896803865e-01	-1.771643291e-04	1.390770504e-11
-1.810000000e-02	1.896803816e-01	-1.752359092e-04	1.488982461e-11
-1.820000000e-02	1.896803767e-01	-1.733074896e-04	9.147055958e-12
-1.830000000e-02	1.896803717e-01	-1.713790703e-04	1.969413252e-11
-1.840000000e-02	1.896803666e-01	-1.694506514e-04	2.093828697e-11
-1.850000000e-02	1.896803615e-01	-1.675222327e-04	1.584536432e-11
-1.860000000e-02	1.896803564e-01	-1.655938143e-04	1.382900282e-11
-1.870000000e-02	1.896803511e-01	-1.636653963e-04	5.086527857e-11
-1.880000000e-02	1.896803458e-01	-1.617369786e-04	9.471201507e-12
-1.890000000e-02	1.896803405e-01	-1.598085612e-04	1.653053904e-11
-1.900000000e-02	1.896803351e-01	-1.578801441e-04	7.181475925e-12
-1.910000000e-02	1.896803296e-01	-1.559517273e-04	1.455786699e-11
-1.920000000e-02	1.896803241e-01	-1.540233109e-04	1.528846227e-11
-1.930000000e-02	1.896803185e-01	-1.520948948e-04	5.170866014e-11
-1.940000000e-02	1.896803128e-01	-1.501664791e-04	6.877415258e-12
-1.950000000e-02	1.896803071e-01	-1.482380637e-04	4.098706202e-11
-1.960000000e-02	1.896803014e-01	-1.463096486e-04	1.699728723e-11
-1.970000000e-02	1.896802956e-01	-1.443812339e-04	8.761651806e-12
-1.980000000e-02	1.896802897e-01	-1.424528195e-04	4.496470696e-11
-1.990000000e-02	1.896802837e-01	-1.405244055e-04	8.257454180e-12
-2.000000000e-02	1.896802777e-01	-1.385959918e-04	1.478024881e-11
-2.010000000e-02	1.896802717e-01	-1.366675785e-04	7.137144124e-12
-2.020000000e-02	1.896802656e-01	-1.347391655e-04	1.114437071e-11
-2.030000000e-02	1.896802594e-01	-1.328107530e-04	8.115388033e-12
-2.040000000e-02	1.896802532e-01	-1.308823407e-04	2.236187432e-11
-2.050000000e-02	1.896802469e-01	-1.289539289e-04	5.921454068e-12
-2.060000000e-02	1.896802405e-01	-1.270255174e-04	2.025985451e-11
-2.070000000e-02	1.896802341e-01	-1.250971063e-04	2.964358370e-11
-2.080000000e-02	1.896802276e-01	-1.231686956e-04	1.399990912e-11
-2.090000000e-02	1.896802211e-01	-1.212402852e-04	1.848796783e-11
-2.100000000e-02	1.896802145e-01	-1.193118752e-04	6.678717221e-12
-2.110000000e-02	1.896802079e-01	-1.173834657e-04	1.448771584e-11
-2.120000000e-02	1.896802012e-01	-1.154550565e-04	1.909152013e-11
-2.130000000e-02	1.896801944e-01	-1.135266477e-04	1.433161121e-11
-2.140000000e-02	1.896801876e-01	-1.115982393e-04	6.408362358e-12
-2.150000000e-02	1.896801807e-01	-1.096698313e-04	5.171799112e-12
-2.160000000e-02	1.896801738e-01	-1.077414237e-04	2.847972986e-11
-2.170000000e-02	1.896801668e-01	-1.058130165e-04	2.416419842e-11
-2.180000000e-02	1.896801597e-01	-1.038846097e-04	8.172268711e-12
-2.190000000e-02	1.896801526e-01	-1.019562033e-04	2.049038672e-11
-2.200000000e-02	1.896801454e-01	-1.000277973e-04	8.407639437e-12
-2.210000000e-02	1.896801382e-01	-9.809939180e-05	1.786763923e-11
-2.220000000e-02	1.896801309e-01	-9.617098667e-05	7.289756888e-12
-2.230000000e-02	1.896801236e-01	-9.424258197e-05	1.039859430e-11
-2.240000000e-02	1.896801162e-01	-9.231417769e-05	1.366271218e-11
-2.250000000e-02	1.896801087e-01	-9.038577384e-05	2.697842780e-11
-2.260000000e-02	1.896801012e-01	-8.845737042e-05	3.625205316e-11
-2.270000000e-02	1.896800936e-01	-8.652896744e-05	9.646463086e-12
-2.280000000e-02	1.896800859e-01	-8.460056489e-05	7.634256456e-12
-2.290000000e-02	1.896800782e-01	-8.267216278e-05	1.600287694e-11
-2.300000000e-02	1.896800705e-01	-8.074376112e-05	1.915176770e-11
-2.310000000e-02	1.896800627e-01	-7.881535991e-05	1.341948311e-11
-2.320000000e-02	1.896800548e-01	-7.688695914e-05	1.756179801e-11
-2.330000000e-02	1.896800468e-01	-7.495855883e-05	1.702401157e-11
-2.340000000e-02	1.896800389e-01	-7.303015897e-05	1.056119469e-11
-2.350000000e-02	1.896800308e-01	-7.110175957e-05	1.009313930e-11
-2.360000000e-02	1.896800227e-01	-6.917336063e-05	9.804148056e-12
-2.370000000e-02	1.896800145e-01	-6.724496215e-05	7.679309697e-12
-2.380000000e-02	1.896800063e-01	-6.531656415e-05	2.079861017e-11
-2.390000000e-02	1.896799980e-01	-6.338816661e-05	1.237332364e-11
-2.400000000e-02	1.896799896e-01	-6.145976955e-05	1.244743358e-11
-2.410000000e-02	1.896799812e-01	-5.953137296e-05	6.018925383e-12
-2.420000000e-02	1.896799728e-01	-5.760297685e-05	2.996467502e-11
-2.430000000e-02	1.896799642e-01	-5.567458123e-05	6.945932513e-12
-2.440000000e-02	1.896799557e-01	-5.374618609e-05	1.148580513e-11
-2.450000000e-02	1.896799470e-01	-5.181779144e-05	1.813213734e-11
-2.460000000e-02	1.896799383e-01	-4.988939727e-05	1.715477469e-11
-2.470000000e-02	1.896799296e-01	-4.796100361e-05	1.230654956e-11
-2.480000000e-02	1.896799207e-01	-4.603261043e-05	5.091538093e-11
-2.490000000e-02	1.896799119e-01	-4.410421777e-05	5.385803966e-11
-2.500000000e-02	1.896799029e-01	-4.217582560e-05	1.830891122e-11
-2.510000000e-02	1.896798939e-01	-4.024743394e-05	1.031647014e-11
-2.520000000e-02	1.896798849e-01	-3.831904280e-05	1.451419779e-10
-2.530000000e-02	1.896798758e-01	-3.639065215e-05	5.794080356e-11
-2.540000000e-02	1.896798666e-01	-3.446226203e-05	9.211995459e-12
-2.550000000e-02	1.896798574e-01	-3.253387242e-05	1.002562023e-10
-2.560000000e-02	1.896798481e-01	-3.060548334e-05	1.631760667e-11
-2.570000000e-02	1.896798387e-01	-2.867709478e-05	1.040888131e-11
-2.580000000e-02	1.896798293e-01	-2.674870675e-05	1.031816412e-11
-2.590000000e-02	1.896798199e-01	-2.482031924e-05	3.461406023e-11
-2.600000000e-02	1.896798103e-01	-2.289193227e-05	8.630186963e-12
-2.610000000e-02	1.896798008e-01	-2.096354584e-05	3.587067351e-11
-2.620000000e-02	1.896797911e-01	-1.903515994e-05	1.133288127e-11
-2.630000000e-02	1.896797814e-01	-1.710677459e-05	1.647393152e-11
-2.640000000e-02	1.896797717e-01	-1.517838978e-05	1.051655299e-11
-2.650000000e-02	1.896797618e-01	-1.325000552e-05	2.291326589e-11
-2.660000000e-02	1.896797520e-01	-1.132162181e-05	1.898037657e-11
-2.670000000e-02	1.896797420e-01	-9.393238652e-06	8.218191935e-12
-2.680000000e-02	1.896797320e-01	-7.464856054e-06	3.200787334e-11
-2.690000000e-02	1.896797220e-01	-5.536474013e-06	1.063321600e-11
-2.700000000e-02	1.896797119e-01	-3.608092536e-06	1.770627674e-11
-2.710000000e-02	1.896797017e-01	-1.679711625e-06	9.918061969e-12
-2.720000000e-02	1.896796915e-01	2.486687167e-07	6.127127057e-12
-2.730000000e-02	1.896796812e-01	2.177048486e-06	1.231243567e-11
-2.740000000e-02	1.896796708e-01	4.105427681e-06	2.002753619e-11
-2.750000000e-02	1.896796604e-01	6.033806301e-06	9.646502235e-12
-2.760000000e-02	1.896796500e-01	7.962184337e-06	2.661317062e-11
-2.770000000e-02	1.896796395e-01	9.890561792e-06	1.476121127e-11
-2.780000000e-02	1.896796289e-01	1.181893866e-05	1.200240353e-11
-2.790000000e-02	1.896796182e-01	1.374731494e-05	6.173882035e-12
-2.800000000e-02	1.896796075e-01	1.567569062e-05	8.411956164e-12
-2.810000000e-02	1.896795968e-01	1.760406571e-05	1.336731833e-11
-2.820000000e-02	1.896795860e-01	1.953244020e-05	1.408846523e-11
-2.830000000e-02	1.896795751e-01	2.146081409e-05	2.304549985e-11
-2.840000000e-02	1.896795641e-01	2.338918738e-05	2.254547164e-11
-2.850000000e-02	1.896795532e-01	2.531756006e-05	2.574413602e-11
-2.860000000e-02	1.896795421e-01	2.724593212e-05	1.641216326e-11
-2.870000000e-02	1.896795310e-01	2.917430357e-05	1.617422294e-11
-2.880000000e-02	1.896795198e-01	3.110267441e-05	1.138519377e-11
-2.890000000e-02	1.896795086e-01	3.303104463e-05	1.573134938e-11
-2.900000000e-02	1.896794973e-01	3.495941422e-05	2.265486868e-11
-2.910000000e-02	1.896794860e-01	3.688778319e-05	7.439916515e-12
-2.920000000e-02	1.896794746e-01	3.881615153e-05	1.742941692e-11
-2.930000000e-02	1.896794631e-01	4.074451924e-05	1.470702835e-11
-2.940000000e-02	1.896794516e-01	4.267288632e-05	1.044470887e-11
-2.950000000e-02	1.896794400e-01	4.460125276e-05	1.454525133e-11
-2.960000000e-02	1.896794284e-01	4.652961855e-05	1.655638425e-11
-2.970000000e-02	1.896794167e-01	4.845798371e-05	9.685767737e-12
-2.980000000e-02	1.896794049e-01	5.038634822e-05	8.589664937e-12
-2.990000000e-02	1.896793931e-01	5.231471208e-05	2.036572409e-11
-3.000000000e-02	1.896793812e-01	5.424307528e-05	1.315720889e-11
