# Im(epsi1)     Re(omega/c)      Im(omega/c)      Eq(det).Opt det CON kz, R=0.5 \mum, mu_c=0.3, Re(epsi1)=3.90solve_det_conkz_vs_kz.py
0.000000000e+00	1.896595063e-01	-5.242476503e-04	8.701498715e-12
-1.000000000e-04	1.896595120e-01	-5.223193273e-04	3.170452028e-11
-2.000000000e-04	1.896595176e-01	-5.203910040e-04	1.213661931e-11
-3.000000000e-04	1.896595232e-01	-5.184626805e-04	1.287060147e-11
-4.000000000e-04	1.896595287e-01	-5.165343568e-04	1.441383570e-11
-5.000000000e-04	1.896595342e-01	-5.146060328e-04	2.457013488e-11
-6.000000000e-04	1.896595396e-01	-5.126777087e-04	1.562509338e-11
-7.000000000e-04	1.896595449e-01	-5.107493843e-04	4.404811231e-11
-8.000000000e-04	1.896595502e-01	-5.088210597e-04	7.027727663e-12
-9.000000000e-04	1.896595554e-01	-5.068927348e-04	1.321613945e-11
-1.000000000e-03	1.896595606e-01	-5.049644098e-04	2.119100022e-11
-1.100000000e-03	1.896595657e-01	-5.030360845e-04	1.159354480e-11
-1.200000000e-03	1.896595708e-01	-5.011077591e-04	3.082907344e-11
-1.300000000e-03	1.896595758e-01	-4.991794334e-04	1.774430097e-10
-1.400000000e-03	1.896595807e-01	-4.972511076e-04	7.495259682e-12
-1.500000000e-03	1.896595856e-01	-4.953227815e-04	2.257086251e-11
-1.600000000e-03	1.896595904e-01	-4.933944552e-04	1.872839086e-11
-1.700000000e-03	1.896595951e-01	-4.914661288e-04	3.297947258e-11
-1.800000000e-03	1.896595998e-01	-4.895378022e-04	1.357827670e-11
-1.900000000e-03	1.896596045e-01	-4.876094753e-04	2.347556951e-11
-2.000000000e-03	1.896596091e-01	-4.856811483e-04	8.076489761e-12
-2.100000000e-03	1.896596136e-01	-4.837528211e-04	1.570623643e-11
-2.200000000e-03	1.896596180e-01	-4.818244938e-04	9.407685673e-12
-2.300000000e-03	1.896596225e-01	-4.798961663e-04	4.580042354e-11
-2.400000000e-03	1.896596268e-01	-4.779678386e-04	3.209031924e-11
-2.500000000e-03	1.896596311e-01	-4.760395107e-04	1.121090003e-11
-2.600000000e-03	1.896596353e-01	-4.741111826e-04	8.939650721e-12
-2.700000000e-03	1.896596395e-01	-4.721828544e-04	2.926869614e-11
-2.800000000e-03	1.896596436e-01	-4.702545261e-04	1.555396739e-11
-2.900000000e-03	1.896596476e-01	-4.683261976e-04	6.659863589e-12
-3.000000000e-03	1.896596516e-01	-4.663978689e-04	1.381148291e-11
-3.100000000e-03	1.896596556e-01	-4.644695401e-04	1.276237058e-11
-3.200000000e-03	1.896596594e-01	-4.625412110e-04	7.452062770e-10
-3.300000000e-03	1.896596633e-01	-4.606128820e-04	1.282242197e-11
-3.400000000e-03	1.896596670e-01	-4.586845528e-04	1.825769571e-11
-3.500000000e-03	1.896596707e-01	-4.567562234e-04	1.181741726e-11
-3.600000000e-03	1.896596744e-01	-4.548278939e-04	4.325548180e-11
-3.700000000e-03	1.896596779e-01	-4.528995642e-04	2.493683569e-11
-3.800000000e-03	1.896596815e-01	-4.509712344e-04	1.771276199e-11
-3.900000000e-03	1.896596849e-01	-4.490429045e-04	5.431327601e-11
-4.000000000e-03	1.896596883e-01	-4.471145745e-04	9.769141631e-12
-4.100000000e-03	1.896596917e-01	-4.451862443e-04	5.648354161e-12
-4.200000000e-03	1.896596950e-01	-4.432579141e-04	1.025338014e-11
-4.300000000e-03	1.896596982e-01	-4.413295837e-04	1.179832337e-11
-4.400000000e-03	1.896597014e-01	-4.394012532e-04	3.932700810e-11
-4.500000000e-03	1.896597045e-01	-4.374729226e-04	2.375859269e-10
-4.600000000e-03	1.896597075e-01	-4.355445919e-04	1.243509887e-11
-4.700000000e-03	1.896597105e-01	-4.336162611e-04	5.559841451e-11
-4.800000000e-03	1.896597134e-01	-4.316879302e-04	9.348550491e-12
-4.900000000e-03	1.896597163e-01	-4.297595992e-04	3.920531630e-11
-5.000000000e-03	1.896597191e-01	-4.278312681e-04	1.304773820e-11
-5.100000000e-03	1.896597219e-01	-4.259029369e-04	8.378453986e-12
-5.200000000e-03	1.896597246e-01	-4.239746056e-04	9.087739086e-12
-5.300000000e-03	1.896597272e-01	-4.220462742e-04	1.142822856e-11
-5.400000000e-03	1.896597298e-01	-4.201179428e-04	1.039366770e-11
-5.500000000e-03	1.896597323e-01	-4.181896113e-04	7.978924258e-12
-5.600000000e-03	1.896597348e-01	-4.162612797e-04	1.971462307e-11
-5.700000000e-03	1.896597372e-01	-4.143329480e-04	2.780834911e-11
-5.800000000e-03	1.896597396e-01	-4.124046163e-04	1.012082845e-11
-5.900000000e-03	1.896597419e-01	-4.104762845e-04	1.995945571e-11
-6.000000000e-03	1.896597441e-01	-4.085479526e-04	5.348405595e-12
-6.100000000e-03	1.896597463e-01	-4.066196207e-04	8.791498393e-12
-6.200000000e-03	1.896597484e-01	-4.046912887e-04	6.552242714e-12
-6.300000000e-03	1.896597504e-01	-4.027629566e-04	1.423544313e-11
-6.400000000e-03	1.896597524e-01	-4.008346246e-04	2.486148379e-11
-6.500000000e-03	1.896597543e-01	-3.989062924e-04	9.536558730e-12
-6.600000000e-03	1.896597562e-01	-3.969779602e-04	2.921802136e-11
-6.700000000e-03	1.896597580e-01	-3.950496280e-04	2.287678613e-11
-6.800000000e-03	1.896597598e-01	-3.931212957e-04	1.168071956e-11
-6.900000000e-03	1.896597615e-01	-3.911929634e-04	1.596749430e-11
-7.000000000e-03	1.896597631e-01	-3.892646311e-04	1.514067948e-11
-7.100000000e-03	1.896597647e-01	-3.873362987e-04	8.425139518e-12
-7.200000000e-03	1.896597663e-01	-3.854079663e-04	9.753631756e-12
-7.300000000e-03	1.896597677e-01	-3.834796339e-04	2.623684331e-11
-7.400000000e-03	1.896597691e-01	-3.815513015e-04	2.570158004e-11
-7.500000000e-03	1.896597705e-01	-3.796229690e-04	1.235332828e-11
-7.600000000e-03	1.896597718e-01	-3.776946365e-04	1.013447834e-11
-7.700000000e-03	1.896597730e-01	-3.757663040e-04	1.321056515e-11
-7.800000000e-03	1.896597742e-01	-3.738379715e-04	1.076453493e-11
-7.900000000e-03	1.896597753e-01	-3.719096390e-04	8.920082833e-12
-8.000000000e-03	1.896597763e-01	-3.699813065e-04	7.889827670e-12
-8.100000000e-03	1.896597773e-01	-3.680529740e-04	7.320173824e-12
-8.200000000e-03	1.896597783e-01	-3.661246415e-04	5.814890334e-12
-8.300000000e-03	1.896597791e-01	-3.641963090e-04	1.626809736e-11
-8.400000000e-03	1.896597800e-01	-3.622679765e-04	5.334794988e-11
-8.500000000e-03	1.896597807e-01	-3.603396440e-04	1.253455177e-11
-8.600000000e-03	1.896597814e-01	-3.584113116e-04	8.397079388e-12
-8.700000000e-03	1.896597821e-01	-3.564829791e-04	5.672079921e-12
-8.800000000e-03	1.896597826e-01	-3.545546467e-04	7.753356189e-12
-8.900000000e-03	1.896597832e-01	-3.526263143e-04	1.223251088e-11
-9.000000000e-03	1.896597836e-01	-3.506979819e-04	1.147322030e-11
-9.100000000e-03	1.896597840e-01	-3.487696495e-04	1.172780954e-11
-9.200000000e-03	1.896597844e-01	-3.468413172e-04	8.127585437e-12
-9.300000000e-03	1.896597847e-01	-3.449129849e-04	4.838154090e-12
-9.400000000e-03	1.896597849e-01	-3.429846527e-04	6.188207709e-12
-9.500000000e-03	1.896597851e-01	-3.410563204e-04	3.343216787e-11
-9.600000000e-03	1.896597852e-01	-3.391279883e-04	1.123660386e-11
-9.700000000e-03	1.896597853e-01	-3.371996562e-04	7.799228492e-11
-9.800000000e-03	1.896597853e-01	-3.352713241e-04	9.815085589e-12
-9.900000000e-03	1.896597852e-01	-3.333429921e-04	1.395175106e-11
-1.000000000e-02	1.896597851e-01	-3.314146601e-04	3.777608796e-11
-1.010000000e-02	1.896597849e-01	-3.294863282e-04	1.292500979e-11
-1.020000000e-02	1.896597847e-01	-3.275579964e-04	3.292151872e-11
-1.030000000e-02	1.896597844e-01	-3.256296646e-04	1.165956924e-11
-1.040000000e-02	1.896597840e-01	-3.237013329e-04	1.517630962e-11
-1.050000000e-02	1.896597836e-01	-3.217730013e-04	2.234075551e-11
-1.060000000e-02	1.896597831e-01	-3.198446697e-04	1.240122987e-11
-1.070000000e-02	1.896597826e-01	-3.179163382e-04	7.465909886e-12
-1.080000000e-02	1.896597820e-01	-3.159880068e-04	1.093298141e-11
-1.090000000e-02	1.896597813e-01	-3.140596755e-04	3.532690071e-11
-1.100000000e-02	1.896597806e-01	-3.121313443e-04	9.534065875e-12
-1.110000000e-02	1.896597799e-01	-3.102030131e-04	1.941516253e-11
-1.120000000e-02	1.896597790e-01	-3.082746820e-04	1.129157129e-11
-1.130000000e-02	1.896597782e-01	-3.063463511e-04	5.526751684e-12
-1.140000000e-02	1.896597772e-01	-3.044180202e-04	1.327143245e-11
-1.150000000e-02	1.896597762e-01	-3.024896895e-04	8.085901521e-12
-1.160000000e-02	1.896597751e-01	-3.005613588e-04	1.066697356e-11
-1.170000000e-02	1.896597740e-01	-2.986330282e-04	3.087598108e-11
-1.180000000e-02	1.896597728e-01	-2.967046978e-04	1.665937403e-11
-1.190000000e-02	1.896597716e-01	-2.947763675e-04	6.438403833e-12
-1.200000000e-02	1.896597703e-01	-2.928480372e-04	4.671209260e-11
-1.210000000e-02	1.896597690e-01	-2.909197072e-04	1.467143771e-11
-1.220000000e-02	1.896597675e-01	-2.889913772e-04	9.744832222e-12
-1.230000000e-02	1.896597661e-01	-2.870630473e-04	1.177813859e-11
-1.240000000e-02	1.896597645e-01	-2.851347176e-04	3.531539042e-11
-1.250000000e-02	1.896597629e-01	-2.832063880e-04	4.593523692e-12
-1.260000000e-02	1.896597613e-01	-2.812780585e-04	5.128425624e-12
-1.270000000e-02	1.896597596e-01	-2.793497292e-04	4.379485749e-12
-1.280000000e-02	1.896597578e-01	-2.774214000e-04	2.029915771e-11
-1.290000000e-02	1.896597560e-01	-2.754930710e-04	1.044897028e-11
-1.300000000e-02	1.896597541e-01	-2.735647421e-04	1.208370088e-11
-1.310000000e-02	1.896597522e-01	-2.716364133e-04	1.050444808e-11
-1.320000000e-02	1.896597502e-01	-2.697080847e-04	7.245241332e-11
-1.330000000e-02	1.896597481e-01	-2.677797563e-04	7.152631901e-12
-1.340000000e-02	1.896597460e-01	-2.658514280e-04	9.207668940e-12
-1.350000000e-02	1.896597438e-01	-2.639230999e-04	1.780620097e-11
-1.360000000e-02	1.896597416e-01	-2.619947719e-04	1.100324591e-11
-1.370000000e-02	1.896597393e-01	-2.600664441e-04	4.342030825e-11
-1.380000000e-02	1.896597369e-01	-2.581381165e-04	1.593760563e-11
-1.390000000e-02	1.896597345e-01	-2.562097890e-04	1.335372524e-11
-1.400000000e-02	1.896597320e-01	-2.542814618e-04	1.942093261e-11
-1.410000000e-02	1.896597295e-01	-2.523531347e-04	2.952731632e-11
-1.420000000e-02	1.896597269e-01	-2.504248077e-04	1.054274007e-11
-1.430000000e-02	1.896597243e-01	-2.484964810e-04	1.821652352e-11
-1.440000000e-02	1.896597216e-01	-2.465681545e-04	9.433224881e-12
-1.450000000e-02	1.896597188e-01	-2.446398281e-04	8.265631022e-12
-1.460000000e-02	1.896597160e-01	-2.427115019e-04	2.567633802e-11
-1.470000000e-02	1.896597131e-01	-2.407831760e-04	4.155949514e-11
-1.480000000e-02	1.896597101e-01	-2.388548502e-04	3.339081986e-11
-1.490000000e-02	1.896597071e-01	-2.369265246e-04	5.668425457e-12
-1.500000000e-02	1.896597041e-01	-2.349981993e-04	1.462685370e-11
-1.510000000e-02	1.896597010e-01	-2.330698741e-04	8.173332659e-12
-1.520000000e-02	1.896596978e-01	-2.311415491e-04	5.660888335e-11
-1.530000000e-02	1.896596946e-01	-2.292132244e-04	1.463697283e-11
-1.540000000e-02	1.896596913e-01	-2.272848999e-04	2.238358333e-11
-1.550000000e-02	1.896596879e-01	-2.253565756e-04	1.863683515e-11
-1.560000000e-02	1.896596845e-01	-2.234282515e-04	9.253900945e-12
-1.570000000e-02	1.896596810e-01	-2.214999277e-04	3.447302457e-11
-1.580000000e-02	1.896596775e-01	-2.195716041e-04	8.646405144e-12
-1.590000000e-02	1.896596739e-01	-2.176432807e-04	4.645788013e-11
-1.600000000e-02	1.896596703e-01	-2.157149575e-04	1.996063455e-11
-1.610000000e-02	1.896596666e-01	-2.137866346e-04	3.421360952e-11
-1.620000000e-02	1.896596628e-01	-2.118583120e-04	1.969749964e-11
-1.630000000e-02	1.896596590e-01	-2.099299895e-04	1.244780395e-11
-1.640000000e-02	1.896596551e-01	-2.080016673e-04	1.042872365e-11
-1.650000000e-02	1.896596511e-01	-2.060733454e-04	1.050126751e-11
-1.660000000e-02	1.896596471e-01	-2.041450237e-04	5.070955968e-12
-1.670000000e-02	1.896596431e-01	-2.022167023e-04	3.574018314e-11
-1.680000000e-02	1.896596390e-01	-2.002883811e-04	5.902204610e-11
-1.690000000e-02	1.896596348e-01	-1.983600602e-04	1.600373636e-11
-1.700000000e-02	1.896596306e-01	-1.964317396e-04	2.082512694e-11
-1.710000000e-02	1.896596263e-01	-1.945034192e-04	1.317096969e-11
-1.720000000e-02	1.896596219e-01	-1.925750991e-04	2.687357075e-11
-1.730000000e-02	1.896596175e-01	-1.906467793e-04	8.527187086e-12
-1.740000000e-02	1.896596130e-01	-1.887184597e-04	1.735783973e-11
-1.750000000e-02	1.896596085e-01	-1.867901405e-04	1.170898989e-11
-1.760000000e-02	1.896596039e-01	-1.848618215e-04	1.098256403e-11
-1.770000000e-02	1.896595993e-01	-1.829335028e-04	1.935726600e-11
-1.780000000e-02	1.896595946e-01	-1.810051844e-04	1.506611379e-11
-1.790000000e-02	1.896595898e-01	-1.790768662e-04	8.113027232e-12
-1.800000000e-02	1.896595850e-01	-1.771485484e-04	1.064535026e-11
-1.810000000e-02	1.896595801e-01	-1.752202309e-04	9.038400800e-12
-1.820000000e-02	1.896595752e-01	-1.732919137e-04	1.947892694e-11
-1.830000000e-02	1.896595702e-01	-1.713635967e-04	1.296573901e-11
-1.840000000e-02	1.896595651e-01	-1.694352801e-04	1.229055928e-11
-1.850000000e-02	1.896595600e-01	-1.675069638e-04	1.538982478e-11
-1.860000000e-02	1.896595548e-01	-1.655786478e-04	1.036147076e-11
-1.870000000e-02	1.896595496e-01	-1.636503321e-04	2.035626526e-11
-1.880000000e-02	1.896595443e-01	-1.617220167e-04	9.188804965e-12
-1.890000000e-02	1.896595389e-01	-1.597937017e-04	1.181245191e-11
-1.900000000e-02	1.896595335e-01	-1.578653870e-04	3.921028953e-11
-1.910000000e-02	1.896595280e-01	-1.559370726e-04	1.139540293e-11
-1.920000000e-02	1.896595225e-01	-1.540087585e-04	2.400924543e-11
-1.930000000e-02	1.896595169e-01	-1.520804448e-04	3.148312671e-11
-1.940000000e-02	1.896595113e-01	-1.501521314e-04	8.154272445e-11
-1.950000000e-02	1.896595056e-01	-1.482238183e-04	1.090086714e-11
-1.960000000e-02	1.896594998e-01	-1.462955056e-04	1.131347602e-11
-1.970000000e-02	1.896594940e-01	-1.443671933e-04	9.786341740e-12
-1.980000000e-02	1.896594881e-01	-1.424388812e-04	4.104863539e-11
-1.990000000e-02	1.896594822e-01	-1.405105696e-04	5.381783868e-11
-2.000000000e-02	1.896594762e-01	-1.385822583e-04	1.770357859e-11
-2.010000000e-02	1.896594701e-01	-1.366539473e-04	3.136731550e-11
-2.020000000e-02	1.896594640e-01	-1.347256367e-04	1.769370508e-11
-2.030000000e-02	1.896594578e-01	-1.327973265e-04	8.886939795e-12
-2.040000000e-02	1.896594516e-01	-1.308690166e-04	7.366031482e-11
-2.050000000e-02	1.896594453e-01	-1.289407071e-04	2.057226000e-11
-2.060000000e-02	1.896594390e-01	-1.270123980e-04	2.501288585e-11
-2.070000000e-02	1.896594326e-01	-1.250840892e-04	3.720270827e-11
-2.080000000e-02	1.896594261e-01	-1.231557809e-04	1.219465910e-11
-2.090000000e-02	1.896594196e-01	-1.212274729e-04	1.447594074e-11
-2.100000000e-02	1.896594130e-01	-1.192991653e-04	1.390172913e-11
-2.110000000e-02	1.896594063e-01	-1.173708580e-04	1.438844375e-11
-2.120000000e-02	1.896593996e-01	-1.154425512e-04	1.103923037e-11
-2.130000000e-02	1.896593929e-01	-1.135142448e-04	6.414769465e-11
-2.140000000e-02	1.896593860e-01	-1.115859387e-04	7.813417397e-12
-2.150000000e-02	1.896593792e-01	-1.096576331e-04	8.791105527e-12
-2.160000000e-02	1.896593722e-01	-1.077293278e-04	9.186600121e-12
-2.170000000e-02	1.896593652e-01	-1.058010230e-04	2.233482618e-11
-2.180000000e-02	1.896593582e-01	-1.038727186e-04	1.869710532e-11
-2.190000000e-02	1.896593511e-01	-1.019444145e-04	1.585459467e-11
-2.200000000e-02	1.896593439e-01	-1.000161109e-04	2.107866699e-11
-2.210000000e-02	1.896593367e-01	-9.808780771e-05	1.761564462e-10
-2.220000000e-02	1.896593294e-01	-9.615950497e-05	7.023278399e-12
-2.230000000e-02	1.896593220e-01	-9.423120262e-05	1.334231568e-11
-2.240000000e-02	1.896593146e-01	-9.230290070e-05	9.401271266e-12
-2.250000000e-02	1.896593071e-01	-9.037459921e-05	1.291311455e-11
-2.260000000e-02	1.896592996e-01	-8.844629814e-05	9.018299466e-12
-2.270000000e-02	1.896592920e-01	-8.651799752e-05	1.932245493e-11
-2.280000000e-02	1.896592844e-01	-8.458969733e-05	2.284386424e-11
-2.290000000e-02	1.896592767e-01	-8.266139758e-05	7.925216656e-12
-2.300000000e-02	1.896592689e-01	-8.073309827e-05	9.331253470e-12
-2.310000000e-02	1.896592611e-01	-7.880479941e-05	1.018503214e-11
-2.320000000e-02	1.896592532e-01	-7.687650101e-05	1.568911001e-11
-2.330000000e-02	1.896592453e-01	-7.494820305e-05	7.857006972e-12
-2.340000000e-02	1.896592373e-01	-7.301990554e-05	5.712811564e-11
-2.350000000e-02	1.896592292e-01	-7.109160851e-05	9.512687739e-12
-2.360000000e-02	1.896592211e-01	-6.916331193e-05	9.313766590e-12
-2.370000000e-02	1.896592130e-01	-6.723501581e-05	1.003400201e-11
-2.380000000e-02	1.896592047e-01	-6.530672016e-05	4.588710608e-11
-2.390000000e-02	1.896591964e-01	-6.337842498e-05	1.470786840e-11
-2.400000000e-02	1.896591881e-01	-6.145013027e-05	9.605813961e-12
-2.410000000e-02	1.896591797e-01	-5.952183604e-05	1.084242361e-11
-2.420000000e-02	1.896591712e-01	-5.759354229e-05	3.676196903e-11
-2.430000000e-02	1.896591627e-01	-5.566524903e-05	7.765888409e-12
-2.440000000e-02	1.896591541e-01	-5.373695624e-05	9.962629642e-12
-2.450000000e-02	1.896591455e-01	-5.180866395e-05	8.161300050e-12
-2.460000000e-02	1.896591368e-01	-4.988037215e-05	1.532680096e-11
-2.470000000e-02	1.896591280e-01	-4.795208084e-05	1.802683250e-11
-2.480000000e-02	1.896591192e-01	-4.602379003e-05	8.259385764e-12
-2.490000000e-02	1.896591103e-01	-4.409549972e-05	2.897016033e-12
-2.500000000e-02	1.896591014e-01	-4.216720991e-05	8.546856858e-12
-2.510000000e-02	1.896590924e-01	-4.023892061e-05	1.938805360e-11
-2.520000000e-02	1.896590833e-01	-3.831063181e-05	1.215465619e-11
-2.530000000e-02	1.896590742e-01	-3.638234353e-05	1.600287512e-11
-2.540000000e-02	1.896590650e-01	-3.445405576e-05	3.442793781e-11
-2.550000000e-02	1.896590558e-01	-3.252576852e-05	1.245384563e-11
-2.560000000e-02	1.896590465e-01	-3.059748179e-05	1.025559363e-11
-2.570000000e-02	1.896590372e-01	-2.866919559e-05	1.741820552e-11
-2.580000000e-02	1.896590278e-01	-2.674090992e-05	1.459738416e-11
-2.590000000e-02	1.896590183e-01	-2.481262477e-05	5.861882751e-11
-2.600000000e-02	1.896590088e-01	-2.288434016e-05	6.157156422e-12
-2.610000000e-02	1.896589992e-01	-2.095605608e-05	1.061167813e-11
-2.620000000e-02	1.896589896e-01	-1.902777254e-05	1.115178724e-11
-2.630000000e-02	1.896589799e-01	-1.709948955e-05	2.262343080e-11
-2.640000000e-02	1.896589701e-01	-1.517120710e-05	2.578890367e-11
-2.650000000e-02	1.896589603e-01	-1.324292520e-05	6.175533355e-12
-2.660000000e-02	1.896589504e-01	-1.131464384e-05	1.448553085e-11
-2.670000000e-02	1.896589405e-01	-9.386363049e-06	2.769656939e-11
-2.680000000e-02	1.896589305e-01	-7.458082806e-06	1.054470877e-11
-2.690000000e-02	1.896589204e-01	-5.529803124e-06	1.033485527e-11
-2.700000000e-02	1.896589103e-01	-3.601524008e-06	8.726063554e-12
-2.710000000e-02	1.896589001e-01	-1.673245453e-06	1.987070118e-11
-2.720000000e-02	1.896588899e-01	2.550325279e-07	1.465265369e-11
-2.730000000e-02	1.896588796e-01	2.183309940e-06	1.283236931e-11
-2.740000000e-02	1.896588693e-01	4.111586775e-06	2.647187679e-11
-2.750000000e-02	1.896588589e-01	6.039863037e-06	1.183341500e-11
-2.760000000e-02	1.896588484e-01	7.968138716e-06	6.297739991e-12
-2.770000000e-02	1.896588379e-01	9.896413812e-06	8.659179335e-12
-2.780000000e-02	1.896588273e-01	1.182468832e-05	1.341112648e-11
-2.790000000e-02	1.896588167e-01	1.375296224e-05	3.776336999e-11
-2.800000000e-02	1.896588060e-01	1.568123558e-05	1.330166884e-10
-2.810000000e-02	1.896587952e-01	1.760950830e-05	6.240539754e-12
-2.820000000e-02	1.896587844e-01	1.953778043e-05	2.290279033e-11
-2.830000000e-02	1.896587735e-01	2.146605196e-05	1.725158743e-11
-2.840000000e-02	1.896587626e-01	2.339432288e-05	6.887700557e-12
-2.850000000e-02	1.896587516e-01	2.532259320e-05	1.903535013e-11
-2.860000000e-02	1.896587405e-01	2.725086291e-05	8.649927080e-12
-2.870000000e-02	1.896587294e-01	2.917913200e-05	1.567610663e-11
-2.880000000e-02	1.896587183e-01	3.110740048e-05	2.225084572e-11
-2.890000000e-02	1.896587070e-01	3.303566834e-05	1.714600088e-11
-2.900000000e-02	1.896586957e-01	3.496393557e-05	1.598659234e-11
-2.910000000e-02	1.896586844e-01	3.689220218e-05	4.808090585e-11
-2.920000000e-02	1.896586730e-01	3.882046817e-05	1.583456191e-11
-2.930000000e-02	1.896586615e-01	4.074873351e-05	5.766007490e-12
-2.940000000e-02	1.896586500e-01	4.267699823e-05	7.448519648e-12
-2.950000000e-02	1.896586384e-01	4.460526231e-05	1.043141445e-11
-2.960000000e-02	1.896586268e-01	4.653352575e-05	9.885791982e-12
-2.970000000e-02	1.896586151e-01	4.846178854e-05	1.700735314e-11
-2.980000000e-02	1.896586033e-01	5.039005069e-05	1.369224423e-11
-2.990000000e-02	1.896585915e-01	5.231831219e-05	7.681840563e-12
-3.000000000e-02	1.896585796e-01	5.424657304e-05	1.668242176e-11
