# mu [eV]     Omega/c [1/micrones]    Im(epsi1)     Eq(det).Opt det con kz, R=0.5 \mum, Re(epsi1)=3.90, kz = 0.1350 1/\mum, solve_det_conkz_vs_mu.py
3.001000000e-01	2.322059238e-01	-2.824948716e-02	8.227454060e-13
3.003000000e-01	2.322835532e-01	-2.822785995e-02	1.434970237e-12
3.005000000e-01	2.323611566e-01	-2.820626690e-02	3.551974676e-13
3.006000000e-01	2.323999485e-01	-2.819548317e-02	9.016354518e-13
3.007000000e-01	2.324387338e-01	-2.818470795e-02	1.767326045e-12
3.008000000e-01	2.324775127e-01	-2.817394123e-02	2.362292323e-13
3.009000000e-01	2.325162850e-01	-2.816318300e-02	2.181962880e-12
3.010000000e-01	2.325550509e-01	-2.815243325e-02	1.395927412e-12
3.012000000e-01	2.326325631e-01	-2.813095917e-02	1.730265579e-12
3.013000000e-01	2.326713095e-01	-2.812023482e-02	7.891690146e-13
3.014000000e-01	2.327100493e-01	-2.810951891e-02	2.200407884e-12
3.016000000e-01	2.327875096e-01	-2.808811238e-02	2.619318712e-12
3.017000000e-01	2.328262300e-01	-2.807742175e-02	1.789632782e-12
3.018000000e-01	2.328649440e-01	-2.806673952e-02	4.862601721e-13
3.020000000e-01	2.329423524e-01	-2.804540024e-02	4.404743633e-13
3.021000000e-01	2.329810469e-01	-2.803474317e-02	1.813044181e-12
3.022000000e-01	2.330197350e-01	-2.802409447e-02	8.319997766e-13
3.024000000e-01	2.330970917e-01	-2.800282213e-02	1.339136507e-12
3.025000000e-01	2.331357604e-01	-2.799219847e-02	8.504842508e-14
3.026000000e-01	2.331744226e-01	-2.798158315e-02	6.657423915e-13
3.028000000e-01	2.332517277e-01	-2.796037745e-02	3.541521300e-13
3.032000000e-01	2.334062607e-01	-2.791806558e-02	7.926174606e-13
3.033000000e-01	2.334448778e-01	-2.790750830e-02	5.945264005e-13
3.034000000e-01	2.334834885e-01	-2.789695927e-02	4.866935550e-12
3.035000000e-01	2.335220928e-01	-2.788641849e-02	1.854963567e-13
3.036000000e-01	2.335606907e-01	-2.787588594e-02	2.104299074e-12
3.039000000e-01	2.336764458e-01	-2.784433762e-02	7.595154280e-13
3.040000000e-01	2.337150181e-01	-2.783383792e-02	4.133180535e-13
3.041000000e-01	2.337535839e-01	-2.782334641e-02	1.457213707e-12
3.042000000e-01	2.337921433e-01	-2.781286309e-02	1.645208492e-12
3.043000000e-01	2.338306963e-01	-2.780238793e-02	7.915306943e-13
3.044000000e-01	2.338692430e-01	-2.779192093e-02	5.692225741e-13
3.045000000e-01	2.339077832e-01	-2.778146209e-02	1.950846867e-12
3.046000000e-01	2.339463170e-01	-2.777101139e-02	3.875254146e-13
3.047000000e-01	2.339848445e-01	-2.776056882e-02	4.105227315e-13
3.048000000e-01	2.340233656e-01	-2.775013438e-02	1.620577388e-12
3.049000000e-01	2.340618803e-01	-2.773970805e-02	2.712757346e-13
3.051000000e-01	2.341388905e-01	-2.771887971e-02	9.425421262e-13
3.052000000e-01	2.341773861e-01	-2.770847768e-02	7.347703201e-13
3.053000000e-01	2.342158753e-01	-2.769808372e-02	5.543283814e-13
3.054000000e-01	2.342543581e-01	-2.768769784e-02	3.231077035e-12
3.055000000e-01	2.342928346e-01	-2.767732001e-02	6.101703444e-13
3.057000000e-01	2.343697685e-01	-2.765658851e-02	3.296355634e-12
3.058000000e-01	2.344082259e-01	-2.764623481e-02	3.254188108e-13
3.059000000e-01	2.344466770e-01	-2.763588914e-02	2.044500087e-12
3.060000000e-01	2.344851217e-01	-2.762555149e-02	5.449479167e-13
3.061000000e-01	2.345235601e-01	-2.761522184e-02	3.321804727e-13
3.063000000e-01	2.346004179e-01	-2.759458653e-02	5.002925177e-14
3.064000000e-01	2.346388372e-01	-2.758428085e-02	1.128670210e-12
3.065000000e-01	2.346772503e-01	-2.757398314e-02	2.068899895e-12
3.066000000e-01	2.347156570e-01	-2.756369339e-02	9.926513032e-13
3.068000000e-01	2.347924514e-01	-2.754313774e-02	6.493061308e-13
3.070000000e-01	2.348692206e-01	-2.752261383e-02	1.465381374e-12
3.071000000e-01	2.349075958e-01	-2.751236376e-02	9.387188650e-13
3.072000000e-01	2.349459646e-01	-2.750212160e-02	1.463065725e-12
3.073000000e-01	2.349843271e-01	-2.749188733e-02	5.773321045e-13
3.075000000e-01	2.350610332e-01	-2.747144247e-02	1.334153400e-12
3.077000000e-01	2.351377142e-01	-2.745102910e-02	3.531276263e-12
3.078000000e-01	2.351760452e-01	-2.744083420e-02	9.763228458e-13
3.079000000e-01	2.352143699e-01	-2.743064715e-02	1.068205637e-12
3.080000000e-01	2.352526884e-01	-2.742046794e-02	8.085021442e-13
3.081000000e-01	2.352910006e-01	-2.741029656e-02	2.096463885e-13
3.082000000e-01	2.353293065e-01	-2.740013300e-02	2.977868572e-13
3.083000000e-01	2.353676061e-01	-2.738997725e-02	6.719082052e-13
3.084000000e-01	2.354058995e-01	-2.737982931e-02	1.884203208e-12
3.085000000e-01	2.354441866e-01	-2.736968916e-02	2.305279427e-12
3.087000000e-01	2.355207419e-01	-2.734943220e-02	1.708939871e-12
3.088000000e-01	2.355590102e-01	-2.733931539e-02	1.866193685e-12
3.089000000e-01	2.355972723e-01	-2.732920633e-02	1.853561353e-13
3.090000000e-01	2.356355281e-01	-2.731910502e-02	2.475466835e-12
3.091000000e-01	2.356737776e-01	-2.730901146e-02	2.995678787e-12
3.092000000e-01	2.357120209e-01	-2.729892563e-02	7.604155968e-13
3.094000000e-01	2.357884888e-01	-2.727877714e-02	1.715343114e-12
3.096000000e-01	2.358649317e-01	-2.725865948e-02	5.075929246e-13
3.099000000e-01	2.359795493e-01	-2.722854066e-02	1.379556301e-13
3.100000000e-01	2.360177427e-01	-2.721851640e-02	6.706558110e-13
3.102000000e-01	2.360941109e-01	-2.719849083e-02	9.271107086e-13
3.104000000e-01	2.361704542e-01	-2.717849583e-02	8.874042391e-13
3.107000000e-01	2.362849226e-01	-2.714856048e-02	1.260233447e-12
3.108000000e-01	2.363230664e-01	-2.713859724e-02	3.884302132e-12
3.109000000e-01	2.363612039e-01	-2.712864159e-02	1.023330559e-12
3.110000000e-01	2.363993353e-01	-2.711869352e-02	2.856052562e-13
3.111000000e-01	2.364374604e-01	-2.710875302e-02	2.295917473e-12
3.113000000e-01	2.365136922e-01	-2.708889472e-02	5.354195524e-14
3.114000000e-01	2.365517988e-01	-2.707897689e-02	1.206521814e-12
3.116000000e-01	2.366279935e-01	-2.705916385e-02	5.079788977e-13
3.120000000e-01	2.367803088e-01	-2.701962797e-02	8.577486149e-13
3.121000000e-01	2.368183722e-01	-2.700976275e-02	1.333451962e-12
3.122000000e-01	2.368564295e-01	-2.699990501e-02	8.482496486e-13
3.123000000e-01	2.368944806e-01	-2.699005474e-02	9.167858839e-13
3.124000000e-01	2.369325256e-01	-2.698021194e-02	1.365948050e-12
3.125000000e-01	2.369705644e-01	-2.697037660e-02	5.678411958e-13
3.126000000e-01	2.370085970e-01	-2.696054870e-02	1.838046246e-12
3.127000000e-01	2.370466236e-01	-2.695072825e-02	1.260996718e-12
3.128000000e-01	2.370846439e-01	-2.694091523e-02	7.183776358e-13
3.129000000e-01	2.371226582e-01	-2.693110963e-02	4.220436031e-13
3.130000000e-01	2.371606663e-01	-2.692131145e-02	5.673537238e-13
3.131000000e-01	2.371986683e-01	-2.691152068e-02	8.915831395e-13
3.132000000e-01	2.372366641e-01	-2.690173731e-02	8.872492861e-13
3.134000000e-01	2.373126374e-01	-2.688219273e-02	4.717272072e-13
3.135000000e-01	2.373506149e-01	-2.687243151e-02	1.979489528e-12
3.137000000e-01	2.374265515e-01	-2.685293117e-02	2.048675109e-12
3.140000000e-01	2.375404106e-01	-2.682373577e-02	1.255817177e-12
3.143000000e-01	2.376542148e-01	-2.679460631e-02	9.238712594e-13
3.144000000e-01	2.376921374e-01	-2.678491111e-02	9.992105022e-13
3.145000000e-01	2.377300538e-01	-2.677522321e-02	2.842202851e-13
3.146000000e-01	2.377679642e-01	-2.676554259e-02	1.502650925e-12
3.147000000e-01	2.378058684e-01	-2.675586926e-02	1.960914821e-13
3.148000000e-01	2.378437666e-01	-2.674620319e-02	9.636031996e-13
3.149000000e-01	2.378816587e-01	-2.673654439e-02	6.827392519e-13
3.150000000e-01	2.379195448e-01	-2.672689285e-02	2.330217166e-13
3.151000000e-01	2.379574247e-01	-2.671724855e-02	1.197649750e-12
3.152000000e-01	2.379952986e-01	-2.670761149e-02	5.168341715e-13
3.153000000e-01	2.380331665e-01	-2.669798167e-02	3.006098743e-13
3.154000000e-01	2.380710282e-01	-2.668835907e-02	1.922063188e-13
3.157000000e-01	2.381845771e-01	-2.665953454e-02	2.930676273e-13
3.158000000e-01	2.382224147e-01	-2.664994075e-02	6.911577084e-13
3.160000000e-01	2.382980716e-01	-2.663077474e-02	1.626678892e-12
3.161000000e-01	2.383358910e-01	-2.662120249e-02	8.038136584e-13
3.163000000e-01	2.384115116e-01	-2.660207947e-02	8.515477143e-13
3.164000000e-01	2.384493129e-01	-2.659252868e-02	2.784646319e-12
3.165000000e-01	2.384871082e-01	-2.658298503e-02	1.735001742e-12
3.167000000e-01	2.385626806e-01	-2.656391912e-02	1.669946537e-12
3.168000000e-01	2.386004577e-01	-2.655439684e-02	4.463507685e-13
3.170000000e-01	2.386759940e-01	-2.653537360e-02	1.753378781e-12
3.171000000e-01	2.387137531e-01	-2.652587262e-02	5.929831049e-13
3.172000000e-01	2.387515062e-01	-2.651637873e-02	4.008338579e-13
3.173000000e-01	2.387892533e-01	-2.650689191e-02	1.299464975e-12
3.174000000e-01	2.388269943e-01	-2.649741216e-02	2.000317137e-12
3.176000000e-01	2.389024585e-01	-2.647847384e-02	1.486030337e-12
3.177000000e-01	2.389401815e-01	-2.646901525e-02	6.208838281e-13
3.178000000e-01	2.389778986e-01	-2.645956370e-02	1.459364202e-12
3.179000000e-01	2.390156097e-01	-2.645011918e-02	1.041567229e-12
3.180000000e-01	2.390533148e-01	-2.644068169e-02	2.805735101e-12
3.181000000e-01	2.390910139e-01	-2.643125121e-02	7.352837517e-14
3.182000000e-01	2.391287070e-01	-2.642182774e-02	2.754873697e-12
3.183000000e-01	2.391663941e-01	-2.641241128e-02	1.103856822e-12
3.186000000e-01	2.392794197e-01	-2.638420380e-02	9.198577187e-13
3.187000000e-01	2.393170829e-01	-2.637481526e-02	6.950704589e-13
3.188000000e-01	2.393547402e-01	-2.636543368e-02	1.583574895e-12
3.189000000e-01	2.393923915e-01	-2.635605906e-02	2.112917138e-12
3.190000000e-01	2.394300368e-01	-2.634669139e-02	1.444942088e-12
3.191000000e-01	2.394676762e-01	-2.633733066e-02	1.052655081e-12
3.192000000e-01	2.395053096e-01	-2.632797686e-02	6.720559480e-13
3.193000000e-01	2.395429371e-01	-2.631862998e-02	7.319604002e-13
3.195000000e-01	2.396181742e-01	-2.629995699e-02	1.509095557e-12
3.196000000e-01	2.396557838e-01	-2.629063085e-02	1.785021794e-12
3.197000000e-01	2.396933875e-01	-2.628131160e-02	1.174052060e-12
3.202000000e-01	2.398813169e-01	-2.623481856e-02	9.083451936e-13
3.203000000e-01	2.399188850e-01	-2.622554054e-02	1.353830844e-12
3.204000000e-01	2.399564471e-01	-2.621626936e-02	4.881295760e-13
3.205000000e-01	2.399940034e-01	-2.620700502e-02	9.020798203e-13
3.206000000e-01	2.400315537e-01	-2.619774751e-02	1.301120747e-12
3.207000000e-01	2.400690981e-01	-2.618849682e-02	9.381617597e-13
3.208000000e-01	2.401066366e-01	-2.617925295e-02	8.120983589e-13
3.209000000e-01	2.401441692e-01	-2.617001589e-02	2.446682601e-12
3.210000000e-01	2.401816959e-01	-2.616078562e-02	9.755315535e-13
3.211000000e-01	2.402192167e-01	-2.615156215e-02	1.245592788e-12
3.213000000e-01	2.402942405e-01	-2.613313556e-02	1.403496436e-12
3.215000000e-01	2.403692408e-01	-2.611473606e-02	1.860952699e-12
3.216000000e-01	2.404067321e-01	-2.610554645e-02	2.265464046e-13
3.217000000e-01	2.404442175e-01	-2.609636359e-02	9.015546275e-13
3.218000000e-01	2.404816970e-01	-2.608718747e-02	1.836140562e-13
3.219000000e-01	2.405191707e-01	-2.607801809e-02	8.257848931e-13
3.220000000e-01	2.405566384e-01	-2.606885543e-02	1.550241336e-13
3.221000000e-01	2.405941003e-01	-2.605969950e-02	5.382711866e-13
3.223000000e-01	2.406690065e-01	-2.604140777e-02	1.750395878e-12
3.225000000e-01	2.407438892e-01	-2.602314284e-02	7.662994085e-13
3.226000000e-01	2.407813217e-01	-2.601402040e-02	5.476975554e-13
3.230000000e-01	2.409309934e-01	-2.597759739e-02	6.945768646e-13
3.232000000e-01	2.410057941e-01	-2.595942581e-02	4.462110254e-13
3.233000000e-01	2.410431857e-01	-2.595034997e-02	2.105765471e-13
3.234000000e-01	2.410805714e-01	-2.594128077e-02	4.707985426e-13
3.236000000e-01	2.411553254e-01	-2.592316222e-02	1.395715766e-13
3.237000000e-01	2.411926936e-01	-2.591411286e-02	1.571034258e-13
3.240000000e-01	2.413047634e-01	-2.588700437e-02	1.225043938e-12
3.241000000e-01	2.413421083e-01	-2.587798137e-02	1.282005024e-12
3.242000000e-01	2.413794474e-01	-2.586896495e-02	1.834718761e-12
3.243000000e-01	2.414167807e-01	-2.585995509e-02	2.427720498e-12
3.244000000e-01	2.414541082e-01	-2.585095180e-02	5.604027366e-13
3.245000000e-01	2.414914299e-01	-2.584195505e-02	1.174408929e-12
3.246000000e-01	2.415287457e-01	-2.583296485e-02	7.593764023e-13
3.248000000e-01	2.416033600e-01	-2.581500406e-02	9.388418857e-13
3.249000000e-01	2.416406585e-01	-2.580603346e-02	4.993377532e-13
3.250000000e-01	2.416779511e-01	-2.579706937e-02	2.548275395e-12
3.251000000e-01	2.417152380e-01	-2.578811179e-02	2.288529769e-12
3.252000000e-01	2.417525191e-01	-2.577916072e-02	8.955422352e-13
3.253000000e-01	2.417897943e-01	-2.577021614e-02	2.100132042e-12
3.254000000e-01	2.418270638e-01	-2.576127806e-02	1.528934551e-13
3.256000000e-01	2.419015854e-01	-2.574342133e-02	1.908518594e-12
3.257000000e-01	2.419388376e-01	-2.573450268e-02	8.669744692e-13
3.258000000e-01	2.419760839e-01	-2.572559049e-02	4.531653746e-13
3.259000000e-01	2.420133245e-01	-2.571668475e-02	1.259360035e-12
3.260000000e-01	2.420505594e-01	-2.570778546e-02	1.812866543e-12
3.261000000e-01	2.420877884e-01	-2.569889262e-02	1.534082682e-12
3.262000000e-01	2.421250117e-01	-2.569000621e-02	6.999859138e-13
3.263000000e-01	2.421622292e-01	-2.568112623e-02	1.003565882e-12
3.264000000e-01	2.421994410e-01	-2.567225268e-02	3.823300955e-12
3.266000000e-01	2.422738472e-01	-2.565452480e-02	8.219336138e-13
3.267000000e-01	2.423110417e-01	-2.564567047e-02	5.961453057e-13
3.271000000e-01	2.424597622e-01	-2.561031704e-02	1.203452454e-12
3.272000000e-01	2.424969280e-01	-2.560149462e-02	1.169794846e-12
3.274000000e-01	2.425712423e-01	-2.558386886e-02	1.032995228e-12
3.275000000e-01	2.426083909e-01	-2.557506551e-02	2.013411730e-13
3.276000000e-01	2.426455337e-01	-2.556626849e-02	1.121406961e-12
3.279000000e-01	2.427569279e-01	-2.553991544e-02	2.807360525e-13
3.280000000e-01	2.427940478e-01	-2.553114373e-02	5.724887053e-13
3.281000000e-01	2.428311621e-01	-2.552237833e-02	3.645373376e-13
3.282000000e-01	2.428682706e-01	-2.551361923e-02	1.321992666e-12
3.283000000e-01	2.429053734e-01	-2.550486643e-02	6.811296366e-13
3.284000000e-01	2.429424705e-01	-2.549611991e-02	7.446426195e-13
3.285000000e-01	2.429795619e-01	-2.548737968e-02	5.826386405e-13
3.286000000e-01	2.430166476e-01	-2.547864573e-02	3.907163866e-13
3.288000000e-01	2.430908018e-01	-2.546119662e-02	7.565458701e-13
3.289000000e-01	2.431278704e-01	-2.545248145e-02	9.680669159e-13
3.291000000e-01	2.432019906e-01	-2.543506986e-02	2.493022923e-12
3.292000000e-01	2.432390421e-01	-2.542637342e-02	1.322656388e-12
3.293000000e-01	2.432760879e-01	-2.541768321e-02	3.435810465e-13
3.294000000e-01	2.433131281e-01	-2.540899923e-02	3.753749943e-13
3.295000000e-01	2.433501626e-01	-2.540032147e-02	3.883029903e-13
3.296000000e-01	2.433871914e-01	-2.539164991e-02	1.382059362e-12
3.297000000e-01	2.434242145e-01	-2.538298456e-02	8.173003587e-13
3.299000000e-01	2.434982437e-01	-2.536567245e-02	1.663503323e-13
3.300000000e-01	2.435352498e-01	-2.535702568e-02	4.614489685e-13
3.301000000e-01	2.435722503e-01	-2.534838508e-02	1.007909695e-12
3.302000000e-01	2.436092451e-01	-2.533975065e-02	7.072602398e-13
3.303000000e-01	2.436462342e-01	-2.533112240e-02	2.179472368e-13
3.304000000e-01	2.436832177e-01	-2.532250030e-02	3.475732108e-13
3.307000000e-01	2.437941342e-01	-2.529667090e-02	1.286106142e-12
3.308000000e-01	2.438310951e-01	-2.528807337e-02	8.022437134e-13
3.309000000e-01	2.438680503e-01	-2.527948198e-02	1.146627426e-12
3.310000000e-01	2.439049999e-01	-2.527089670e-02	3.345150554e-13
3.311000000e-01	2.439419438e-01	-2.526231754e-02	2.556813446e-13
3.312000000e-01	2.439788822e-01	-2.525374449e-02	1.484465637e-12
3.313000000e-01	2.440158148e-01	-2.524517754e-02	1.166733274e-12
3.314000000e-01	2.440527419e-01	-2.523661668e-02	7.011604184e-13
3.315000000e-01	2.440896633e-01	-2.522806192e-02	8.539580329e-13
3.317000000e-01	2.441634893e-01	-2.521097064e-02	3.673801294e-13
3.318000000e-01	2.442003938e-01	-2.520243411e-02	4.752433832e-13
3.319000000e-01	2.442372928e-01	-2.519390364e-02	8.802389478e-13
3.320000000e-01	2.442741861e-01	-2.518537923e-02	5.485148115e-13
3.322000000e-01	2.443479559e-01	-2.516834856e-02	1.089689255e-12
3.323000000e-01	2.443848324e-01	-2.515984229e-02	5.810425928e-13
3.324000000e-01	2.444217032e-01	-2.515134205e-02	1.478601183e-13
3.325000000e-01	2.444585685e-01	-2.514284784e-02	4.512067785e-13
3.326000000e-01	2.444954282e-01	-2.513435965e-02	2.321239893e-13
3.327000000e-01	2.445322823e-01	-2.512587747e-02	4.835897478e-13
3.328000000e-01	2.445691308e-01	-2.511740130e-02	4.317312037e-14
3.330000000e-01	2.446428109e-01	-2.510046697e-02	4.982515170e-13
3.332000000e-01	2.447164688e-01	-2.508355660e-02	2.091485830e-13
3.334000000e-01	2.447901043e-01	-2.506667013e-02	5.301689055e-13
3.335000000e-01	2.448269137e-01	-2.505823585e-02	7.743323583e-13
3.336000000e-01	2.448637175e-01	-2.504980753e-02	6.518473377e-13
3.337000000e-01	2.449005157e-01	-2.504138516e-02	1.142024561e-12
3.338000000e-01	2.449373084e-01	-2.503296874e-02	9.708007458e-13
3.339000000e-01	2.449740955e-01	-2.502455826e-02	1.916916705e-12
3.340000000e-01	2.450108770e-01	-2.501615372e-02	4.550427258e-13
3.342000000e-01	2.450844234e-01	-2.499936240e-02	3.439054006e-13
3.343000000e-01	2.451211882e-01	-2.499097563e-02	3.289523821e-12
3.345000000e-01	2.451947013e-01	-2.497421980e-02	5.265335163e-13
3.346000000e-01	2.452314495e-01	-2.496585073e-02	1.004226139e-12
3.347000000e-01	2.452681921e-01	-2.495748756e-02	1.788762482e-12
3.348000000e-01	2.453049292e-01	-2.494913028e-02	6.205150303e-13
3.349000000e-01	2.453416608e-01	-2.494077887e-02	1.013930695e-12
3.350000000e-01	2.453783868e-01	-2.493243334e-02	4.839139139e-13
3.351000000e-01	2.454151073e-01	-2.492409368e-02	1.115437908e-13
3.352000000e-01	2.454518222e-01	-2.491575988e-02	6.759378021e-13
3.353000000e-01	2.454885316e-01	-2.490743193e-02	2.152871628e-12
3.354000000e-01	2.455252355e-01	-2.489910984e-02	9.842307898e-13
3.355000000e-01	2.455619338e-01	-2.489079359e-02	1.642127950e-12
3.356000000e-01	2.455986267e-01	-2.488248318e-02	4.658763209e-13
3.357000000e-01	2.456353140e-01	-2.487417860e-02	1.052987928e-12
3.358000000e-01	2.456719957e-01	-2.486587985e-02	2.075343844e-12
3.359000000e-01	2.457086720e-01	-2.485758692e-02	8.450364026e-13
3.361000000e-01	2.457820080e-01	-2.484101849e-02	7.918013987e-13
3.362000000e-01	2.458186677e-01	-2.483274299e-02	7.952974499e-13
3.363000000e-01	2.458553219e-01	-2.482447328e-02	8.410471756e-13
3.364000000e-01	2.458919706e-01	-2.481620936e-02	1.323593970e-12
3.365000000e-01	2.459286138e-01	-2.480795123e-02	1.557341849e-12
3.366000000e-01	2.459652515e-01	-2.479969888e-02	1.957750375e-12
3.367000000e-01	2.460018837e-01	-2.479145230e-02	3.643081632e-14
3.370000000e-01	2.461117474e-01	-2.476674714e-02	2.726757653e-12
3.371000000e-01	2.461483576e-01	-2.475852359e-02	9.797750993e-13
3.372000000e-01	2.461849623e-01	-2.475030579e-02	1.018525201e-12
3.373000000e-01	2.462215616e-01	-2.474209372e-02	7.883673897e-13
3.374000000e-01	2.462581554e-01	-2.473388739e-02	3.109233377e-13
3.375000000e-01	2.462947437e-01	-2.472568679e-02	2.864082668e-13
3.376000000e-01	2.463313265e-01	-2.471749190e-02	7.085879725e-13
3.379000000e-01	2.464410421e-01	-2.469294152e-02	4.951326709e-13
3.381000000e-01	2.465141586e-01	-2.467660309e-02	5.905300432e-13
3.382000000e-01	2.465507086e-01	-2.466844241e-02	1.280904237e-13
3.384000000e-01	2.466237922e-01	-2.465213808e-02	6.141853814e-13
3.385000000e-01	2.466603259e-01	-2.464399442e-02	8.336019838e-14
3.386000000e-01	2.466968541e-01	-2.463585642e-02	3.253224760e-13
3.387000000e-01	2.467333768e-01	-2.462772408e-02	1.085395979e-12
3.389000000e-01	2.468064059e-01	-2.461147635e-02	1.660038970e-12
3.390000000e-01	2.468429124e-01	-2.460336095e-02	4.992987663e-13
3.391000000e-01	2.468794133e-01	-2.459525119e-02	5.201583205e-13
3.392000000e-01	2.469159088e-01	-2.458714705e-02	1.271348425e-12
3.394000000e-01	2.469888836e-01	-2.457095564e-02	4.258134093e-13
3.395000000e-01	2.470253628e-01	-2.456286835e-02	7.010935475e-13
3.396000000e-01	2.470618366e-01	-2.455478667e-02	5.092308122e-13
3.397000000e-01	2.470983050e-01	-2.454671059e-02	1.879575421e-12
3.398000000e-01	2.471347679e-01	-2.453864011e-02	1.511464930e-12
3.399000000e-01	2.471712255e-01	-2.453057521e-02	1.257602456e-12
