# kz [1/micrones]     Omega [THz]    log10(|det|)     , $\mu_c$ = 0.9000 eV, modo = 1, R = 3.50$\mu$m, $\eta$ = 0.90, plot_det_conkz.py
3.00000000000e-01	1.70877579700e+01	-3.06092462071e+00
3.10000000000e-01	1.72740670578e+01	-3.11808181060e+00
3.20000000000e-01	1.74610311227e+01	-3.17322166057e+00
3.30000000000e-01	1.76484350651e+01	-3.22647442938e+00
3.40000000000e-01	1.78360796702e+01	-3.27795822315e+00
3.50000000000e-01	1.80237811050e+01	-3.32778050076e+00
3.60000000000e-01	1.82113702972e+01	-3.37603934736e+00
3.70000000000e-01	1.83986923587e+01	-3.42282455809e+00
3.80000000000e-01	1.85856059050e+01	-3.46821856565e+00
3.90000000000e-01	1.87719824629e+01	-3.51229723816e+00
4.00000000000e-01	1.89577057693e+01	-3.55513056903e+00
4.10000000000e-01	1.91426711260e+01	-3.59678327604e+00
4.20000000000e-01	1.93267847510e+01	-3.63731532406e+00
4.30000000000e-01	1.95099631239e+01	-3.67678238282e+00
4.40000000000e-01	1.96921323336e+01	-3.71523622945e+00
4.50000000000e-01	1.98732274913e+01	-3.75272510380e+00
4.60000000000e-01	2.00531920906e+01	-3.78929402310e+00
4.70000000000e-01	2.02319774381e+01	-3.82498506157e+00
4.80000000000e-01	2.04095420763e+01	-3.85983759966e+00
4.90000000000e-01	2.05858512544e+01	-3.89388854690e+00
5.00000000000e-01	2.07608763914e+01	-3.92717254167e+00
5.10000000000e-01	2.09345945965e+01	-3.95972213088e+00
5.20000000000e-01	2.11069881770e+01	-3.99156793185e+00
5.30000000000e-01	2.12780442092e+01	-4.02273877866e+00
5.40000000000e-01	2.14477540892e+01	-4.05326185463e+00
5.50000000000e-01	2.16161131479e+01	-4.08316281266e+00
5.60000000000e-01	2.17831202900e+01	-4.11246588469e+00
5.70000000000e-01	2.19487776045e+01	-4.14119398143e+00
5.80000000000e-01	2.21130900805e+01	-4.16936878357e+00
5.90000000000e-01	2.22760652341e+01	-4.19701082512e+00
6.00000000000e-01	2.24377129029e+01	-4.22413956995e+00
6.10000000000e-01	2.25980449087e+01	-4.25077348198e+00
6.20000000000e-01	2.27570748513e+01	-4.27693008976e+00
6.30000000000e-01	2.29148178670e+01	-4.30262604608e+00
6.40000000000e-01	2.30712904149e+01	-4.32787718278e+00
6.50000000000e-01	2.32265101055e+01	-4.35269856158e+00
6.60000000000e-01	2.33804954994e+01	-4.37710452101e+00
6.70000000000e-01	2.35332659591e+01	-4.40110871990e+00
6.80000000000e-01	2.36848414964e+01	-4.42472417778e+00
6.90000000000e-01	2.38352426391e+01	-4.44796331231e+00
7.00000000000e-01	2.39844903155e+01	-4.47083797415e+00
7.10000000000e-01	2.41326057439e+01	-4.49335947941e+00
7.20000000000e-01	2.42796103249e+01	-4.51553863987e+00
7.30000000000e-01	2.44255255695e+01	-4.53738579113e+00
7.40000000000e-01	2.45703729962e+01	-4.55891081899e+00
7.50000000000e-01	2.47141740956e+01	-4.58012318396e+00
7.60000000000e-01	2.48569502244e+01	-4.60103194433e+00
7.70000000000e-01	2.49987226017e+01	-4.62164577762e+00
7.80000000000e-01	2.51395122050e+01	-4.64197300079e+00
7.90000000000e-01	2.52793397821e+01	-4.66202158910e+00
8.00000000000e-01	2.54182257749e+01	-4.68179919383e+00
8.10000000000e-01	2.55561903018e+01	-4.70131315898e+00
8.20000000000e-01	2.56932531435e+01	-4.72057053679e+00
8.30000000000e-01	2.58294336971e+01	-4.73957810254e+00
8.40000000000e-01	2.59647509967e+01	-4.75834236828e+00
8.50000000000e-01	2.60992236383e+01	-4.77686959590e+00
8.60000000000e-01	2.62328698415e+01	-4.79516580933e+00
8.70000000000e-01	2.63657073714e+01	-4.81323680606e+00
8.80000000000e-01	2.64977535852e+01	-4.83108816809e+00
8.90000000000e-01	2.66290253966e+01	-4.84872527209e+00
9.00000000000e-01	2.67595392924e+01	-4.86615329917e+00
9.10000000000e-01	2.68893113237e+01	-4.88337724395e+00
9.20000000000e-01	2.70183570995e+01	-4.90040192322e+00
9.30000000000e-01	2.71466918181e+01	-4.91723198411e+00
9.40000000000e-01	2.72743302321e+01	-4.93387191177e+00
9.50000000000e-01	2.74012866865e+01	-4.95032603672e+00
9.60000000000e-01	2.75275751167e+01	-4.96659854170e+00
9.70000000000e-01	2.76532090286e+01	-4.98269346824e+00
9.80000000000e-01	2.77782015554e+01	-4.99861472286e+00
9.90000000000e-01	2.79025654241e+01	-5.01436608291e+00
1.00000000000e+00	2.80263129798e+01	-5.02995120217e+00
1.01000000000e+00	2.81494561934e+01	-5.04537361611e+00
1.02000000000e+00	2.82720066722e+01	-5.06063674688e+00
1.03000000000e+00	2.83939756635e+01	-5.07574390810e+00
1.04000000000e+00	2.85153740810e+01	-5.09069830936e+00
1.05000000000e+00	2.86362124833e+01	-5.10550306049e+00
1.06000000000e+00	2.87565011199e+01	-5.12016117567e+00
1.07000000000e+00	2.88762499032e+01	-5.13467557727e+00
1.08000000000e+00	2.89954684505e+01	-5.14904909955e+00
1.09000000000e+00	2.91141660897e+01	-5.16328449218e+00
1.10000000000e+00	2.92323518411e+01	-5.17738442355e+00
1.11000000000e+00	2.93500344454e+01	-5.19135148397e+00
1.12000000000e+00	2.94672223970e+01	-5.20518818868e+00
1.13000000000e+00	2.95839238962e+01	-5.21889698076e+00
1.14000000000e+00	2.97001469131e+01	-5.23248023384e+00
1.15000000000e+00	2.98158991707e+01	-5.24594025477e+00
1.16000000000e+00	2.99311881495e+01	-5.25927928606e+00
1.17000000000e+00	3.00460211011e+01	-5.27249950833e+00
1.18000000000e+00	3.01604050691e+01	-5.28560304255e+00
1.19000000000e+00	3.02743468714e+01	-5.29859195222e+00
1.20000000000e+00	3.03878531431e+01	-5.31146824546e+00
1.21000000000e+00	3.05009302918e+01	-5.32423387699e+00
1.22000000000e+00	3.06135845709e+01	-5.33689075002e+00
1.23000000000e+00	3.07258220174e+01	-5.34944071807e+00
1.24000000000e+00	3.08376485159e+01	-5.36188558672e+00
1.25000000000e+00	3.09490697653e+01	-5.37422711524e+00
1.26000000000e+00	3.10600913213e+01	-5.38646701823e+00
1.27000000000e+00	3.11707185735e+01	-5.39860696708e+00
1.28000000000e+00	3.12809567412e+01	-5.41064859149e+00
1.29000000000e+00	3.13908109258e+01	-5.42259348082e+00
1.30000000000e+00	3.15002860767e+01	-5.43444318547e+00
1.31000000000e+00	3.16093870008e+01	-5.44619921811e+00
1.32000000000e+00	3.17181183943e+01	-5.45786305498e+00
1.33000000000e+00	3.18264848097e+01	-5.46943613702e+00
1.34000000000e+00	3.19344906838e+01	-5.48091987103e+00
1.35000000000e+00	3.20421403440e+01	-5.49231563072e+00
1.36000000000e+00	3.21494380063e+01	-5.50362475783e+00
1.37000000000e+00	3.22563877535e+01	-5.51484856307e+00
1.38000000000e+00	3.23629936144e+01	-5.52598832708e+00
1.39000000000e+00	3.24692594682e+01	-5.53704530142e+00
1.40000000000e+00	3.25751891238e+01	-5.54802070940e+00
1.41000000000e+00	3.26807863041e+01	-5.55891574697e+00
1.42000000000e+00	3.27860546078e+01	-5.56973158353e+00
1.43000000000e+00	3.28909975916e+01	-5.58046936272e+00
1.44000000000e+00	3.29956186996e+01	-5.59113020322e+00
1.45000000000e+00	3.30999213073e+01	-5.60171519943e+00
1.46000000000e+00	3.32039087069e+01	-5.61222542222e+00
1.47000000000e+00	3.33075841285e+01	-5.62266191961e+00
1.48000000000e+00	3.34109507179e+01	-5.63302571738e+00
1.49000000000e+00	3.35140115506e+01	-5.64331781978e+00
1.50000000000e+00	3.36167696540e+01	-5.65353921009e+00
1.51000000000e+00	3.37192279687e+01	-5.66369085121e+00
1.52000000000e+00	3.38213893852e+01	-5.67377368625e+00
1.53000000000e+00	3.39232567335e+01	-5.68378863906e+00
1.54000000000e+00	3.40248327827e+01	-5.69373661478e+00
1.55000000000e+00	3.41261202416e+01	-5.70361850032e+00
1.56000000000e+00	3.42271217821e+01	-5.71343516489e+00
1.57000000000e+00	3.43278399932e+01	-5.72318746045e+00
1.58000000000e+00	3.44282774512e+01	-5.73287622217e+00
1.59000000000e+00	3.45284366580e+01	-5.74250226891e+00
1.60000000000e+00	3.46283200678e+01	-5.75206640359e+00
1.61000000000e+00	3.47279301073e+01	-5.76156941367e+00
1.62000000000e+00	3.48272691398e+01	-5.77101207151e+00
1.63000000000e+00	3.49263394969e+01	-5.78039513477e+00
1.64000000000e+00	3.50251434564e+01	-5.78971934678e+00
1.65000000000e+00	3.51236832767e+01	-5.79898543692e+00
1.66000000000e+00	3.52219611539e+01	-5.80819412098e+00
1.67000000000e+00	3.53199792631e+01	-5.81734610145e+00
1.68000000000e+00	3.54177397333e+01	-5.82644206792e+00
1.69000000000e+00	3.55152446673e+01	-5.83548269734e+00
1.70000000000e+00	3.56124961276e+01	-5.84446865437e+00
1.71000000000e+00	3.57094961285e+01	-5.85340059167e+00
1.72000000000e+00	3.58062466791e+01	-5.86227915018e+00
1.73000000000e+00	3.59027497489e+01	-5.87110495940e+00
1.74000000000e+00	3.59990072535e+01	-5.87987863770e+00
1.75000000000e+00	3.60950211104e+01	-5.88860079253e+00
1.76000000000e+00	3.61907931869e+01	-5.89727202074e+00
1.77000000000e+00	3.62863253338e+01	-5.90589290876e+00
1.78000000000e+00	3.63816193635e+01	-5.91446403291e+00
1.79000000000e+00	3.64766770794e+01	-5.92298595958e+00
1.80000000000e+00	3.65715002365e+01	-5.93145924550e+00
1.81000000000e+00	3.66660905851e+01	-5.93988443793e+00
1.82000000000e+00	3.67604498291e+01	-5.94826207490e+00
1.83000000000e+00	3.68545796674e+01	-5.95659268542e+00
1.84000000000e+00	3.69484817667e+01	-5.96487678964e+00
1.85000000000e+00	3.70421577671e+01	-5.97311489910e+00
1.86000000000e+00	3.71356093010e+01	-5.98130751691e+00
1.87000000000e+00	3.72288379559e+01	-5.98945513791e+00
1.88000000000e+00	3.73218453315e+01	-5.99755824888e+00
1.89000000000e+00	3.74146329665e+01	-6.00561732869e+00
1.90000000000e+00	3.75072024041e+01	-6.01363284850e+00
1.91000000000e+00	3.75995551628e+01	-6.02160527193e+00
1.92000000000e+00	3.76916927522e+01	-6.02953505516e+00
1.93000000000e+00	3.77836166440e+01	-6.03742264718e+00
1.94000000000e+00	3.78753282843e+01	-6.04526848987e+00
1.95000000000e+00	3.79668291449e+01	-6.05307301818e+00
1.96000000000e+00	3.80581206290e+01	-6.06083666028e+00
1.97000000000e+00	3.81492041577e+01	-6.06855983770e+00
1.98000000000e+00	3.82400811109e+01	-6.07624296544e+00
1.99000000000e+00	3.83307528764e+01	-6.08388645214e+00
2.00000000000e+00	3.84212207961e+01	-6.09149070019e+00
2.01000000000e+00	3.85114862296e+01	-6.09905610588e+00
2.02000000000e+00	3.86015504846e+01	-6.10658305949e+00
2.03000000000e+00	3.86914148877e+01	-6.11407194544e+00
2.04000000000e+00	3.87810807254e+01	-6.12152314239e+00
2.05000000000e+00	3.88705492805e+01	-6.12893702338e+00
2.06000000000e+00	3.89598218194e+01	-6.13631395589e+00
2.07000000000e+00	3.90488995994e+01	-6.14365430202e+00
2.08000000000e+00	3.91377838524e+01	-6.15095841854e+00
2.09000000000e+00	3.92264758079e+01	-6.15822665703e+00
2.10000000000e+00	3.93149766718e+01	-6.16545936395e+00
2.11000000000e+00	3.94032876389e+01	-6.17265688075e+00
2.12000000000e+00	3.94914099068e+01	-6.17981954400e+00
2.13000000000e+00	3.95793446433e+01	-6.18694768543e+00
2.14000000000e+00	3.96670930078e+01	-6.19404163205e+00
2.15000000000e+00	3.97546561438e+01	-6.20110170625e+00
2.16000000000e+00	3.98420351850e+01	-6.20812822586e+00
2.17000000000e+00	3.99292312617e+01	-6.21512150425e+00
2.18000000000e+00	4.00162454819e+01	-6.22208185044e+00
2.19000000000e+00	4.01030789401e+01	-6.22900956911e+00
2.20000000000e+00	4.01897327399e+01	-6.23590496076e+00
2.21000000000e+00	4.02762079442e+01	-6.24276832175e+00
2.22000000000e+00	4.03625056404e+01	-6.24959994435e+00
2.23000000000e+00	4.04486268618e+01	-6.25640011687e+00
2.24000000000e+00	4.05345726681e+01	-6.26316912370e+00
2.25000000000e+00	4.06203440787e+01	-6.26990724538e+00
2.26000000000e+00	4.07059421411e+01	-6.27661475868e+00
2.27000000000e+00	4.07913678515e+01	-6.28329193666e+00
2.28000000000e+00	4.08766222220e+01	-6.28993904874e+00
2.29000000000e+00	4.09617062523e+01	-6.29655636075e+00
2.30000000000e+00	4.10466209168e+01	-6.30314413503e+00
2.31000000000e+00	4.11313672021e+01	-6.30970263046e+00
2.32000000000e+00	4.12159460726e+01	-6.31623210253e+00
2.33000000000e+00	4.13003584766e+01	-6.32273280338e+00
2.34000000000e+00	4.13846053712e+01	-6.32920498191e+00
2.35000000000e+00	4.14686876889e+01	-6.33564888377e+00
2.36000000000e+00	4.15526063696e+01	-6.34206475147e+00
2.37000000000e+00	4.16363623215e+01	-6.34845282440e+00
2.38000000000e+00	4.17199564736e+01	-6.35481333891e+00
2.39000000000e+00	4.18033897182e+01	-6.36114652833e+00
2.40000000000e+00	4.18866629557e+01	-6.36745262305e+00
2.41000000000e+00	4.19697770733e+01	-6.37373185054e+00
2.42000000000e+00	4.20527329515e+01	-6.37998443545e+00
2.43000000000e+00	4.21355314634e+01	-6.38621059959e+00
2.44000000000e+00	4.22181734690e+01	-6.39241056203e+00
2.45000000000e+00	4.23006598283e+01	-6.39858453912e+00
2.46000000000e+00	4.23829913783e+01	-6.40473274454e+00
2.47000000000e+00	4.24651689830e+01	-6.41085538935e+00
2.48000000000e+00	4.25471934492e+01	-6.41695268203e+00
2.49000000000e+00	4.26290656275e+01	-6.42302482850e+00
2.50000000000e+00	4.27107863135e+01	-6.42907203221e+00
