# Re(B2)     Im(B2)     kz [eV]     Omega/c [1/micrones]    Im(epsi1).Opt det con kz, R=0.5 \mum, Re(epsi1)=3.90, $\mu_c$ = 0.300 eV, find_best_pol2.py
0.000000000e+00	-0.000000000e+00	0.000000000e+00	2.321350251e-01	-2.825804208e-02
4.222289527e-11	-1.510627103e-13	5.000000000e-04	2.321350255e-01	-2.825804211e-02
8.444354344e-11	-3.021206579e-13	1.000000000e-03	2.321350269e-01	-2.825804221e-02
1.266596969e-10	-4.531690779e-13	1.500000000e-03	2.321350291e-01	-2.825804236e-02
1.688691087e-10	-6.042032081e-13	2.000000000e-03	2.321350321e-01	-2.825804258e-02
2.110695327e-10	-7.552182825e-13	2.500000000e-03	2.321350361e-01	-2.825804286e-02
2.532587221e-10	-9.062095397e-13	3.000000000e-03	2.321350409e-01	-2.825804320e-02
2.954344319e-10	-1.057172216e-12	3.500000000e-03	2.321350467e-01	-2.825804361e-02
3.375944166e-10	-1.208101540e-12	4.000000000e-03	2.321350533e-01	-2.825804408e-02
3.797364316e-10	-1.358992748e-12	4.500000000e-03	2.321350607e-01	-2.825804461e-02
4.218582350e-10	-1.509841077e-12	5.000000000e-03	2.321350691e-01	-2.825804520e-02
4.639575832e-10	-1.660641752e-12	5.500000000e-03	2.321350783e-01	-2.825804586e-02
5.060322367e-10	-1.811390017e-12	6.000000000e-03	2.321350885e-01	-2.825804657e-02
5.480799538e-10	-1.962081086e-12	6.500000000e-03	2.321350995e-01	-2.825804735e-02
5.900984957e-10	-2.112710191e-12	7.000000000e-03	2.321351113e-01	-2.825804820e-02
6.320856279e-10	-2.263272570e-12	7.500000000e-03	2.321351241e-01	-2.825804910e-02
7.159567171e-10	-2.564178037e-12	8.500000000e-03	2.321351523e-01	-2.825805110e-02
7.578362087e-10	-2.714511570e-12	9.000000000e-03	2.321351677e-01	-2.825805219e-02
7.996753563e-10	-2.864759254e-12	9.500000000e-03	2.321351839e-01	-2.825805334e-02
8.414719346e-10	-3.014916340e-12	1.000000000e-02	2.321352011e-01	-2.825805456e-02
8.832237148e-10	-3.164978008e-12	1.050000000e-02	2.321352191e-01	-2.825805584e-02
9.249284763e-10	-3.314939506e-12	1.100000000e-02	2.321352381e-01	-2.825805718e-02
9.665839947e-10	-3.464796022e-12	1.150000000e-02	2.321352579e-01	-2.825805858e-02
1.008188051e-09	-3.614542784e-12	1.200000000e-02	2.321352785e-01	-2.825806005e-02
1.049738432e-09	-3.764174994e-12	1.250000000e-02	2.321353001e-01	-2.825806158e-02
1.091232921e-09	-3.913687854e-12	1.300000000e-02	2.321353225e-01	-2.825806317e-02
1.132669310e-09	-4.063076579e-12	1.350000000e-02	2.321353459e-01	-2.825806482e-02
1.174045389e-09	-4.212336372e-12	1.400000000e-02	2.321353701e-01	-2.825806654e-02
1.215358953e-09	-4.361462418e-12	1.450000000e-02	2.321353952e-01	-2.825806832e-02
1.256607800e-09	-4.510449922e-12	1.500000000e-02	2.321354211e-01	-2.825807016e-02
1.297789734e-09	-4.659294076e-12	1.550000000e-02	2.321354480e-01	-2.825807206e-02
1.338902557e-09	-4.807990067e-12	1.600000000e-02	2.321354757e-01	-2.825807403e-02
1.379944079e-09	-4.956533095e-12	1.650000000e-02	2.321355043e-01	-2.825807605e-02
1.420912112e-09	-5.104918331e-12	1.700000000e-02	2.321355338e-01	-2.825807814e-02
1.461804470e-09	-5.253140954e-12	1.750000000e-02	2.321355641e-01	-2.825808030e-02
1.502618975e-09	-5.401196167e-12	1.800000000e-02	2.321355954e-01	-2.825808251e-02
1.543353448e-09	-5.549079111e-12	1.850000000e-02	2.321356275e-01	-2.825808479e-02
1.584005717e-09	-5.696784969e-12	1.900000000e-02	2.321356605e-01	-2.825808713e-02
1.624573615e-09	-5.844308932e-12	1.950000000e-02	2.321356944e-01	-2.825808953e-02
1.665054974e-09	-5.991646117e-12	2.000000000e-02	2.321357291e-01	-2.825809199e-02
1.705447639e-09	-6.138791735e-12	2.050000000e-02	2.321357648e-01	-2.825809452e-02
1.745749451e-09	-6.285740900e-12	2.100000000e-02	2.321358013e-01	-2.825809711e-02
1.826071921e-09	-6.579030555e-12	2.200000000e-02	2.321358770e-01	-2.825810248e-02
1.866088289e-09	-6.725361327e-12	2.250000000e-02	2.321359161e-01	-2.825810525e-02
1.945820618e-09	-7.017370444e-12	2.350000000e-02	2.321359971e-01	-2.825811099e-02
1.985532318e-09	-7.163039073e-12	2.400000000e-02	2.321360389e-01	-2.825811396e-02
2.025138212e-09	-7.308477256e-12	2.450000000e-02	2.321360816e-01	-2.825811698e-02
2.064636183e-09	-7.453680088e-12	2.500000000e-02	2.321361251e-01	-2.825812007e-02
2.104024126e-09	-7.598642731e-12	2.550000000e-02	2.321361696e-01	-2.825812322e-02
2.143299929e-09	-7.743360260e-12	2.600000000e-02	2.321362149e-01	-2.825812643e-02
2.182461497e-09	-7.887827825e-12	2.650000000e-02	2.321362611e-01	-2.825812971e-02
2.221506737e-09	-8.032040492e-12	2.700000000e-02	2.321363082e-01	-2.825813305e-02
2.260433561e-09	-8.175993386e-12	2.750000000e-02	2.321363562e-01	-2.825813645e-02
2.299239884e-09	-8.319681590e-12	2.800000000e-02	2.321364050e-01	-2.825813991e-02
2.337923635e-09	-8.463100193e-12	2.850000000e-02	2.321364547e-01	-2.825814343e-02
2.376482743e-09	-8.606244285e-12	2.900000000e-02	2.321365053e-01	-2.825814702e-02
2.414915147e-09	-8.749108955e-12	2.950000000e-02	2.321365568e-01	-2.825815067e-02
2.453218790e-09	-8.891689276e-12	3.000000000e-02	2.321366092e-01	-2.825815438e-02
2.491391618e-09	-9.033980304e-12	3.050000000e-02	2.321366624e-01	-2.825815816e-02
2.567336676e-09	-9.317674770e-12	3.150000000e-02	2.321367715e-01	-2.825816589e-02
2.605104839e-09	-9.459068329e-12	3.200000000e-02	2.321368274e-01	-2.825816985e-02
2.642734059e-09	-9.600152834e-12	3.250000000e-02	2.321368842e-01	-2.825817388e-02
2.680222316e-09	-9.740923305e-12	3.300000000e-02	2.321369418e-01	-2.825817796e-02
2.754767928e-09	-1.002150240e-11	3.400000000e-02	2.321370597e-01	-2.825818632e-02
2.791821288e-09	-1.016130106e-11	3.450000000e-02	2.321371200e-01	-2.825819059e-02
2.865479179e-09	-1.043989172e-11	3.550000000e-02	2.321372432e-01	-2.825819933e-02
2.902079765e-09	-1.057867378e-11	3.600000000e-02	2.321373062e-01	-2.825820379e-02
3.010944521e-09	-1.099290674e-11	3.750000000e-02	2.321375002e-01	-2.825821754e-02
3.046913952e-09	-1.113026330e-11	3.800000000e-02	2.321375666e-01	-2.825822225e-02
3.082720753e-09	-1.126725098e-11	3.850000000e-02	2.321376340e-01	-2.825822702e-02
3.118362992e-09	-1.140386473e-11	3.900000000e-02	2.321377022e-01	-2.825823186e-02
3.153838759e-09	-1.154009955e-11	3.950000000e-02	2.321377713e-01	-2.825823676e-02
3.189146144e-09	-1.167595035e-11	4.000000000e-02	2.321378412e-01	-2.825824171e-02
3.224283260e-09	-1.181141215e-11	4.050000000e-02	2.321379121e-01	-2.825824674e-02
3.259248208e-09	-1.194647986e-11	4.100000000e-02	2.321379838e-01	-2.825825182e-02
3.294039114e-09	-1.208114842e-11	4.150000000e-02	2.321380564e-01	-2.825825697e-02
3.328654106e-09	-1.221541283e-11	4.200000000e-02	2.321381299e-01	-2.825826217e-02
3.363091319e-09	-1.234926795e-11	4.250000000e-02	2.321382042e-01	-2.825826745e-02
3.397348910e-09	-1.248270876e-11	4.300000000e-02	2.321382795e-01	-2.825827278e-02
3.431425026e-09	-1.261573013e-11	4.350000000e-02	2.321383556e-01	-2.825827817e-02
3.465317837e-09	-1.274832702e-11	4.400000000e-02	2.321384326e-01	-2.825828363e-02
3.499025520e-09	-1.288049433e-11	4.450000000e-02	2.321385105e-01	-2.825828915e-02
3.532546254e-09	-1.301222697e-11	4.500000000e-02	2.321385892e-01	-2.825829473e-02
3.565878244e-09	-1.314351983e-11	4.550000000e-02	2.321386689e-01	-2.825830038e-02
3.599019685e-09	-1.327436777e-11	4.600000000e-02	2.321387494e-01	-2.825830609e-02
3.631968796e-09	-1.340476575e-11	4.650000000e-02	2.321388308e-01	-2.825831186e-02
3.664723802e-09	-1.353470857e-11	4.700000000e-02	2.321389131e-01	-2.825831769e-02
3.697282930e-09	-1.366419112e-11	4.750000000e-02	2.321389962e-01	-2.825832358e-02
3.729644437e-09	-1.379320833e-11	4.800000000e-02	2.321390803e-01	-2.825832954e-02
3.761806567e-09	-1.392175499e-11	4.850000000e-02	2.321391652e-01	-2.825833556e-02
3.793767589e-09	-1.404982599e-11	4.900000000e-02	2.321392510e-01	-2.825834164e-02
3.825525780e-09	-1.417741617e-11	4.950000000e-02	2.321393377e-01	-2.825834778e-02
3.857079425e-09	-1.430452035e-11	5.000000000e-02	2.321394253e-01	-2.825835399e-02
3.888426815e-09	-1.443113340e-11	5.050000000e-02	2.321395137e-01	-2.825836025e-02
3.919566263e-09	-1.455725014e-11	5.100000000e-02	2.321396030e-01	-2.825836659e-02
3.950496087e-09	-1.468286539e-11	5.150000000e-02	2.321396932e-01	-2.825837298e-02
3.981214618e-09	-1.480797398e-11	5.200000000e-02	2.321397843e-01	-2.825837943e-02
4.011720194e-09	-1.493257072e-11	5.250000000e-02	2.321398763e-01	-2.825838595e-02
4.042011160e-09	-1.505665040e-11	5.300000000e-02	2.321399691e-01	-2.825839253e-02
4.101942746e-09	-1.530323784e-11	5.400000000e-02	2.321401574e-01	-2.825840588e-02
4.131580123e-09	-1.542573519e-11	5.450000000e-02	2.321402529e-01	-2.825841264e-02
4.160996416e-09	-1.554769465e-11	5.500000000e-02	2.321403493e-01	-2.825841947e-02
4.190190025e-09	-1.566911101e-11	5.550000000e-02	2.321404465e-01	-2.825842636e-02
4.219159377e-09	-1.578997904e-11	5.600000000e-02	2.321405446e-01	-2.825843332e-02
4.247902903e-09	-1.591029352e-11	5.650000000e-02	2.321406436e-01	-2.825844033e-02
4.276419048e-09	-1.603004922e-11	5.700000000e-02	2.321407435e-01	-2.825844741e-02
4.304706268e-09	-1.614924089e-11	5.750000000e-02	2.321408443e-01	-2.825845455e-02
4.332763021e-09	-1.626786324e-11	5.800000000e-02	2.321409459e-01	-2.825846175e-02
4.360587795e-09	-1.638591106e-11	5.850000000e-02	2.321410484e-01	-2.825846902e-02
4.388179083e-09	-1.650337908e-11	5.900000000e-02	2.321411518e-01	-2.825847635e-02
4.415535388e-09	-1.662026206e-11	5.950000000e-02	2.321412561e-01	-2.825848373e-02
4.442655227e-09	-1.673655471e-11	6.000000000e-02	2.321413613e-01	-2.825849119e-02
4.469537122e-09	-1.685225171e-11	6.050000000e-02	2.321414673e-01	-2.825849870e-02
4.496179630e-09	-1.696734788e-11	6.100000000e-02	2.321415743e-01	-2.825850628e-02
4.522581290e-09	-1.708183783e-11	6.150000000e-02	2.321416821e-01	-2.825851392e-02
4.548740669e-09	-1.719571632e-11	6.200000000e-02	2.321417907e-01	-2.825852162e-02
4.574656363e-09	-1.730897807e-11	6.250000000e-02	2.321419003e-01	-2.825852938e-02
4.600326950e-09	-1.742161774e-11	6.300000000e-02	2.321420107e-01	-2.825853721e-02
4.625751051e-09	-1.753363010e-11	6.350000000e-02	2.321421221e-01	-2.825854509e-02
4.650927271e-09	-1.764500979e-11	6.400000000e-02	2.321422343e-01	-2.825855304e-02
4.675854240e-09	-1.775575146e-11	6.450000000e-02	2.321423473e-01	-2.825856106e-02
4.700530623e-09	-1.786584987e-11	6.500000000e-02	2.321424613e-01	-2.825856913e-02
4.724955061e-09	-1.797529966e-11	6.550000000e-02	2.321425761e-01	-2.825857727e-02
4.749126243e-09	-1.808409555e-11	6.600000000e-02	2.321426919e-01	-2.825858547e-02
4.773042840e-09	-1.819223215e-11	6.650000000e-02	2.321428085e-01	-2.825859373e-02
4.796703552e-09	-1.829970413e-11	6.700000000e-02	2.321429259e-01	-2.825860205e-02
4.820107109e-09	-1.840650621e-11	6.750000000e-02	2.321430443e-01	-2.825861044e-02
4.843252221e-09	-1.851263301e-11	6.800000000e-02	2.321431635e-01	-2.825861889e-02
4.911124430e-09	-1.882690841e-11	6.950000000e-02	2.321435265e-01	-2.825864461e-02
4.933223355e-09	-1.893028070e-11	7.000000000e-02	2.321436493e-01	-2.825865330e-02
4.955057685e-09	-1.903295099e-11	7.050000000e-02	2.321437729e-01	-2.825866206e-02
4.976626249e-09	-1.913491394e-11	7.100000000e-02	2.321438975e-01	-2.825867088e-02
4.997927856e-09	-1.923616414e-11	7.150000000e-02	2.321440229e-01	-2.825867977e-02
5.018961348e-09	-1.933669622e-11	7.200000000e-02	2.321441491e-01	-2.825868872e-02
5.039725598e-09	-1.943650491e-11	7.250000000e-02	2.321442763e-01	-2.825869772e-02
5.060219459e-09	-1.953558474e-11	7.300000000e-02	2.321444043e-01	-2.825870680e-02
5.080441825e-09	-1.963393041e-11	7.350000000e-02	2.321445332e-01	-2.825871593e-02
5.100391597e-09	-1.973153655e-11	7.400000000e-02	2.321446630e-01	-2.825872512e-02
5.120067690e-09	-1.982839775e-11	7.450000000e-02	2.321447937e-01	-2.825873438e-02
5.139469033e-09	-1.992450870e-11	7.500000000e-02	2.321449253e-01	-2.825874370e-02
5.158594563e-09	-2.001986394e-11	7.550000000e-02	2.321450577e-01	-2.825875308e-02
5.177443250e-09	-2.011445816e-11	7.600000000e-02	2.321451910e-01	-2.825876253e-02
5.196014068e-09	-2.020828597e-11	7.650000000e-02	2.321453252e-01	-2.825877203e-02
5.214306008e-09	-2.030134200e-11	7.700000000e-02	2.321454603e-01	-2.825878160e-02
5.232318078e-09	-2.039362087e-11	7.750000000e-02	2.321455963e-01	-2.825879123e-02
5.250049288e-09	-2.048511716e-11	7.800000000e-02	2.321457331e-01	-2.825880093e-02
5.284665326e-09	-2.066574066e-11	7.900000000e-02	2.321460094e-01	-2.825882050e-02
5.301548274e-09	-2.075485712e-11	7.950000000e-02	2.321461489e-01	-2.825883038e-02
5.318146616e-09	-2.084316957e-11	8.000000000e-02	2.321462893e-01	-2.825884032e-02
5.350485878e-09	-2.101736071e-11	8.100000000e-02	2.321465726e-01	-2.825886040e-02
5.366225056e-09	-2.110322877e-11	8.150000000e-02	2.321467156e-01	-2.825887052e-02
5.381676124e-09	-2.118827133e-11	8.200000000e-02	2.321468595e-01	-2.825888072e-02
5.396838237e-09	-2.127248294e-11	8.250000000e-02	2.321470042e-01	-2.825889097e-02
5.411710594e-09	-2.135585834e-11	8.300000000e-02	2.321471499e-01	-2.825890129e-02
5.426292373e-09	-2.143839209e-11	8.350000000e-02	2.321472964e-01	-2.825891166e-02
5.440582798e-09	-2.152007888e-11	8.400000000e-02	2.321474438e-01	-2.825892210e-02
5.468286506e-09	-2.168089009e-11	8.500000000e-02	2.321477412e-01	-2.825894317e-02
5.481698309e-09	-2.176000383e-11	8.550000000e-02	2.321478913e-01	-2.825895380e-02
5.494815764e-09	-2.183824915e-11	8.600000000e-02	2.321480422e-01	-2.825896449e-02
5.507638178e-09	-2.191562075e-11	8.650000000e-02	2.321481940e-01	-2.825897524e-02
5.520164854e-09	-2.199211324e-11	8.700000000e-02	2.321483466e-01	-2.825898605e-02
5.532395141e-09	-2.206772138e-11	8.750000000e-02	2.321485002e-01	-2.825899693e-02
5.544328366e-09	-2.214243977e-11	8.800000000e-02	2.321486546e-01	-2.825900786e-02
5.567301131e-09	-2.228918606e-11	8.900000000e-02	2.321489661e-01	-2.825902993e-02
5.578339449e-09	-2.236120334e-11	8.950000000e-02	2.321491232e-01	-2.825904105e-02
5.599517024e-09	-2.250249963e-11	9.050000000e-02	2.321494400e-01	-2.825906349e-02
5.609655161e-09	-2.257176801e-11	9.100000000e-02	2.321495997e-01	-2.825907480e-02
5.619492152e-09	-2.264010954e-11	9.150000000e-02	2.321497603e-01	-2.825908617e-02
5.638260642e-09	-2.277399083e-11	9.250000000e-02	2.321500841e-01	-2.825910910e-02
5.647191172e-09	-2.283952013e-11	9.300000000e-02	2.321502474e-01	-2.825912066e-02
5.655818589e-09	-2.290410144e-11	9.350000000e-02	2.321504115e-01	-2.825913229e-02
5.664142458e-09	-2.296772957e-11	9.400000000e-02	2.321505765e-01	-2.825914397e-02
5.672162340e-09	-2.303039924e-11	9.450000000e-02	2.321507423e-01	-2.825915572e-02
5.679877849e-09	-2.309210532e-11	9.500000000e-02	2.321509091e-01	-2.825916752e-02
5.687288572e-09	-2.315284248e-11	9.550000000e-02	2.321510767e-01	-2.825917940e-02
5.694394144e-09	-2.321260559e-11	9.600000000e-02	2.321512452e-01	-2.825919133e-02
5.701194211e-09	-2.327138945e-11	9.650000000e-02	2.321514146e-01	-2.825920332e-02
5.707688436e-09	-2.332918886e-11	9.700000000e-02	2.321515849e-01	-2.825921538e-02
5.713876487e-09	-2.338599854e-11	9.750000000e-02	2.321517560e-01	-2.825922750e-02
5.719758087e-09	-2.344181356e-11	9.800000000e-02	2.321519281e-01	-2.825923968e-02
5.735561327e-09	-2.360323825e-11	9.950000000e-02	2.321524494e-01	-2.825927660e-02
5.740214419e-09	-2.365502273e-11	1.000000000e-01	2.321526250e-01	-2.825928903e-02
5.744559806e-09	-2.370578674e-11	1.005000000e-01	2.321528014e-01	-2.825930152e-02
5.748597309e-09	-2.375552529e-11	1.010000000e-01	2.321529787e-01	-2.825931408e-02
5.752326757e-09	-2.380423331e-11	1.015000000e-01	2.321531569e-01	-2.825932669e-02
5.755747996e-09	-2.385190571e-11	1.020000000e-01	2.321533360e-01	-2.825933937e-02
5.758860879e-09	-2.389853748e-11	1.025000000e-01	2.321535159e-01	-2.825935212e-02
5.761665303e-09	-2.394412356e-11	1.030000000e-01	2.321536967e-01	-2.825936492e-02
5.764161170e-09	-2.398865902e-11	1.035000000e-01	2.321538784e-01	-2.825937778e-02
5.768226942e-09	-2.407455803e-11	1.045000000e-01	2.321542445e-01	-2.825940370e-02
5.769796736e-09	-2.411591169e-11	1.050000000e-01	2.321544288e-01	-2.825941675e-02
5.771057786e-09	-2.415619488e-11	1.055000000e-01	2.321546141e-01	-2.825942987e-02
5.772010068e-09	-2.419540266e-11	1.060000000e-01	2.321548002e-01	-2.825944304e-02
5.772988438e-09	-2.427057240e-11	1.070000000e-01	2.321551750e-01	-2.825946958e-02
5.772141366e-09	-2.437514006e-11	1.085000000e-01	2.321557439e-01	-2.825950986e-02
5.771242131e-09	-2.440779347e-11	1.090000000e-01	2.321559353e-01	-2.825952341e-02
5.770034653e-09	-2.443933770e-11	1.095000000e-01	2.321561275e-01	-2.825953702e-02
5.768519107e-09	-2.446976802e-11	1.100000000e-01	2.321563207e-01	-2.825955069e-02
5.764564467e-09	-2.452726803e-11	1.110000000e-01	2.321567096e-01	-2.825957823e-02
5.762125787e-09	-2.455432845e-11	1.115000000e-01	2.321569054e-01	-2.825959209e-02
5.759379835e-09	-2.458025618e-11	1.120000000e-01	2.321571021e-01	-2.825960601e-02
5.752967117e-09	-2.462869538e-11	1.130000000e-01	2.321574980e-01	-2.825963404e-02
5.749300925e-09	-2.465119771e-11	1.135000000e-01	2.321576973e-01	-2.825964815e-02
5.745328584e-09	-2.467254914e-11	1.140000000e-01	2.321578975e-01	-2.825966232e-02
5.741050425e-09	-2.469274521e-11	1.145000000e-01	2.321580986e-01	-2.825967655e-02
5.731578051e-09	-2.472965322e-11	1.155000000e-01	2.321585033e-01	-2.825970520e-02
5.720886873e-09	-2.476188653e-11	1.165000000e-01	2.321589116e-01	-2.825973411e-02
5.715085259e-09	-2.477623915e-11	1.170000000e-01	2.321591170e-01	-2.825974865e-02
5.708980244e-09	-2.478941010e-11	1.175000000e-01	2.321593234e-01	-2.825976325e-02
5.702572275e-09	-2.480139500e-11	1.180000000e-01	2.321595306e-01	-2.825977792e-02
5.695861854e-09	-2.481218968e-11	1.185000000e-01	2.321597387e-01	-2.825979265e-02
5.681535717e-09	-2.483019147e-11	1.195000000e-01	2.321601575e-01	-2.825982230e-02
5.666006186e-09	-2.484338233e-11	1.205000000e-01	2.321605799e-01	-2.825985219e-02
5.649277903e-09	-2.485172948e-11	1.215000000e-01	2.321610057e-01	-2.825988234e-02
5.640465794e-09	-2.485407672e-11	1.220000000e-01	2.321612200e-01	-2.825989750e-02
5.631355890e-09	-2.485520109e-11	1.225000000e-01	2.321614351e-01	-2.825991273e-02
5.621948880e-09	-2.485509870e-11	1.230000000e-01	2.321616511e-01	-2.825992802e-02
5.612245460e-09	-2.485376572e-11	1.235000000e-01	2.321618680e-01	-2.825994337e-02
5.591952283e-09	-2.484739277e-11	1.245000000e-01	2.321623045e-01	-2.825997426e-02
5.570482324e-09	-2.483605225e-11	1.255000000e-01	2.321627444e-01	-2.826000540e-02
5.559308023e-09	-2.482850996e-11	1.260000000e-01	2.321629657e-01	-2.826002106e-02
5.547841930e-09	-2.481971487e-11	1.265000000e-01	2.321631879e-01	-2.826003678e-02
5.536084876e-09	-2.480966341e-11	1.270000000e-01	2.321634109e-01	-2.826005257e-02
5.524037736e-09	-2.479835216e-11	1.275000000e-01	2.321636348e-01	-2.826006842e-02
5.499076759e-09	-2.477193647e-11	1.285000000e-01	2.321640853e-01	-2.826010030e-02
5.472966332e-09	-2.474044089e-11	1.295000000e-01	2.321645394e-01	-2.826013243e-02
5.459482446e-09	-2.472277989e-11	1.300000000e-01	2.321647677e-01	-2.826014859e-02
5.445714100e-09	-2.470383926e-11	1.305000000e-01	2.321649969e-01	-2.826016481e-02
5.431662306e-09	-2.468361581e-11	1.310000000e-01	2.321652270e-01	-2.826018110e-02
5.417328085e-09	-2.466210648e-11	1.315000000e-01	2.321654579e-01	-2.826019744e-02
5.402712515e-09	-2.463930832e-11	1.320000000e-01	2.321656898e-01	-2.826021385e-02
5.387816648e-09	-2.461521826e-11	1.325000000e-01	2.321659225e-01	-2.826023032e-02
5.357188470e-09	-2.456315135e-11	1.335000000e-01	2.321663906e-01	-2.826026345e-02
5.341458417e-09	-2.453516876e-11	1.340000000e-01	2.321666260e-01	-2.826028010e-02
5.325452585e-09	-2.450588319e-11	1.345000000e-01	2.321668622e-01	-2.826029682e-02
5.309172169e-09	-2.447529196e-11	1.350000000e-01	2.321670993e-01	-2.826031360e-02
5.292618373e-09	-2.444339258e-11	1.355000000e-01	2.321673373e-01	-2.826033044e-02
5.223694222e-09	-2.430266336e-11	1.375000000e-01	2.321682981e-01	-2.826039843e-02
5.187624772e-09	-2.422438742e-11	1.385000000e-01	2.321687838e-01	-2.826043280e-02
5.150497975e-09	-2.414081418e-11	1.395000000e-01	2.321692730e-01	-2.826046742e-02
5.092849671e-09	-2.400548760e-11	1.410000000e-01	2.321700134e-01	-2.826051981e-02
5.073117155e-09	-2.395771366e-11	1.415000000e-01	2.321702619e-01	-2.826053740e-02
