# kz [eV]     Omega/c [1/micrones]    Im(epsi1)     Eq(det).Opt det con kz, R=0.5 \mum, Re(epsi1)=3.90, $\mu_c$ = 0.300 eV, solve_det_conkz_vs_kz.py
0.000000000e+00	2.321350251e-01	-2.825804208e-02	6.358105655e-14
5.000000000e-04	2.321350255e-01	-2.825804211e-02	3.508417399e-13
1.000000000e-03	2.321350269e-01	-2.825804221e-02	3.203272595e-13
1.500000000e-03	2.321350291e-01	-2.825804236e-02	1.273712202e-13
2.000000000e-03	2.321350321e-01	-2.825804258e-02	2.366818460e-13
2.500000000e-03	2.321350361e-01	-2.825804286e-02	1.014027698e-12
3.000000000e-03	2.321350409e-01	-2.825804320e-02	1.767008136e-13
3.500000000e-03	2.321350467e-01	-2.825804361e-02	2.228482122e-13
4.000000000e-03	2.321350533e-01	-2.825804408e-02	1.150474550e-13
4.500000000e-03	2.321350607e-01	-2.825804461e-02	3.021820931e-13
5.000000000e-03	2.321350691e-01	-2.825804520e-02	1.540637624e-13
5.500000000e-03	2.321350783e-01	-2.825804586e-02	4.445488164e-14
6.000000000e-03	2.321350885e-01	-2.825804657e-02	1.922244383e-13
6.500000000e-03	2.321350995e-01	-2.825804735e-02	2.995139797e-13
7.000000000e-03	2.321351113e-01	-2.825804820e-02	3.524393544e-13
7.500000000e-03	2.321351241e-01	-2.825804910e-02	6.489204138e-14
8.500000000e-03	2.321351523e-01	-2.825805110e-02	4.804648867e-13
9.000000000e-03	2.321351677e-01	-2.825805219e-02	1.593908450e-13
9.500000000e-03	2.321351839e-01	-2.825805334e-02	2.877646393e-13
1.000000000e-02	2.321352011e-01	-2.825805456e-02	4.031371669e-14
1.050000000e-02	2.321352191e-01	-2.825805584e-02	4.860901390e-13
1.100000000e-02	2.321352381e-01	-2.825805718e-02	1.557430351e-13
1.150000000e-02	2.321352579e-01	-2.825805858e-02	2.237489626e-13
1.200000000e-02	2.321352785e-01	-2.825806005e-02	5.658703761e-13
1.250000000e-02	2.321353001e-01	-2.825806158e-02	1.307154667e-13
1.300000000e-02	2.321353225e-01	-2.825806317e-02	3.072074173e-13
1.350000000e-02	2.321353459e-01	-2.825806482e-02	4.548474122e-13
1.400000000e-02	2.321353701e-01	-2.825806654e-02	2.412509026e-13
1.450000000e-02	2.321353952e-01	-2.825806832e-02	4.220907046e-13
1.500000000e-02	2.321354211e-01	-2.825807016e-02	4.584405774e-13
1.550000000e-02	2.321354480e-01	-2.825807206e-02	4.942471633e-13
1.600000000e-02	2.321354757e-01	-2.825807403e-02	4.707990750e-13
1.650000000e-02	2.321355043e-01	-2.825807605e-02	4.430113129e-13
1.700000000e-02	2.321355338e-01	-2.825807814e-02	2.863250149e-13
1.750000000e-02	2.321355641e-01	-2.825808030e-02	3.239138061e-13
1.800000000e-02	2.321355954e-01	-2.825808251e-02	3.596978787e-13
1.850000000e-02	2.321356275e-01	-2.825808479e-02	8.036719565e-13
1.900000000e-02	2.321356605e-01	-2.825808713e-02	1.785337098e-13
1.950000000e-02	2.321356944e-01	-2.825808953e-02	2.717891946e-13
2.000000000e-02	2.321357291e-01	-2.825809199e-02	1.494373280e-13
2.050000000e-02	2.321357648e-01	-2.825809452e-02	9.811409092e-14
2.100000000e-02	2.321358013e-01	-2.825809711e-02	2.343748612e-13
2.200000000e-02	2.321358770e-01	-2.825810248e-02	4.617674009e-13
2.250000000e-02	2.321359161e-01	-2.825810525e-02	1.062940538e-13
2.350000000e-02	2.321359971e-01	-2.825811099e-02	1.349512024e-12
2.400000000e-02	2.321360389e-01	-2.825811396e-02	3.217811055e-13
2.450000000e-02	2.321360816e-01	-2.825811698e-02	6.408338143e-13
2.500000000e-02	2.321361251e-01	-2.825812007e-02	6.291063385e-13
2.550000000e-02	2.321361696e-01	-2.825812322e-02	3.701032523e-13
2.600000000e-02	2.321362149e-01	-2.825812643e-02	2.187109534e-13
2.650000000e-02	2.321362611e-01	-2.825812971e-02	3.213208649e-13
2.700000000e-02	2.321363082e-01	-2.825813305e-02	4.400405253e-13
2.750000000e-02	2.321363562e-01	-2.825813645e-02	2.154677581e-13
2.800000000e-02	2.321364050e-01	-2.825813991e-02	2.095442622e-13
2.850000000e-02	2.321364547e-01	-2.825814343e-02	4.488074350e-13
2.900000000e-02	2.321365053e-01	-2.825814702e-02	7.749302027e-13
2.950000000e-02	2.321365568e-01	-2.825815067e-02	2.153357974e-13
3.000000000e-02	2.321366092e-01	-2.825815438e-02	1.308436556e-13
3.050000000e-02	2.321366624e-01	-2.825815816e-02	1.221235250e-13
3.150000000e-02	2.321367715e-01	-2.825816589e-02	1.393550421e-13
3.200000000e-02	2.321368274e-01	-2.825816985e-02	1.130450232e-12
3.250000000e-02	2.321368842e-01	-2.825817388e-02	1.542690169e-13
3.300000000e-02	2.321369418e-01	-2.825817796e-02	5.293566014e-13
3.400000000e-02	2.321370597e-01	-2.825818632e-02	5.600722609e-13
3.450000000e-02	2.321371200e-01	-2.825819059e-02	3.049149026e-13
3.550000000e-02	2.321372432e-01	-2.825819933e-02	3.125380489e-13
3.600000000e-02	2.321373062e-01	-2.825820379e-02	2.969198157e-13
3.750000000e-02	2.321375002e-01	-2.825821754e-02	1.489423375e-13
3.800000000e-02	2.321375666e-01	-2.825822225e-02	6.999640536e-13
3.850000000e-02	2.321376340e-01	-2.825822702e-02	5.954831250e-13
3.900000000e-02	2.321377022e-01	-2.825823186e-02	4.644939883e-14
3.950000000e-02	2.321377713e-01	-2.825823676e-02	1.654921770e-13
4.000000000e-02	2.321378412e-01	-2.825824171e-02	5.457892743e-13
4.050000000e-02	2.321379121e-01	-2.825824674e-02	2.572171276e-13
4.100000000e-02	2.321379838e-01	-2.825825182e-02	1.298386822e-13
4.150000000e-02	2.321380564e-01	-2.825825697e-02	2.156714747e-13
4.200000000e-02	2.321381299e-01	-2.825826217e-02	5.904393521e-13
4.250000000e-02	2.321382042e-01	-2.825826745e-02	1.835288102e-13
4.300000000e-02	2.321382795e-01	-2.825827278e-02	3.532271777e-14
4.350000000e-02	2.321383556e-01	-2.825827817e-02	5.636682173e-13
4.400000000e-02	2.321384326e-01	-2.825828363e-02	4.322131091e-13
4.450000000e-02	2.321385105e-01	-2.825828915e-02	4.376282391e-14
4.500000000e-02	2.321385892e-01	-2.825829473e-02	2.135468736e-13
4.550000000e-02	2.321386689e-01	-2.825830038e-02	3.223721053e-13
4.600000000e-02	2.321387494e-01	-2.825830609e-02	1.263648809e-13
4.650000000e-02	2.321388308e-01	-2.825831186e-02	1.740895804e-13
4.700000000e-02	2.321389131e-01	-2.825831769e-02	3.405915687e-13
4.750000000e-02	2.321389962e-01	-2.825832358e-02	1.103740354e-12
4.800000000e-02	2.321390803e-01	-2.825832954e-02	2.037170733e-13
4.850000000e-02	2.321391652e-01	-2.825833556e-02	2.747483936e-13
4.900000000e-02	2.321392510e-01	-2.825834164e-02	1.284603959e-12
4.950000000e-02	2.321393377e-01	-2.825834778e-02	2.576288125e-13
5.000000000e-02	2.321394253e-01	-2.825835399e-02	5.160569281e-13
5.050000000e-02	2.321395137e-01	-2.825836025e-02	6.333368079e-14
5.100000000e-02	2.321396030e-01	-2.825836659e-02	1.182486254e-13
5.150000000e-02	2.321396932e-01	-2.825837298e-02	2.766022950e-13
5.200000000e-02	2.321397843e-01	-2.825837943e-02	7.758857034e-13
5.250000000e-02	2.321398763e-01	-2.825838595e-02	1.194483358e-13
5.300000000e-02	2.321399691e-01	-2.825839253e-02	8.867420010e-14
5.400000000e-02	2.321401574e-01	-2.825840588e-02	3.846204488e-13
5.450000000e-02	2.321402529e-01	-2.825841264e-02	3.294021036e-13
5.500000000e-02	2.321403493e-01	-2.825841947e-02	6.728877160e-13
5.550000000e-02	2.321404465e-01	-2.825842636e-02	1.511503130e-13
5.600000000e-02	2.321405446e-01	-2.825843332e-02	3.360063660e-13
5.650000000e-02	2.321406436e-01	-2.825844033e-02	1.484120955e-13
5.700000000e-02	2.321407435e-01	-2.825844741e-02	3.624214326e-13
5.750000000e-02	2.321408443e-01	-2.825845455e-02	6.902451645e-13
5.800000000e-02	2.321409459e-01	-2.825846175e-02	5.644213946e-14
5.850000000e-02	2.321410484e-01	-2.825846902e-02	8.017055575e-13
5.900000000e-02	2.321411518e-01	-2.825847635e-02	2.962170797e-13
5.950000000e-02	2.321412561e-01	-2.825848373e-02	1.842167429e-13
6.000000000e-02	2.321413613e-01	-2.825849119e-02	1.605958782e-13
6.050000000e-02	2.321414673e-01	-2.825849870e-02	7.090036292e-13
6.100000000e-02	2.321415743e-01	-2.825850628e-02	3.336761551e-13
6.150000000e-02	2.321416821e-01	-2.825851392e-02	1.893476006e-14
6.200000000e-02	2.321417907e-01	-2.825852162e-02	3.817562813e-13
6.250000000e-02	2.321419003e-01	-2.825852938e-02	1.408739346e-12
6.300000000e-02	2.321420107e-01	-2.825853721e-02	3.659910725e-13
6.350000000e-02	2.321421221e-01	-2.825854509e-02	3.577177298e-13
6.400000000e-02	2.321422343e-01	-2.825855304e-02	9.031673636e-13
6.450000000e-02	2.321423473e-01	-2.825856106e-02	6.077219222e-13
6.500000000e-02	2.321424613e-01	-2.825856913e-02	8.112538831e-13
6.550000000e-02	2.321425761e-01	-2.825857727e-02	3.616967260e-13
6.600000000e-02	2.321426919e-01	-2.825858547e-02	1.481341399e-13
6.650000000e-02	2.321428085e-01	-2.825859373e-02	2.446483491e-13
6.700000000e-02	2.321429259e-01	-2.825860205e-02	4.042474600e-13
6.750000000e-02	2.321430443e-01	-2.825861044e-02	3.388671606e-13
6.800000000e-02	2.321431635e-01	-2.825861889e-02	3.866927478e-13
6.950000000e-02	2.321435265e-01	-2.825864461e-02	2.478940774e-13
7.000000000e-02	2.321436493e-01	-2.825865330e-02	3.994930040e-13
7.050000000e-02	2.321437729e-01	-2.825866206e-02	3.437903431e-13
7.100000000e-02	2.321438975e-01	-2.825867088e-02	2.006947326e-13
7.150000000e-02	2.321440229e-01	-2.825867977e-02	1.518610566e-13
7.200000000e-02	2.321441491e-01	-2.825868872e-02	6.762264452e-13
7.250000000e-02	2.321442763e-01	-2.825869772e-02	7.278831308e-13
7.300000000e-02	2.321444043e-01	-2.825870680e-02	3.156889583e-13
7.350000000e-02	2.321445332e-01	-2.825871593e-02	4.726505274e-13
7.400000000e-02	2.321446630e-01	-2.825872512e-02	6.816714604e-13
7.450000000e-02	2.321447937e-01	-2.825873438e-02	1.746454563e-13
7.500000000e-02	2.321449253e-01	-2.825874370e-02	4.782914161e-13
7.550000000e-02	2.321450577e-01	-2.825875308e-02	4.058070273e-12
7.600000000e-02	2.321451910e-01	-2.825876253e-02	3.310594724e-13
7.650000000e-02	2.321453252e-01	-2.825877203e-02	2.539295094e-13
7.700000000e-02	2.321454603e-01	-2.825878160e-02	2.004160094e-13
7.750000000e-02	2.321455963e-01	-2.825879123e-02	1.812257650e-13
7.800000000e-02	2.321457331e-01	-2.825880093e-02	8.543273829e-13
7.900000000e-02	2.321460094e-01	-2.825882050e-02	3.086773876e-13
7.950000000e-02	2.321461489e-01	-2.825883038e-02	4.159234981e-13
8.000000000e-02	2.321462893e-01	-2.825884032e-02	1.819809405e-13
8.100000000e-02	2.321465726e-01	-2.825886040e-02	5.711558044e-13
8.150000000e-02	2.321467156e-01	-2.825887052e-02	2.850249956e-13
8.200000000e-02	2.321468595e-01	-2.825888072e-02	7.676646180e-13
8.250000000e-02	2.321470042e-01	-2.825889097e-02	4.760275216e-13
8.300000000e-02	2.321471499e-01	-2.825890129e-02	7.456417897e-13
8.350000000e-02	2.321472964e-01	-2.825891166e-02	1.295463359e-12
8.400000000e-02	2.321474438e-01	-2.825892210e-02	4.997853692e-13
8.500000000e-02	2.321477412e-01	-2.825894317e-02	3.412583984e-13
8.550000000e-02	2.321478913e-01	-2.825895380e-02	2.850857160e-13
8.600000000e-02	2.321480422e-01	-2.825896449e-02	4.084322780e-13
8.650000000e-02	2.321481940e-01	-2.825897524e-02	9.178058741e-13
8.700000000e-02	2.321483466e-01	-2.825898605e-02	1.086908355e-13
8.750000000e-02	2.321485002e-01	-2.825899693e-02	1.033465521e-12
8.800000000e-02	2.321486546e-01	-2.825900786e-02	2.500757489e-13
8.900000000e-02	2.321489661e-01	-2.825902993e-02	6.287534473e-13
8.950000000e-02	2.321491232e-01	-2.825904105e-02	4.068578651e-13
9.050000000e-02	2.321494400e-01	-2.825906349e-02	4.282887884e-13
9.100000000e-02	2.321495997e-01	-2.825907480e-02	7.138365208e-13
9.150000000e-02	2.321497603e-01	-2.825908617e-02	7.199187289e-13
9.250000000e-02	2.321500841e-01	-2.825910910e-02	4.572265403e-13
9.300000000e-02	2.321502474e-01	-2.825912066e-02	5.586787077e-13
9.350000000e-02	2.321504115e-01	-2.825913229e-02	3.371392260e-13
9.400000000e-02	2.321505765e-01	-2.825914397e-02	1.698195384e-13
9.450000000e-02	2.321507423e-01	-2.825915572e-02	6.539288686e-13
9.500000000e-02	2.321509091e-01	-2.825916752e-02	1.786003621e-13
9.550000000e-02	2.321510767e-01	-2.825917940e-02	5.439174071e-13
9.600000000e-02	2.321512452e-01	-2.825919133e-02	2.231310723e-12
9.650000000e-02	2.321514146e-01	-2.825920332e-02	3.186235046e-13
9.700000000e-02	2.321515849e-01	-2.825921538e-02	6.342128790e-13
9.750000000e-02	2.321517560e-01	-2.825922750e-02	5.169524234e-13
9.800000000e-02	2.321519281e-01	-2.825923968e-02	3.287045930e-13
9.950000000e-02	2.321524494e-01	-2.825927660e-02	2.682890339e-13
1.000000000e-01	2.321526250e-01	-2.825928903e-02	4.917189152e-13
1.005000000e-01	2.321528014e-01	-2.825930152e-02	1.209329551e-12
1.010000000e-01	2.321529787e-01	-2.825931408e-02	9.155689185e-13
1.015000000e-01	2.321531569e-01	-2.825932669e-02	1.409227592e-13
1.020000000e-01	2.321533360e-01	-2.825933937e-02	2.201333935e-13
1.025000000e-01	2.321535159e-01	-2.825935212e-02	1.016468578e-12
1.030000000e-01	2.321536967e-01	-2.825936492e-02	1.443789512e-13
1.035000000e-01	2.321538784e-01	-2.825937778e-02	4.307603823e-14
1.045000000e-01	2.321542445e-01	-2.825940370e-02	1.142698756e-12
1.050000000e-01	2.321544288e-01	-2.825941675e-02	1.411867723e-12
1.055000000e-01	2.321546141e-01	-2.825942987e-02	8.949742657e-13
1.060000000e-01	2.321548002e-01	-2.825944304e-02	6.275660053e-13
1.070000000e-01	2.321551750e-01	-2.825946958e-02	2.768504418e-13
1.085000000e-01	2.321557439e-01	-2.825950986e-02	8.668351748e-13
1.090000000e-01	2.321559353e-01	-2.825952341e-02	4.344285957e-13
1.095000000e-01	2.321561275e-01	-2.825953702e-02	1.443127368e-13
1.100000000e-01	2.321563207e-01	-2.825955069e-02	7.836702294e-13
1.110000000e-01	2.321567096e-01	-2.825957823e-02	8.800517271e-13
1.115000000e-01	2.321569054e-01	-2.825959209e-02	5.632224270e-13
1.120000000e-01	2.321571021e-01	-2.825960601e-02	7.342949009e-14
1.130000000e-01	2.321574980e-01	-2.825963404e-02	1.121831280e-12
1.135000000e-01	2.321576973e-01	-2.825964815e-02	9.781622194e-13
1.140000000e-01	2.321578975e-01	-2.825966232e-02	1.115202161e-12
1.145000000e-01	2.321580986e-01	-2.825967655e-02	2.330828974e-12
1.155000000e-01	2.321585033e-01	-2.825970520e-02	1.168428284e-12
1.165000000e-01	2.321589116e-01	-2.825973411e-02	4.581617020e-12
1.170000000e-01	2.321591170e-01	-2.825974865e-02	4.144883545e-13
1.175000000e-01	2.321593234e-01	-2.825976325e-02	4.237750436e-13
1.180000000e-01	2.321595306e-01	-2.825977792e-02	1.098472873e-12
1.185000000e-01	2.321597387e-01	-2.825979265e-02	2.247835891e-13
1.195000000e-01	2.321601575e-01	-2.825982230e-02	1.111396167e-12
1.205000000e-01	2.321605799e-01	-2.825985219e-02	3.416758461e-13
1.215000000e-01	2.321610057e-01	-2.825988234e-02	9.715044618e-13
1.220000000e-01	2.321612200e-01	-2.825989750e-02	1.376879118e-12
1.225000000e-01	2.321614351e-01	-2.825991273e-02	3.922373902e-13
1.230000000e-01	2.321616511e-01	-2.825992802e-02	2.031381731e-12
1.235000000e-01	2.321618680e-01	-2.825994337e-02	1.947418414e-12
1.245000000e-01	2.321623045e-01	-2.825997426e-02	2.447831124e-12
1.255000000e-01	2.321627444e-01	-2.826000540e-02	5.826487071e-13
1.260000000e-01	2.321629657e-01	-2.826002106e-02	1.856352305e-13
1.265000000e-01	2.321631879e-01	-2.826003678e-02	4.442343847e-13
1.270000000e-01	2.321634109e-01	-2.826005257e-02	7.155241333e-13
1.275000000e-01	2.321636348e-01	-2.826006842e-02	7.093671395e-13
1.285000000e-01	2.321640853e-01	-2.826010030e-02	1.081871740e-12
1.295000000e-01	2.321645394e-01	-2.826013243e-02	2.211637449e-13
1.300000000e-01	2.321647677e-01	-2.826014859e-02	9.423325805e-13
1.305000000e-01	2.321649969e-01	-2.826016481e-02	2.354488671e-12
1.310000000e-01	2.321652270e-01	-2.826018110e-02	1.204460245e-12
1.315000000e-01	2.321654579e-01	-2.826019744e-02	3.582528782e-13
1.320000000e-01	2.321656898e-01	-2.826021385e-02	7.886949333e-13
1.325000000e-01	2.321659225e-01	-2.826023032e-02	3.321388783e-12
1.335000000e-01	2.321663906e-01	-2.826026345e-02	9.347238492e-13
1.340000000e-01	2.321666260e-01	-2.826028010e-02	6.368976815e-13
1.345000000e-01	2.321668622e-01	-2.826029682e-02	1.507923812e-12
1.350000000e-01	2.321670993e-01	-2.826031360e-02	7.208346280e-13
1.355000000e-01	2.321673373e-01	-2.826033044e-02	2.016110614e-12
1.375000000e-01	2.321682981e-01	-2.826039843e-02	3.322669300e-13
1.385000000e-01	2.321687838e-01	-2.826043280e-02	1.559859084e-12
1.395000000e-01	2.321692730e-01	-2.826046742e-02	8.863908727e-13
1.410000000e-01	2.321700134e-01	-2.826051981e-02	7.508970463e-13
1.415000000e-01	2.321702619e-01	-2.826053740e-02	1.158596360e-12
1.420000000e-01	2.321705114e-01	-2.826055505e-02	7.853272609e-13
1.425000000e-01	2.321707617e-01	-2.826057276e-02	2.410847797e-13
1.430000000e-01	2.321710129e-01	-2.826059054e-02	2.120132628e-12
1.435000000e-01	2.321712649e-01	-2.826060837e-02	4.891234097e-13
1.440000000e-01	2.321715179e-01	-2.826062627e-02	1.018408059e-12
1.445000000e-01	2.321717717e-01	-2.826064423e-02	3.156988642e-12
1.450000000e-01	2.321720264e-01	-2.826066226e-02	1.859884757e-12
1.455000000e-01	2.321722820e-01	-2.826068034e-02	1.385370304e-12
1.460000000e-01	2.321725385e-01	-2.826069849e-02	1.442317522e-13
1.475000000e-01	2.321733132e-01	-2.826075330e-02	2.709606370e-12
1.480000000e-01	2.321735732e-01	-2.826077170e-02	1.549706897e-12
1.485000000e-01	2.321738340e-01	-2.826079016e-02	2.378779150e-12
1.495000000e-01	2.321743584e-01	-2.826082726e-02	4.011128549e-12
1.510000000e-01	2.321751515e-01	-2.826088338e-02	9.938156066e-13
1.515000000e-01	2.321754177e-01	-2.826090221e-02	1.328547296e-12
1.520000000e-01	2.321756847e-01	-2.826092111e-02	1.795727126e-12
1.530000000e-01	2.321762214e-01	-2.826095908e-02	5.208115038e-13
1.535000000e-01	2.321764910e-01	-2.826097816e-02	2.190878061e-12
1.540000000e-01	2.321767616e-01	-2.826099730e-02	1.891101757e-13
1.550000000e-01	2.321773053e-01	-2.826103577e-02	2.218304648e-12
1.560000000e-01	2.321778525e-01	-2.826107449e-02	1.607874405e-12
1.565000000e-01	2.321781275e-01	-2.826109395e-02	4.305272192e-12
1.570000000e-01	2.321784033e-01	-2.826111346e-02	1.009101557e-12
1.580000000e-01	2.321789575e-01	-2.826115268e-02	2.337537676e-12
1.585000000e-01	2.321792360e-01	-2.826117238e-02	8.963292987e-14
1.590000000e-01	2.321795153e-01	-2.826119214e-02	8.588943628e-13
1.600000000e-01	2.321800766e-01	-2.826123186e-02	4.792215978e-12
1.605000000e-01	2.321803586e-01	-2.826125181e-02	9.285271566e-13
1.610000000e-01	2.321806414e-01	-2.826127182e-02	2.211003091e-12
1.620000000e-01	2.321812098e-01	-2.826131203e-02	2.867423434e-12
1.625000000e-01	2.321814952e-01	-2.826133223e-02	2.205704325e-12
1.630000000e-01	2.321817816e-01	-2.826135249e-02	3.092560126e-12
1.640000000e-01	2.321823570e-01	-2.826139320e-02	3.770833838e-12
1.645000000e-01	2.321826460e-01	-2.826141365e-02	4.398205084e-12
1.650000000e-01	2.321829359e-01	-2.826143416e-02	1.234771515e-12
1.655000000e-01	2.321832266e-01	-2.826145474e-02	3.966247766e-12
1.665000000e-01	2.321838108e-01	-2.826149607e-02	5.001398316e-12
1.670000000e-01	2.321841042e-01	-2.826151683e-02	4.657048157e-12
1.675000000e-01	2.321843985e-01	-2.826153765e-02	2.914695297e-12
1.680000000e-01	2.321846936e-01	-2.826155853e-02	3.393023243e-12
1.685000000e-01	2.321849897e-01	-2.826157948e-02	4.759717701e-12
1.690000000e-01	2.321852866e-01	-2.826160049e-02	2.854679468e-12
1.700000000e-01	2.321858830e-01	-2.826164269e-02	7.033643203e-12
1.710000000e-01	2.321864830e-01	-2.826168515e-02	6.168436851e-12
1.715000000e-01	2.321867843e-01	-2.826170647e-02	2.006129406e-12
1.725000000e-01	2.321873896e-01	-2.826174929e-02	5.511126899e-12
1.730000000e-01	2.321876935e-01	-2.826177080e-02	1.188171092e-11
1.735000000e-01	2.321879984e-01	-2.826179237e-02	4.499598523e-12
1.740000000e-01	2.321883041e-01	-2.826181400e-02	7.816884593e-12
1.745000000e-01	2.321886106e-01	-2.826183569e-02	2.003203008e-12
1.750000000e-01	2.321889181e-01	-2.826185745e-02	1.931272263e-12
1.755000000e-01	2.321892265e-01	-2.826187927e-02	6.347600180e-12
1.760000000e-01	2.321895357e-01	-2.826190115e-02	5.965210448e-12
1.765000000e-01	2.321898458e-01	-2.826192309e-02	1.013759442e-12
1.770000000e-01	2.321901568e-01	-2.826194510e-02	1.023023089e-11
1.775000000e-01	2.321904686e-01	-2.826196716e-02	4.728881522e-12
1.780000000e-01	2.321907814e-01	-2.826198929e-02	3.937345598e-12
1.790000000e-01	2.321914095e-01	-2.826203374e-02	1.420985704e-11
1.795000000e-01	2.321917248e-01	-2.826205606e-02	1.372291150e-12
1.805000000e-01	2.321923582e-01	-2.826210088e-02	1.758071310e-11
1.810000000e-01	2.321926762e-01	-2.826212338e-02	1.290117639e-11
1.815000000e-01	2.321929951e-01	-2.826214595e-02	5.706718143e-12
1.820000000e-01	2.321933149e-01	-2.826216858e-02	6.844535614e-12
