# Ep [eV]     Omega/c [1/micrones]    Im(epsi1)     Eq(det).Opt det SIN kz nano,R = 0.10 $\mu$m, $\mu_c$ = 0.3 eV, modo = 1, $\epsilon_\infty$ = 3.9, $\gamma_{DL}$ = 0.01 eV, solve_det_sinkz_vs_Ep.py
0.000000000e+00	2.992013201e-01	-3.306079187e-02	1.532772155e-13
1.000000000e-04	2.992014042e-01	-3.306125116e-02	9.398023149e-14
2.000000000e-04	2.992016566e-01	-3.306262904e-02	2.255501073e-13
3.000000000e-04	2.992020773e-01	-3.306492548e-02	1.362089369e-13
4.000000000e-04	2.992026663e-01	-3.306814047e-02	1.295766781e-13
5.000000000e-04	2.992034235e-01	-3.307227397e-02	1.390736815e-13
6.000000000e-04	2.992043490e-01	-3.307732595e-02	1.021716480e-13
7.000000000e-04	2.992054428e-01	-3.308329634e-02	8.425181090e-14
8.000000000e-04	2.992067049e-01	-3.309018510e-02	2.117444177e-13
9.000000000e-04	2.992081352e-01	-3.309799215e-02	3.022359877e-13
1.000000000e-03	2.992097338e-01	-3.310671742e-02	1.512956605e-13
1.100000000e-03	2.992115007e-01	-3.311636081e-02	1.703985113e-13
1.200000000e-03	2.992134358e-01	-3.312692223e-02	6.375271444e-14
1.300000000e-03	2.992155392e-01	-3.313840158e-02	1.425009203e-13
1.400000000e-03	2.992178109e-01	-3.315079874e-02	1.121887920e-13
1.500000000e-03	2.992202508e-01	-3.316411358e-02	9.948812533e-14
1.600000000e-03	2.992228589e-01	-3.317834598e-02	5.440092821e-14
1.700000000e-03	2.992256353e-01	-3.319349578e-02	2.156372094e-13
1.800000000e-03	2.992285800e-01	-3.320956285e-02	4.867217740e-13
1.900000000e-03	2.992316928e-01	-3.322654701e-02	1.935894077e-13
2.000000000e-03	2.992349739e-01	-3.324444811e-02	7.072042236e-14
2.100000000e-03	2.992384233e-01	-3.326326595e-02	2.462417605e-13
2.200000000e-03	2.992420408e-01	-3.328300035e-02	7.081668066e-13
2.300000000e-03	2.992458266e-01	-3.330365112e-02	5.549516172e-14
2.400000000e-03	2.992497806e-01	-3.332521805e-02	6.204547701e-14
2.500000000e-03	2.992539028e-01	-3.334770091e-02	1.751046626e-13
2.600000000e-03	2.992581931e-01	-3.337109950e-02	4.179219243e-14
2.700000000e-03	2.992626517e-01	-3.339541357e-02	2.131854866e-13
2.800000000e-03	2.992672785e-01	-3.342064287e-02	1.090191525e-13
2.900000000e-03	2.992720734e-01	-3.344678717e-02	1.070911254e-13
3.000000000e-03	2.992770365e-01	-3.347384619e-02	8.966891368e-14
3.100000000e-03	2.992821678e-01	-3.350181967e-02	1.334988598e-13
3.200000000e-03	2.992874673e-01	-3.353070732e-02	7.259500383e-14
3.300000000e-03	2.992929348e-01	-3.356050887e-02	1.073045343e-13
3.400000000e-03	2.992985706e-01	-3.359122400e-02	9.085532354e-14
3.500000000e-03	2.993043744e-01	-3.362285242e-02	1.168385123e-13
3.600000000e-03	2.993103464e-01	-3.365539380e-02	9.342628011e-13
3.700000000e-03	2.993164865e-01	-3.368884783e-02	1.794066819e-13
3.800000000e-03	2.993227947e-01	-3.372321417e-02	2.408275149e-13
3.900000000e-03	2.993292710e-01	-3.375849247e-02	2.049885439e-13
4.000000000e-03	2.993359153e-01	-3.379468238e-02	1.087884876e-13
4.100000000e-03	2.993427278e-01	-3.383178355e-02	1.188619102e-13
4.200000000e-03	2.993497083e-01	-3.386979560e-02	6.528111385e-14
4.300000000e-03	2.993568569e-01	-3.390871816e-02	6.078711857e-14
4.400000000e-03	2.993641735e-01	-3.394855082e-02	1.984975691e-13
4.500000000e-03	2.993716582e-01	-3.398929321e-02	5.456152848e-13
4.600000000e-03	2.993793108e-01	-3.403094490e-02	9.008801417e-14
4.700000000e-03	2.993871315e-01	-3.407350550e-02	1.759659715e-13
4.800000000e-03	2.993951202e-01	-3.411697456e-02	1.150328216e-13
4.900000000e-03	2.994032769e-01	-3.416135166e-02	1.890622125e-13
5.000000000e-03	2.994116015e-01	-3.420663635e-02	1.105204577e-13
5.100000000e-03	2.994200941e-01	-3.425282819e-02	8.572676068e-14
5.200000000e-03	2.994287547e-01	-3.429992671e-02	1.472584352e-13
5.300000000e-03	2.994375831e-01	-3.434793145e-02	9.908291109e-14
5.400000000e-03	2.994465796e-01	-3.439684193e-02	1.819109150e-13
5.500000000e-03	2.994557439e-01	-3.444665765e-02	7.513511731e-14
5.600000000e-03	2.994650761e-01	-3.449737813e-02	5.223986184e-13
5.700000000e-03	2.994745762e-01	-3.454900285e-02	1.033497782e-13
5.800000000e-03	2.994842442e-01	-3.460153132e-02	2.204834725e-13
5.900000000e-03	2.994940800e-01	-3.465496299e-02	1.824954066e-13
6.000000000e-03	2.995040836e-01	-3.470929734e-02	3.531670921e-13
6.100000000e-03	2.995142551e-01	-3.476453383e-02	1.404152568e-13
6.200000000e-03	2.995245944e-01	-3.482067192e-02	1.085904821e-13
6.300000000e-03	2.995351015e-01	-3.487771103e-02	6.217248938e-14
6.400000000e-03	2.995457764e-01	-3.493565062e-02	1.553880774e-13
6.500000000e-03	2.995566190e-01	-3.499449009e-02	4.792247818e-13
6.600000000e-03	2.995676293e-01	-3.505422886e-02	1.464417417e-13
6.700000000e-03	2.995788074e-01	-3.511486635e-02	2.457704800e-13
6.800000000e-03	2.995901532e-01	-3.517640195e-02	1.279100277e-13
6.900000000e-03	2.996016667e-01	-3.523883504e-02	1.166061910e-13
7.000000000e-03	2.996133479e-01	-3.530216502e-02	1.007558560e-12
7.100000000e-03	2.996251967e-01	-3.536639124e-02	1.799739669e-13
7.200000000e-03	2.996372132e-01	-3.543151308e-02	2.501630832e-13
7.300000000e-03	2.996493973e-01	-3.549752988e-02	9.394166408e-14
7.400000000e-03	2.996617490e-01	-3.556444099e-02	8.840415314e-14
7.500000000e-03	2.996742683e-01	-3.563224576e-02	5.665619408e-14
7.600000000e-03	2.996869552e-01	-3.570094350e-02	1.925217640e-13
7.700000000e-03	2.996998096e-01	-3.577053353e-02	2.816271477e-13
7.800000000e-03	2.997128315e-01	-3.584101517e-02	1.359059915e-13
7.900000000e-03	2.997260210e-01	-3.591238772e-02	1.028469287e-13
8.000000000e-03	2.997393779e-01	-3.598465047e-02	1.209637789e-13
8.100000000e-03	2.997529023e-01	-3.605780271e-02	3.276608042e-13
8.200000000e-03	2.997665942e-01	-3.613184370e-02	1.726337900e-13
8.300000000e-03	2.997804535e-01	-3.620677273e-02	1.642487822e-13
8.400000000e-03	2.997944802e-01	-3.628258905e-02	9.815702710e-14
8.500000000e-03	2.998086743e-01	-3.635929190e-02	8.535095391e-14
8.600000000e-03	2.998230358e-01	-3.643688053e-02	3.529758516e-13
8.700000000e-03	2.998375646e-01	-3.651535418e-02	1.100517218e-13
8.800000000e-03	2.998522607e-01	-3.659471206e-02	9.280322320e-14
8.900000000e-03	2.998671241e-01	-3.667495340e-02	1.144648015e-13
9.000000000e-03	2.998821548e-01	-3.675607740e-02	2.578977113e-13
9.100000000e-03	2.998973528e-01	-3.683808327e-02	2.406820126e-13
9.200000000e-03	2.999127180e-01	-3.692097018e-02	7.508687098e-14
9.300000000e-03	2.999282504e-01	-3.700473733e-02	1.654403675e-13
9.400000000e-03	2.999439500e-01	-3.708938389e-02	1.280596901e-13
9.500000000e-03	2.999598168e-01	-3.717490902e-02	1.091204093e-13
9.600000000e-03	2.999758507e-01	-3.726131188e-02	1.182578798e-13
9.700000000e-03	2.999920517e-01	-3.734859162e-02	1.503312490e-13
9.800000000e-03	3.000084199e-01	-3.743674738e-02	5.070403990e-13
9.900000000e-03	3.000249551e-01	-3.752577829e-02	2.027111587e-13
1.000000000e-02	3.000416573e-01	-3.761568348e-02	4.378784916e-14
1.010000000e-02	3.000585266e-01	-3.770646206e-02	9.784888761e-14
1.020000000e-02	3.000755628e-01	-3.779811314e-02	1.509962089e-13
1.030000000e-02	3.000927660e-01	-3.789063581e-02	4.826939206e-13
1.040000000e-02	3.001101362e-01	-3.798402918e-02	1.288396480e-13
1.050000000e-02	3.001276733e-01	-3.807829231e-02	2.355742573e-13
1.060000000e-02	3.001453772e-01	-3.817342429e-02	1.229527765e-13
1.070000000e-02	3.001632481e-01	-3.826942418e-02	3.718700266e-14
1.080000000e-02	3.001812858e-01	-3.836629103e-02	1.197199361e-13
1.090000000e-02	3.001994902e-01	-3.846402391e-02	2.417024626e-13
1.100000000e-02	3.002178615e-01	-3.856262184e-02	2.560081855e-13
1.110000000e-02	3.002363995e-01	-3.866208387e-02	1.813456110e-13
1.120000000e-02	3.002551043e-01	-3.876240902e-02	7.117941042e-14
1.130000000e-02	3.002739758e-01	-3.886359630e-02	1.549433872e-13
1.140000000e-02	3.002930139e-01	-3.896564472e-02	4.618527782e-14
1.150000000e-02	3.003122187e-01	-3.906855329e-02	5.507408552e-13
1.160000000e-02	3.003315901e-01	-3.917232100e-02	3.000232652e-14
1.170000000e-02	3.003511280e-01	-3.927694684e-02	8.320749388e-14
1.180000000e-02	3.003708326e-01	-3.938242977e-02	4.377649791e-13
1.190000000e-02	3.003907037e-01	-3.948876877e-02	6.136882674e-13
1.200000000e-02	3.004107412e-01	-3.959596281e-02	3.260957682e-14
1.210000000e-02	3.004309453e-01	-3.970401083e-02	9.370203402e-14
1.220000000e-02	3.004513157e-01	-3.981291178e-02	7.946219164e-14
1.230000000e-02	3.004718526e-01	-3.992266459e-02	5.026682332e-13
1.240000000e-02	3.004925559e-01	-4.003326821e-02	1.431870952e-13
1.250000000e-02	3.005134255e-01	-4.014472154e-02	3.362740735e-13
1.260000000e-02	3.005344615e-01	-4.025702350e-02	8.773909304e-14
1.270000000e-02	3.005556637e-01	-4.037017301e-02	1.077923076e-13
1.280000000e-02	3.005770322e-01	-4.048416895e-02	5.493843033e-14
1.290000000e-02	3.005985669e-01	-4.059901022e-02	1.575359136e-13
1.300000000e-02	3.006202678e-01	-4.071469569e-02	1.936845082e-13
1.310000000e-02	3.006421348e-01	-4.083122426e-02	8.425181090e-14
1.320000000e-02	3.006641680e-01	-4.094859478e-02	3.543509108e-13
1.330000000e-02	3.006863673e-01	-4.106680611e-02	1.359812473e-13
1.340000000e-02	3.007087326e-01	-4.118585710e-02	6.395038818e-14
1.350000000e-02	3.007312640e-01	-4.130574661e-02	1.423998556e-13
1.360000000e-02	3.007539613e-01	-4.142647346e-02	1.527357021e-13
1.370000000e-02	3.007768246e-01	-4.154803649e-02	1.147719330e-13
1.380000000e-02	3.007998539e-01	-4.167043451e-02	5.058228736e-13
1.390000000e-02	3.008230490e-01	-4.179366635e-02	2.579903194e-13
1.400000000e-02	3.008464100e-01	-4.191773081e-02	2.238263586e-13
1.410000000e-02	3.008699368e-01	-4.204262668e-02	1.494980336e-13
1.420000000e-02	3.008936294e-01	-4.216835277e-02	1.485730634e-13
1.430000000e-02	3.009174878e-01	-4.229490785e-02	2.079172374e-13
1.440000000e-02	3.009415119e-01	-4.242229070e-02	1.249590415e-13
1.450000000e-02	3.009657017e-01	-4.255050009e-02	1.466451227e-13
1.460000000e-02	3.009900571e-01	-4.267953479e-02	1.547732130e-13
1.470000000e-02	3.010145781e-01	-4.280939354e-02	1.797025521e-13
1.480000000e-02	3.010392647e-01	-4.294007510e-02	2.419516045e-13
1.490000000e-02	3.010641168e-01	-4.307157820e-02	1.502702346e-14
1.500000000e-02	3.010891345e-01	-4.320390158e-02	1.287232620e-13
1.510000000e-02	3.011143176e-01	-4.333704397e-02	2.098075961e-13
1.520000000e-02	3.011396661e-01	-4.347100408e-02	4.364066269e-14
1.530000000e-02	3.011651801e-01	-4.360578063e-02	2.052567885e-13
1.540000000e-02	3.011908593e-01	-4.374137231e-02	2.402522625e-13
1.550000000e-02	3.012167039e-01	-4.387777783e-02	1.139936865e-13
1.560000000e-02	3.012427138e-01	-4.401499587e-02	2.081571950e-13
1.570000000e-02	3.012688889e-01	-4.415302512e-02	1.447868744e-13
1.580000000e-02	3.012952292e-01	-4.429186425e-02	1.558394081e-13
1.590000000e-02	3.013217347e-01	-4.443151194e-02	4.440892099e-14
1.600000000e-02	3.013484053e-01	-4.457196684e-02	1.343008301e-13
1.610000000e-02	3.013752410e-01	-4.471322761e-02	2.355457919e-13
1.620000000e-02	3.014022417e-01	-4.485529289e-02	1.459873623e-13
1.630000000e-02	3.014294075e-01	-4.499816133e-02	2.286814737e-13
1.640000000e-02	3.014567382e-01	-4.514183156e-02	1.850744113e-13
1.650000000e-02	3.014842338e-01	-4.528630221e-02	6.746100997e-14
1.660000000e-02	3.015118943e-01	-4.543157190e-02	2.101552187e-13
1.670000000e-02	3.015397196e-01	-4.557763923e-02	2.852491158e-13
1.680000000e-02	3.015677098e-01	-4.572450283e-02	3.971123586e-14
1.690000000e-02	3.015958647e-01	-4.587216128e-02	1.739369090e-13
1.700000000e-02	3.016241843e-01	-4.602061318e-02	1.139372295e-13
1.710000000e-02	3.016526686e-01	-4.616985711e-02	1.252758659e-13
1.720000000e-02	3.016813176e-01	-4.631989166e-02	7.979328203e-13
1.730000000e-02	3.017101311e-01	-4.647071539e-02	1.837167863e-13
1.740000000e-02	3.017391092e-01	-4.662232688e-02	1.181279385e-13
1.750000000e-02	3.017682518e-01	-4.677472468e-02	5.426939128e-13
1.760000000e-02	3.017975588e-01	-4.692790735e-02	1.425415683e-14
1.770000000e-02	3.018270303e-01	-4.708187343e-02	9.960674478e-14
1.780000000e-02	3.018566662e-01	-4.723662146e-02	3.460250109e-13
1.790000000e-02	3.018864664e-01	-4.739214997e-02	1.141853451e-13
1.800000000e-02	3.019164309e-01	-4.754845750e-02	1.457737629e-13
1.810000000e-02	3.019465597e-01	-4.770554255e-02	2.924805385e-13
1.820000000e-02	3.019768526e-01	-4.786340365e-02	2.715866948e-13
1.830000000e-02	3.020073097e-01	-4.802203931e-02	8.536943702e-14
1.840000000e-02	3.020379310e-01	-4.818144802e-02	6.478833905e-14
1.850000000e-02	3.020687163e-01	-4.834162827e-02	8.181402132e-14
1.860000000e-02	3.020996656e-01	-4.850257856e-02	1.386413868e-13
1.870000000e-02	3.021307789e-01	-4.866429737e-02	1.949355625e-13
1.880000000e-02	3.021620561e-01	-4.882678317e-02	1.364705723e-13
1.890000000e-02	3.021934973e-01	-4.899003444e-02	1.099120794e-13
1.900000000e-02	3.022251023e-01	-4.915404963e-02	2.730426449e-13
1.910000000e-02	3.022568710e-01	-4.931882721e-02	1.096900348e-13
1.920000000e-02	3.022888036e-01	-4.948436562e-02	8.207394577e-14
1.930000000e-02	3.023208998e-01	-4.965066332e-02	1.184053767e-13
1.940000000e-02	3.023531597e-01	-4.981771872e-02	6.461498003e-14
1.950000000e-02	3.023855832e-01	-4.998553029e-02	2.042695719e-13
1.960000000e-02	3.024181703e-01	-5.015409642e-02	3.170995984e-13
1.970000000e-02	3.024509209e-01	-5.032341556e-02	1.998465590e-13
1.980000000e-02	3.024838349e-01	-5.049348611e-02	3.192702617e-13
1.990000000e-02	3.025169124e-01	-5.066430648e-02	2.700679522e-13
2.000000000e-02	3.025501533e-01	-5.083587508e-02	3.255173908e-13
2.010000000e-02	3.025835574e-01	-5.100819029e-02	1.486261497e-13
2.020000000e-02	3.026171249e-01	-5.118125052e-02	5.880829459e-14
2.030000000e-02	3.026508556e-01	-5.135505415e-02	1.449663910e-13
2.040000000e-02	3.026847494e-01	-5.152959955e-02	5.922392084e-14
2.050000000e-02	3.027188064e-01	-5.170488511e-02	6.957476360e-14
2.060000000e-02	3.027530265e-01	-5.188090918e-02	2.143368864e-13
2.070000000e-02	3.027874096e-01	-5.205767013e-02	1.850612240e-13
2.080000000e-02	3.028219557e-01	-5.223516632e-02	9.008801417e-14
2.090000000e-02	3.028566647e-01	-5.241339610e-02	7.556860060e-14
2.100000000e-02	3.028915366e-01	-5.259235781e-02	1.124344076e-13
2.110000000e-02	3.029265713e-01	-5.277204979e-02	1.842506009e-13
2.120000000e-02	3.029617688e-01	-5.295247038e-02	2.933968892e-13
2.130000000e-02	3.029971290e-01	-5.313361791e-02	2.660543793e-13
2.140000000e-02	3.030326519e-01	-5.331549069e-02	2.722546662e-13
2.150000000e-02	3.030683374e-01	-5.349808705e-02	1.138567137e-13
2.160000000e-02	3.031041855e-01	-5.368140530e-02	1.212225265e-13
2.170000000e-02	3.031401961e-01	-5.386544374e-02	1.616522849e-13
2.180000000e-02	3.031763692e-01	-5.405020067e-02	9.009020328e-14
2.190000000e-02	3.032127047e-01	-5.423567440e-02	1.355732789e-13
2.200000000e-02	3.032492025e-01	-5.442186322e-02	2.099204810e-13
2.210000000e-02	3.032858627e-01	-5.460876540e-02	3.079418461e-13
2.220000000e-02	3.033226852e-01	-5.479637922e-02	1.141648334e-13
2.230000000e-02	3.033596698e-01	-5.498470298e-02	1.097864066e-13
2.240000000e-02	3.033968166e-01	-5.517373492e-02	1.067997619e-13
2.250000000e-02	3.034341255e-01	-5.536347332e-02	2.806759745e-13
2.260000000e-02	3.034715964e-01	-5.555391644e-02	1.272052050e-13
2.270000000e-02	3.035092293e-01	-5.574506253e-02	2.112139124e-13
2.280000000e-02	3.035470242e-01	-5.593690984e-02	9.613685228e-14
2.290000000e-02	3.035849809e-01	-5.612945661e-02	2.546758695e-13
2.300000000e-02	3.036230995e-01	-5.632270109e-02	1.838529329e-13
2.310000000e-02	3.036613798e-01	-5.651664150e-02	1.015013469e-13
2.320000000e-02	3.036998219e-01	-5.671127608e-02	9.956540498e-14
2.330000000e-02	3.037384256e-01	-5.690660306e-02	1.382316391e-13
2.340000000e-02	3.037771909e-01	-5.710262064e-02	1.199040867e-13
2.350000000e-02	3.038161178e-01	-5.729932705e-02	2.097851528e-13
2.360000000e-02	3.038552062e-01	-5.749672050e-02	1.143518936e-13
2.370000000e-02	3.038944560e-01	-5.769479919e-02	1.598389596e-13
2.380000000e-02	3.039338672e-01	-5.789356132e-02	3.326675798e-13
2.390000000e-02	3.039734397e-01	-5.809300508e-02	3.069251661e-13
2.400000000e-02	3.040131735e-01	-5.829312867e-02	2.065091227e-13
2.410000000e-02	3.040530684e-01	-5.849393028e-02	1.895372800e-13
2.420000000e-02	3.040931246e-01	-5.869540808e-02	1.318847758e-13
2.430000000e-02	3.041333418e-01	-5.889756025e-02	8.379058453e-14
2.440000000e-02	3.041737201e-01	-5.910038497e-02	2.953591396e-13
2.450000000e-02	3.042142594e-01	-5.930388040e-02	7.143109714e-14
2.460000000e-02	3.042549596e-01	-5.950804471e-02	1.322015985e-13
2.470000000e-02	3.042958206e-01	-5.971287605e-02	1.703857797e-13
2.480000000e-02	3.043368425e-01	-5.991837258e-02	1.048335109e-13
2.490000000e-02	3.043780251e-01	-6.012453246e-02	8.961363744e-14
2.500000000e-02	3.044193684e-01	-6.033135381e-02	2.028823147e-13
2.510000000e-02	3.044608723e-01	-6.053883480e-02	7.137309437e-14
2.520000000e-02	3.045025368e-01	-6.074697355e-02	1.996530459e-13
2.530000000e-02	3.045443619e-01	-6.095576819e-02	1.915178160e-13
2.540000000e-02	3.045863473e-01	-6.116521686e-02	2.509104036e-14
2.550000000e-02	3.046284932e-01	-6.137531769e-02	1.033507323e-13
2.560000000e-02	3.046707994e-01	-6.158606878e-02	1.076162950e-13
2.570000000e-02	3.047132658e-01	-6.179746826e-02	5.250216394e-14
2.580000000e-02	3.047558925e-01	-6.200951423e-02	8.293893593e-14
2.590000000e-02	3.047986793e-01	-6.222220482e-02	1.048050535e-13
2.600000000e-02	3.048416262e-01	-6.243553811e-02	5.813499233e-14
2.610000000e-02	3.048847332e-01	-6.264951221e-02	1.612858707e-13
2.620000000e-02	3.049280001e-01	-6.286412522e-02	1.639635158e-13
2.630000000e-02	3.049714269e-01	-6.307937523e-02	1.031571058e-13
2.640000000e-02	3.050150136e-01	-6.329526032e-02	5.859285502e-14
2.650000000e-02	3.050587600e-01	-6.351177859e-02	1.483656790e-13
2.660000000e-02	3.051026662e-01	-6.372892810e-02	4.572870499e-13
2.670000000e-02	3.051467320e-01	-6.394670694e-02	4.125168072e-13
2.680000000e-02	3.051909574e-01	-6.416511319e-02	1.547598331e-13
2.690000000e-02	3.052353423e-01	-6.438414490e-02	1.494470714e-13
2.700000000e-02	3.052798868e-01	-6.460380014e-02	1.279046311e-13
2.710000000e-02	3.053245906e-01	-6.482407698e-02	2.627238109e-13
2.720000000e-02	3.053694538e-01	-6.504497347e-02	1.192418809e-13
2.730000000e-02	3.054144762e-01	-6.526648767e-02	1.041540688e-13
2.740000000e-02	3.054596579e-01	-6.548861763e-02	1.322163290e-13
2.750000000e-02	3.055049987e-01	-6.571136139e-02	2.051491483e-13
2.760000000e-02	3.055504986e-01	-6.593471701e-02	5.730127662e-14
2.770000000e-02	3.055961575e-01	-6.615868251e-02	7.800847599e-14
2.780000000e-02	3.056419754e-01	-6.638325594e-02	1.432931100e-13
2.790000000e-02	3.056879522e-01	-6.660843533e-02	1.417098689e-13
2.800000000e-02	3.057340878e-01	-6.683421871e-02	2.335859642e-13
2.810000000e-02	3.057803822e-01	-6.706060410e-02	1.754080705e-13
2.820000000e-02	3.058268353e-01	-6.728758953e-02	8.844652888e-14
2.830000000e-02	3.058734470e-01	-6.751517302e-02	6.750740292e-14
2.840000000e-02	3.059202172e-01	-6.774335259e-02	9.643205719e-14
2.850000000e-02	3.059671460e-01	-6.797212625e-02	1.389765103e-13
2.860000000e-02	3.060142332e-01	-6.820149200e-02	1.261137124e-13
2.870000000e-02	3.060614788e-01	-6.843144787e-02	5.787532037e-14
2.880000000e-02	3.061088827e-01	-6.866199184e-02	2.327596273e-13
2.890000000e-02	3.061564449e-01	-6.889312192e-02	7.701203478e-14
2.900000000e-02	3.062041652e-01	-6.912483612e-02	2.614181783e-13
2.910000000e-02	3.062520436e-01	-6.935713241e-02	1.785803312e-13
2.920000000e-02	3.063000800e-01	-6.959000881e-02	9.514941662e-14
2.930000000e-02	3.063482744e-01	-6.982346328e-02	9.008801417e-14
2.940000000e-02	3.063966268e-01	-7.005749383e-02	1.442490350e-13
2.950000000e-02	3.064451369e-01	-7.029209843e-02	1.551848759e-13
2.960000000e-02	3.064938048e-01	-7.052727507e-02	2.772071048e-13
2.970000000e-02	3.065426305e-01	-7.076302172e-02	9.646477358e-14
2.980000000e-02	3.065916137e-01	-7.099933635e-02	4.027945440e-13
2.990000000e-02	3.066407545e-01	-7.123621694e-02	2.191094263e-13
3.000000000e-02	3.066900528e-01	-7.147366145e-02	1.584303427e-13
3.010000000e-02	3.067395085e-01	-7.171166786e-02	1.111609937e-13
3.020000000e-02	3.067891216e-01	-7.195023413e-02	8.900665674e-14
3.030000000e-02	3.068388920e-01	-7.218935821e-02	7.612244796e-14
