# Ep [eV]     Omega/c [1/micrones]    Im(epsi1)     Eq(det).Opt det SIN kz nano,R = 0.40 $\mu$m, $\mu_c$ = 0.3 eV, modo = 3, $\epsilon_\infty$ = 3.9, $\gamma_{DL}$ = 0.01 eV, solve_det_sinkz_vs_Ep.py
0.000000000e+00	2.593991788e-01	-2.943725114e-02	1.614410876e-13
1.000000000e-04	2.593992753e-01	-2.943795052e-02	6.240678079e-14
2.000000000e-04	2.593995649e-01	-2.944004864e-02	6.263500479e-13
3.000000000e-04	2.594000475e-01	-2.944354548e-02	2.121803221e-13
4.000000000e-04	2.594007231e-01	-2.944844098e-02	1.780771429e-13
5.000000000e-04	2.594015917e-01	-2.945473510e-02	9.203795747e-14
6.000000000e-04	2.594026534e-01	-2.946242773e-02	3.805782345e-14
7.000000000e-04	2.594039081e-01	-2.947151879e-02	4.530199718e-14
8.000000000e-04	2.594053558e-01	-2.948200815e-02	2.063103880e-13
9.000000000e-04	2.594069966e-01	-2.949389568e-02	5.410775078e-13
1.000000000e-03	2.594088303e-01	-2.950718121e-02	1.423721541e-13
1.100000000e-03	2.594108571e-01	-2.952186458e-02	1.266207291e-13
1.200000000e-03	2.594130769e-01	-2.953794558e-02	7.052494599e-14
1.300000000e-03	2.594154897e-01	-2.955542401e-02	1.540784777e-13
1.400000000e-03	2.594180954e-01	-2.957429964e-02	2.106031918e-14
1.500000000e-03	2.594208942e-01	-2.959457222e-02	1.101397198e-13
1.600000000e-03	2.594238860e-01	-2.961624149e-02	1.642679924e-13
1.700000000e-03	2.594270708e-01	-2.963930715e-02	7.075212581e-13
1.800000000e-03	2.594304485e-01	-2.966376890e-02	6.306066780e-14
1.900000000e-03	2.594340192e-01	-2.968962643e-02	1.345042411e-13
2.000000000e-03	2.594377829e-01	-2.971687939e-02	8.421112997e-14
2.100000000e-03	2.594417396e-01	-2.974552742e-02	1.822827983e-13
2.200000000e-03	2.594458892e-01	-2.977557015e-02	1.157925891e-13
2.300000000e-03	2.594502317e-01	-2.980700718e-02	1.228009050e-13
2.400000000e-03	2.594547672e-01	-2.983983810e-02	2.363159716e-13
2.500000000e-03	2.594594956e-01	-2.987406248e-02	2.592873524e-13
2.600000000e-03	2.594644169e-01	-2.990967986e-02	1.553260339e-13
2.700000000e-03	2.594695311e-01	-2.994668978e-02	1.982321165e-13
2.800000000e-03	2.594748382e-01	-2.998509175e-02	1.914848613e-13
2.900000000e-03	2.594803382e-01	-3.002488528e-02	2.090336213e-13
3.000000000e-03	2.594860311e-01	-3.006606982e-02	6.434851118e-14
3.100000000e-03	2.594919169e-01	-3.010864485e-02	1.729030414e-13
3.200000000e-03	2.594979955e-01	-3.015260981e-02	4.635789384e-14
3.300000000e-03	2.595042670e-01	-3.019796411e-02	2.442490654e-14
3.400000000e-03	2.595107312e-01	-3.024470716e-02	1.914354184e-13
3.500000000e-03	2.595173884e-01	-3.029283835e-02	1.280827884e-13
3.600000000e-03	2.595242383e-01	-3.034235704e-02	1.431925424e-12
3.700000000e-03	2.595312810e-01	-3.039326259e-02	1.371854752e-13
3.800000000e-03	2.595385165e-01	-3.044555432e-02	3.725334789e-13
3.900000000e-03	2.595459447e-01	-3.049923156e-02	4.138030430e-13
4.000000000e-03	2.595535657e-01	-3.055429359e-02	1.285897097e-13
4.100000000e-03	2.595613795e-01	-3.061073970e-02	2.363622840e-13
4.200000000e-03	2.595693860e-01	-3.066856914e-02	1.178989944e-13
4.300000000e-03	2.595775852e-01	-3.072778115e-02	1.883823078e-13
4.400000000e-03	2.595859770e-01	-3.078837497e-02	3.021890025e-13
4.500000000e-03	2.595945616e-01	-3.085034978e-02	1.846813204e-13
4.600000000e-03	2.596033388e-01	-3.091370479e-02	2.591792288e-13
4.700000000e-03	2.596123086e-01	-3.097843917e-02	7.652779469e-14
4.800000000e-03	2.596214711e-01	-3.104455205e-02	2.660536381e-13
4.900000000e-03	2.596308262e-01	-3.111204259e-02	1.035870805e-13
5.000000000e-03	2.596403739e-01	-3.118090988e-02	2.396374672e-13
5.100000000e-03	2.596501142e-01	-3.125115304e-02	3.133322395e-13
5.200000000e-03	2.596600470e-01	-3.132277115e-02	1.425989746e-13
5.300000000e-03	2.596701723e-01	-3.139576326e-02	5.031797272e-14
5.400000000e-03	2.596804902e-01	-3.147012842e-02	1.257174512e-13
5.500000000e-03	2.596910005e-01	-3.154586565e-02	1.135557906e-13
5.600000000e-03	2.597017034e-01	-3.162297398e-02	4.610033170e-14
5.700000000e-03	2.597125987e-01	-3.170145238e-02	8.529403545e-14
5.800000000e-03	2.597236864e-01	-3.178129983e-02	4.405445542e-14
5.900000000e-03	2.597349665e-01	-3.186251530e-02	8.926193118e-14
6.000000000e-03	2.597464391e-01	-3.194509772e-02	1.587257091e-13
6.100000000e-03	2.597581040e-01	-3.202904600e-02	2.155882743e-13
6.200000000e-03	2.597699612e-01	-3.211435906e-02	1.947927348e-14
6.300000000e-03	2.597820108e-01	-3.220103578e-02	1.697472552e-13
6.400000000e-03	2.597942527e-01	-3.228907502e-02	2.639941339e-13
6.500000000e-03	2.598066869e-01	-3.237847565e-02	1.813456110e-13
6.600000000e-03	2.598193133e-01	-3.246923649e-02	1.490347774e-13
6.700000000e-03	2.598321320e-01	-3.256135636e-02	1.899364151e-13
6.800000000e-03	2.598451428e-01	-3.265483407e-02	9.361017119e-14
6.900000000e-03	2.598583459e-01	-3.274966838e-02	8.185258073e-14
7.000000000e-03	2.598717411e-01	-3.284585807e-02	1.279354653e-13
7.100000000e-03	2.598853284e-01	-3.294340188e-02	7.254608765e-14
7.200000000e-03	2.598991079e-01	-3.304229855e-02	1.421586718e-13
7.300000000e-03	2.599130794e-01	-3.314254678e-02	8.528363000e-14
7.400000000e-03	2.599272430e-01	-3.324414528e-02	1.301675776e-13
7.500000000e-03	2.599415986e-01	-3.334709271e-02	1.065962123e-13
7.600000000e-03	2.599561462e-01	-3.345138774e-02	1.747479755e-13
7.700000000e-03	2.599708858e-01	-3.355702903e-02	8.604335881e-14
7.800000000e-03	2.599858174e-01	-3.366401518e-02	1.346449264e-13
7.900000000e-03	2.600009408e-01	-3.377234482e-02	6.074650591e-13
8.000000000e-03	2.600162562e-01	-3.388201653e-02	2.154084456e-13
8.100000000e-03	2.600317634e-01	-3.399302890e-02	2.009423933e-13
8.200000000e-03	2.600474624e-01	-3.410538048e-02	4.895919898e-14
8.300000000e-03	2.600633532e-01	-3.421906981e-02	4.037611131e-13
8.400000000e-03	2.600794358e-01	-3.433409543e-02	3.703022372e-14
8.500000000e-03	2.600957102e-01	-3.445045583e-02	3.090299357e-13
8.600000000e-03	2.601121762e-01	-3.456814952e-02	1.878660078e-13
8.700000000e-03	2.601288339e-01	-3.468717496e-02	7.115446995e-14
8.800000000e-03	2.601456833e-01	-3.480753062e-02	5.967053711e-14
8.900000000e-03	2.601627243e-01	-3.492921494e-02	7.303073723e-14
9.000000000e-03	2.601799569e-01	-3.505222634e-02	3.466809658e-13
9.100000000e-03	2.601973810e-01	-3.517656324e-02	2.072466140e-13
9.200000000e-03	2.602149966e-01	-3.530222403e-02	9.790555737e-14
9.300000000e-03	2.602328037e-01	-3.542920707e-02	6.386941594e-13
9.400000000e-03	2.602508023e-01	-3.555751074e-02	2.027111587e-13
9.500000000e-03	2.602689923e-01	-3.568713338e-02	2.147327467e-13
9.600000000e-03	2.602873736e-01	-3.581807331e-02	1.507713934e-13
9.700000000e-03	2.603059463e-01	-3.595032884e-02	1.718946517e-13
9.800000000e-03	2.603247103e-01	-3.608389827e-02	5.687853616e-14
9.900000000e-03	2.603436656e-01	-3.621877988e-02	3.258816824e-13
1.000000000e-02	2.603628122e-01	-3.635497192e-02	1.381797332e-13
1.010000000e-02	2.603821499e-01	-3.649247266e-02	1.963582512e-13
1.020000000e-02	2.604016788e-01	-3.663128030e-02	1.491987743e-13
1.030000000e-02	2.604213988e-01	-3.677139308e-02	5.816212493e-14
1.040000000e-02	2.604413099e-01	-3.691280919e-02	7.557871271e-14
1.050000000e-02	2.604614121e-01	-3.705552680e-02	1.174246527e-13
1.060000000e-02	2.604817053e-01	-3.719954409e-02	1.861259680e-13
1.070000000e-02	2.605021895e-01	-3.734485921e-02	1.874335316e-13
1.080000000e-02	2.605228646e-01	-3.749147028e-02	9.008801417e-14
1.090000000e-02	2.605437306e-01	-3.763937544e-02	2.344858313e-14
1.100000000e-02	2.605647875e-01	-3.778857278e-02	8.103327646e-13
1.110000000e-02	2.605860352e-01	-3.793906039e-02	1.396702926e-13
1.120000000e-02	2.606074737e-01	-3.809083634e-02	8.714366763e-14
1.130000000e-02	2.606291029e-01	-3.824389869e-02	1.198137956e-13
1.140000000e-02	2.606509228e-01	-3.839824549e-02	2.039452802e-13
1.150000000e-02	2.606729334e-01	-3.855387474e-02	9.785317047e-14
1.160000000e-02	2.606951346e-01	-3.871078448e-02	3.166405894e-13
1.170000000e-02	2.607175264e-01	-3.886897268e-02	1.147145697e-13
1.180000000e-02	2.607401087e-01	-3.902843733e-02	1.869742150e-13
1.190000000e-02	2.607628815e-01	-3.918917640e-02	1.811330141e-13
1.200000000e-02	2.607858448e-01	-3.935118783e-02	2.983568995e-13
1.210000000e-02	2.608089984e-01	-3.951446956e-02	1.642337726e-13
1.220000000e-02	2.608323424e-01	-3.967901950e-02	2.442490654e-14
1.230000000e-02	2.608558768e-01	-3.984483556e-02	1.074108502e-13
1.240000000e-02	2.608796014e-01	-4.001191564e-02	6.137796475e-14
1.250000000e-02	2.609035162e-01	-4.018025759e-02	3.152320265e-13
1.260000000e-02	2.609276213e-01	-4.034985928e-02	5.004040096e-14
1.270000000e-02	2.609519164e-01	-4.052071856e-02	2.156577862e-13
1.280000000e-02	2.609764017e-01	-4.069283326e-02	5.747868105e-14
1.290000000e-02	2.610010770e-01	-4.086620118e-02	4.929390229e-14
1.300000000e-02	2.610259423e-01	-4.104082014e-02	9.521338941e-14
1.310000000e-02	2.610509976e-01	-4.121668791e-02	5.495331232e-13
1.320000000e-02	2.610762427e-01	-4.139380226e-02	1.508570458e-13
1.330000000e-02	2.611016778e-01	-4.157216096e-02	2.646369297e-13
1.340000000e-02	2.611273026e-01	-4.175176174e-02	1.940422127e-13
1.350000000e-02	2.611531172e-01	-4.193260234e-02	2.274361169e-13
1.360000000e-02	2.611791215e-01	-4.211468046e-02	8.550793299e-14
1.370000000e-02	2.612053155e-01	-4.229799380e-02	6.335551674e-14
1.380000000e-02	2.612316991e-01	-4.248254006e-02	2.948552540e-13
1.390000000e-02	2.612582723e-01	-4.266831689e-02	1.422645866e-13
1.400000000e-02	2.612850350e-01	-4.285532196e-02	1.460614745e-13
1.410000000e-02	2.613119872e-01	-4.304355291e-02	4.163143899e-14
1.420000000e-02	2.613391288e-01	-4.323300737e-02	1.629391392e-13
1.430000000e-02	2.613664597e-01	-4.342368295e-02	5.347542222e-14
1.440000000e-02	2.613939800e-01	-4.361557725e-02	3.110800537e-13
1.450000000e-02	2.614216895e-01	-4.380868786e-02	1.375157214e-13
1.460000000e-02	2.614495883e-01	-4.400301236e-02	7.837922941e-14
1.470000000e-02	2.614776762e-01	-4.419854830e-02	4.098693208e-14
1.480000000e-02	2.615059532e-01	-4.439529324e-02	8.857325614e-14
1.490000000e-02	2.615344193e-01	-4.459324469e-02	3.416325644e-13
1.500000000e-02	2.615630743e-01	-4.479240018e-02	2.024901927e-13
1.510000000e-02	2.615919184e-01	-4.499275722e-02	1.927501931e-13
1.520000000e-02	2.616209513e-01	-4.519431330e-02	1.147747253e-13
1.530000000e-02	2.616501730e-01	-4.539706590e-02	1.745586965e-13
1.540000000e-02	2.616795836e-01	-4.560101248e-02	1.654685275e-13
1.550000000e-02	2.617091829e-01	-4.580615050e-02	3.208022041e-13
1.560000000e-02	2.617389708e-01	-4.601247739e-02	2.022908001e-13
1.570000000e-02	2.617689474e-01	-4.621999059e-02	1.738609257e-13
1.580000000e-02	2.617991125e-01	-4.642868750e-02	7.761403924e-14
1.590000000e-02	2.618294662e-01	-4.663856552e-02	7.611564690e-14
1.600000000e-02	2.618600083e-01	-4.684962205e-02	6.532830015e-14
1.610000000e-02	2.618907388e-01	-4.706185446e-02	7.628290615e-14
1.620000000e-02	2.619216576e-01	-4.727526010e-02	9.592558226e-14
1.630000000e-02	2.619527647e-01	-4.748983634e-02	1.664149878e-14
1.640000000e-02	2.619840601e-01	-4.770558050e-02	3.718700266e-14
1.650000000e-02	2.620155436e-01	-4.792248991e-02	1.124247599e-13
1.660000000e-02	2.620472152e-01	-4.814056189e-02	8.162668939e-14
1.670000000e-02	2.620790748e-01	-4.835979372e-02	1.713447878e-13
1.680000000e-02	2.621111225e-01	-4.858018271e-02	1.329201737e-13
1.690000000e-02	2.621433581e-01	-4.880172611e-02	1.212127648e-13
1.700000000e-02	2.621757815e-01	-4.902442120e-02	1.542083396e-13
1.710000000e-02	2.622083927e-01	-4.924826523e-02	3.727261268e-13
1.720000000e-02	2.622411917e-01	-4.947325544e-02	1.531381935e-13
1.730000000e-02	2.622741784e-01	-4.969938904e-02	1.237376309e-13
1.740000000e-02	2.623073528e-01	-4.992666326e-02	2.042424164e-13
1.750000000e-02	2.623407146e-01	-5.015507529e-02	7.150979510e-13
1.760000000e-02	2.623742640e-01	-5.038462233e-02	1.494940760e-13
1.770000000e-02	2.624080008e-01	-5.061530156e-02	1.354959772e-13
1.780000000e-02	2.624419250e-01	-5.084711015e-02	3.733057852e-14
1.790000000e-02	2.624760365e-01	-5.108004524e-02	3.205453636e-13
1.800000000e-02	2.625103353e-01	-5.131410399e-02	3.648092174e-14
1.810000000e-02	2.625448213e-01	-5.154928352e-02	1.481756405e-13
1.820000000e-02	2.625794944e-01	-5.178558096e-02	1.954780875e-13
1.830000000e-02	2.626143545e-01	-5.202299342e-02	5.068505541e-14
1.840000000e-02	2.626494016e-01	-5.226151799e-02	1.293153923e-13
1.850000000e-02	2.626846357e-01	-5.250115177e-02	3.552713679e-14
1.860000000e-02	2.627200566e-01	-5.274189183e-02	8.170788912e-14
1.870000000e-02	2.627556644e-01	-5.298373523e-02	4.884981308e-14
1.880000000e-02	2.627914589e-01	-5.322667903e-02	7.180834639e-14
1.890000000e-02	2.628274400e-01	-5.347072027e-02	2.167960561e-13
1.900000000e-02	2.628636078e-01	-5.371585599e-02	1.645350522e-13
1.910000000e-02	2.628999620e-01	-5.396208321e-02	5.460852898e-14
1.920000000e-02	2.629365028e-01	-5.420939893e-02	1.181379551e-13
1.930000000e-02	2.629732300e-01	-5.445780016e-02	1.432931100e-13
1.940000000e-02	2.630101435e-01	-5.470728389e-02	2.889387363e-13
1.950000000e-02	2.630472432e-01	-5.495784710e-02	2.474688865e-13
1.960000000e-02	2.630845292e-01	-5.520948675e-02	2.443637952e-13
1.970000000e-02	2.631220013e-01	-5.546219980e-02	8.825204653e-14
1.980000000e-02	2.631596594e-01	-5.571598321e-02	3.795656871e-13
1.990000000e-02	2.631975036e-01	-5.597083391e-02	2.275648483e-13
2.000000000e-02	2.632355336e-01	-5.622674883e-02	1.620384102e-13
2.010000000e-02	2.632737495e-01	-5.648372489e-02	1.478998761e-13
2.020000000e-02	2.633121512e-01	-5.674175899e-02	2.876656200e-14
2.030000000e-02	2.633507387e-01	-5.700084803e-02	1.978565703e-14
2.040000000e-02	2.633895117e-01	-5.726098891e-02	3.843951265e-13
2.050000000e-02	2.634284703e-01	-5.752217849e-02	4.735767417e-13
2.060000000e-02	2.634676145e-01	-5.778441365e-02	6.091092699e-13
2.070000000e-02	2.635069440e-01	-5.804769125e-02	1.954396199e-13
2.080000000e-02	2.635464589e-01	-5.831200813e-02	2.811320589e-13
2.090000000e-02	2.635861591e-01	-5.857736114e-02	1.147644151e-13
2.100000000e-02	2.636260445e-01	-5.884374711e-02	1.345590306e-13
2.110000000e-02	2.636661150e-01	-5.911116285e-02	1.427359992e-13
2.120000000e-02	2.637063706e-01	-5.937960519e-02	7.172040739e-14
2.130000000e-02	2.637468112e-01	-5.964907091e-02	3.593234032e-13
2.140000000e-02	2.637874367e-01	-5.991955683e-02	4.133986954e-13
2.150000000e-02	2.638282471e-01	-6.019105971e-02	1.540240696e-13
2.160000000e-02	2.638692422e-01	-6.046357634e-02	5.507109091e-14
2.170000000e-02	2.639104220e-01	-6.073710348e-02	9.137884154e-14
2.180000000e-02	2.639517865e-01	-6.101163790e-02	7.268425883e-14
2.190000000e-02	2.639933354e-01	-6.128717633e-02	3.703022372e-14
2.200000000e-02	2.640350689e-01	-6.156371553e-02	6.880411369e-13
2.210000000e-02	2.640769867e-01	-6.184125222e-02	1.619708476e-14
2.220000000e-02	2.641190888e-01	-6.211978312e-02	2.053215137e-13
2.230000000e-02	2.641613752e-01	-6.239930496e-02	2.405344751e-13
2.240000000e-02	2.642038458e-01	-6.267981443e-02	9.186637676e-14
2.250000000e-02	2.642465004e-01	-6.296130824e-02	1.098616032e-13
2.260000000e-02	2.642893390e-01	-6.324378307e-02	2.201827264e-13
2.270000000e-02	2.643323616e-01	-6.352723562e-02	6.259137697e-14
2.280000000e-02	2.643755680e-01	-6.381166254e-02	2.318852750e-13
2.290000000e-02	2.644189582e-01	-6.409706051e-02	9.105142561e-13
2.300000000e-02	2.644625321e-01	-6.438342619e-02	1.184478417e-13
2.310000000e-02	2.645062896e-01	-6.467075622e-02	5.366363795e-14
2.320000000e-02	2.645502306e-01	-6.495904725e-02	5.982237709e-14
2.330000000e-02	2.645943551e-01	-6.524829591e-02	2.274846707e-14
2.340000000e-02	2.646386629e-01	-6.553849882e-02	3.616457052e-13
2.350000000e-02	2.646831541e-01	-6.582965262e-02	1.902988332e-13
2.360000000e-02	2.647278285e-01	-6.612175391e-02	1.410058420e-13
2.370000000e-02	2.647726860e-01	-6.641479929e-02	9.633998279e-14
2.380000000e-02	2.648177265e-01	-6.670878536e-02	1.983355560e-13
2.390000000e-02	2.648629500e-01	-6.700370871e-02	3.031178064e-13
2.400000000e-02	2.649083565e-01	-6.729956593e-02	5.015702075e-14
2.410000000e-02	2.649539457e-01	-6.759635358e-02	1.093036981e-13
2.420000000e-02	2.649997176e-01	-6.789406825e-02	1.079136780e-13
2.430000000e-02	2.650456722e-01	-6.819270648e-02	9.952454341e-14
2.440000000e-02	2.650918094e-01	-6.849226484e-02	7.635390783e-13
2.450000000e-02	2.651381290e-01	-6.879273987e-02	1.061626349e-13
2.460000000e-02	2.651846310e-01	-6.909412811e-02	5.124166507e-13
2.470000000e-02	2.652313154e-01	-6.939642610e-02	1.395134719e-13
2.480000000e-02	2.652781819e-01	-6.969963037e-02	1.698548344e-13
2.490000000e-02	2.653252306e-01	-7.000373743e-02	2.141343648e-13
2.500000000e-02	2.653724614e-01	-7.030874381e-02	8.077816711e-14
2.510000000e-02	2.654198741e-01	-7.061464601e-02	5.701662732e-14
2.520000000e-02	2.654674688e-01	-7.092144053e-02	5.699976265e-14
2.530000000e-02	2.655152452e-01	-7.122912388e-02	4.107825191e-14
2.540000000e-02	2.655632033e-01	-7.153769253e-02	1.315540736e-13
2.550000000e-02	2.656113431e-01	-7.184714297e-02	1.975384732e-13
2.560000000e-02	2.656596644e-01	-7.215747169e-02	1.991225154e-13
2.570000000e-02	2.657081672e-01	-7.246867516e-02	1.431931209e-13
2.580000000e-02	2.657568513e-01	-7.278074983e-02	1.158232422e-13
2.590000000e-02	2.658057167e-01	-7.309369217e-02	6.275972036e-14
2.600000000e-02	2.658547633e-01	-7.340749865e-02	1.999912010e-13
2.610000000e-02	2.659039911e-01	-7.372216569e-02	5.107643739e-13
2.620000000e-02	2.659533998e-01	-7.403768976e-02	1.981658222e-13
2.630000000e-02	2.660029895e-01	-7.435406729e-02	1.422169260e-13
2.640000000e-02	2.660527600e-01	-7.467129470e-02	9.791839795e-14
2.650000000e-02	2.661027113e-01	-7.498936844e-02	7.273443782e-14
2.660000000e-02	2.661528432e-01	-7.530828492e-02	2.105143292e-13
2.670000000e-02	2.662031557e-01	-7.562804055e-02	1.477429473e-13
2.680000000e-02	2.662536488e-01	-7.594863176e-02	1.587257091e-13
2.690000000e-02	2.663043222e-01	-7.627005495e-02	1.849336987e-13
2.700000000e-02	2.663551759e-01	-7.659230651e-02	6.199219737e-13
2.710000000e-02	2.664062098e-01	-7.691538286e-02	2.496160624e-13
2.720000000e-02	2.664574238e-01	-7.723928038e-02	7.987805842e-14
2.730000000e-02	2.665088179e-01	-7.756399546e-02	1.028162432e-13
2.740000000e-02	2.665603919e-01	-7.788952448e-02	7.437698839e-14
2.750000000e-02	2.666121458e-01	-7.821586382e-02	1.592392695e-13
2.760000000e-02	2.666640795e-01	-7.854300986e-02	4.775229139e-13
2.770000000e-02	2.667161928e-01	-7.887095897e-02	7.755970691e-14
2.780000000e-02	2.667684856e-01	-7.919970752e-02	2.361953497e-13
2.790000000e-02	2.668209580e-01	-7.952925185e-02	1.427316814e-13
2.800000000e-02	2.668736098e-01	-7.985958834e-02	5.015594437e-13
2.810000000e-02	2.669264408e-01	-8.019071333e-02	2.860873048e-13
2.820000000e-02	2.669794511e-01	-8.052262318e-02	7.016609516e-14
2.830000000e-02	2.670326404e-01	-8.085531423e-02	2.703132025e-13
2.840000000e-02	2.670860088e-01	-8.118878283e-02	6.259137697e-14
2.850000000e-02	2.671395561e-01	-8.152302530e-02	3.297932772e-13
2.860000000e-02	2.671932822e-01	-8.185803798e-02	1.288120924e-13
2.870000000e-02	2.672471871e-01	-8.219381721e-02	5.833353082e-14
2.880000000e-02	2.673012706e-01	-8.253035931e-02	2.025106446e-13
2.890000000e-02	2.673555326e-01	-8.286766061e-02	1.032755691e-13
2.900000000e-02	2.674099731e-01	-8.320571742e-02	2.654126944e-13
2.910000000e-02	2.674645920e-01	-8.354452606e-02	2.016478003e-13
2.920000000e-02	2.675193891e-01	-8.388408284e-02	1.531600849e-13
2.930000000e-02	2.675743643e-01	-8.422438408e-02	1.193732943e-13
2.940000000e-02	2.676295176e-01	-8.456542608e-02	2.505800667e-13
2.950000000e-02	2.676848489e-01	-8.490720515e-02	4.561003739e-14
2.960000000e-02	2.677403580e-01	-8.524971758e-02	1.862626036e-13
2.970000000e-02	2.677960450e-01	-8.559295968e-02	1.330047184e-13
2.980000000e-02	2.678519095e-01	-8.593692773e-02	1.859716027e-13
2.990000000e-02	2.679079517e-01	-8.628161804e-02	2.551163996e-13
3.000000000e-02	2.679641714e-01	-8.662702689e-02	3.257326999e-14
3.010000000e-02	2.680205684e-01	-8.697315057e-02	1.496580637e-13
3.020000000e-02	2.680771427e-01	-8.731998537e-02	1.152794345e-13
3.030000000e-02	2.681338942e-01	-8.766752756e-02	2.424987344e-13
