# Ep [eV]     Omega/c [1/micrones]    Im(epsi1)     Eq(det).Opt det SIN kz nano,R = 0.5 $\mu$m, $\mu_c$ = 0.3 eV, modo = 3, $\epsilon_\infty$ = 3.9, $\gamma_{DL}$ = 0.01 eV, solve_det_sinkz_vs_Ep.py
0.000000000e+00	2.321350251e-01	-2.825804208e-02	2.220446049e-16
1.000000000e-04	2.321351321e-01	-2.825901097e-02	2.106031918e-14
2.000000000e-04	2.321354533e-01	-2.826191761e-02	2.984414961e-14
3.000000000e-04	2.321359885e-01	-2.826676196e-02	1.132427485e-14
4.000000000e-04	2.321367378e-01	-2.827354395e-02	3.774758284e-15
5.000000000e-04	2.321377011e-01	-2.828226345e-02	2.344858313e-14
6.000000000e-04	2.321388786e-01	-2.829292034e-02	4.265337575e-14
7.000000000e-04	2.321402701e-01	-2.830551443e-02	6.661338148e-16
8.000000000e-04	2.321418757e-01	-2.832004553e-02	2.654988743e-14
9.000000000e-04	2.321436953e-01	-2.833651339e-02	2.220446049e-16
1.000000000e-03	2.321457291e-01	-2.835491776e-02	1.432144669e-14
1.100000000e-03	2.321479768e-01	-2.837525833e-02	1.454688756e-14
1.200000000e-03	2.321504387e-01	-2.839753477e-02	3.051316246e-14
1.300000000e-03	2.321531146e-01	-2.842174672e-02	6.661338148e-16
1.400000000e-03	2.321560045e-01	-2.844789380e-02	8.881784197e-16
1.500000000e-03	2.321591085e-01	-2.847597557e-02	2.617584765e-14
1.600000000e-03	2.321624264e-01	-2.850599159e-02	4.440892099e-16
1.700000000e-03	2.321659585e-01	-2.853794136e-02	5.767691425e-14
1.800000000e-03	2.321697045e-01	-2.857182437e-02	0.000000000e+00
1.900000000e-03	2.321736645e-01	-2.860764007e-02	9.325873407e-15
2.000000000e-03	2.321778385e-01	-2.864538788e-02	3.929687679e-14
2.100000000e-03	2.321822266e-01	-2.868506720e-02	5.893015289e-14
2.200000000e-03	2.321868285e-01	-2.872667737e-02	7.105427358e-15
2.300000000e-03	2.321916445e-01	-2.877021772e-02	1.652704113e-14
2.400000000e-03	2.321966744e-01	-2.881568755e-02	6.661338148e-16
2.500000000e-03	2.322019183e-01	-2.886308613e-02	1.450105979e-14
2.600000000e-03	2.322073760e-01	-2.891241269e-02	2.220446049e-15
2.700000000e-03	2.322130477e-01	-2.896366642e-02	3.076179383e-14
2.800000000e-03	2.322189334e-01	-2.901684651e-02	1.859350133e-14
2.900000000e-03	2.322250329e-01	-2.907195209e-02	3.704420128e-14
3.000000000e-03	2.322313462e-01	-2.912898226e-02	2.900211958e-14
3.100000000e-03	2.322378735e-01	-2.918793612e-02	1.429560346e-14
3.200000000e-03	2.322446146e-01	-2.924881270e-02	1.438328100e-14
3.300000000e-03	2.322515695e-01	-2.931161102e-02	2.895873696e-14
3.400000000e-03	2.322587383e-01	-2.937633007e-02	1.332267630e-15
3.500000000e-03	2.322661208e-01	-2.944296880e-02	7.105427358e-15
3.600000000e-03	2.322737172e-01	-2.951152613e-02	2.880167609e-14
3.700000000e-03	2.322815273e-01	-2.958200096e-02	2.867128122e-14
3.800000000e-03	2.322895511e-01	-2.965439215e-02	1.675811691e-14
3.900000000e-03	2.322977887e-01	-2.972869854e-02	1.482386812e-14
4.000000000e-03	2.323062401e-01	-2.980491892e-02	3.974598428e-14
4.100000000e-03	2.323149051e-01	-2.988305206e-02	2.859120692e-14
4.200000000e-03	2.323237837e-01	-2.996309670e-02	3.774758284e-15
4.300000000e-03	2.323328761e-01	-3.004505155e-02	1.724530548e-14
4.400000000e-03	2.323421820e-01	-3.012891530e-02	4.440892099e-16
4.500000000e-03	2.323517016e-01	-3.021468658e-02	1.435067943e-14
4.600000000e-03	2.323614348e-01	-3.030236402e-02	4.212063836e-14
4.700000000e-03	2.323713816e-01	-3.039194620e-02	4.440892099e-16
4.800000000e-03	2.323815419e-01	-3.048343168e-02	1.517719949e-14
4.900000000e-03	2.323919157e-01	-3.057681898e-02	2.398184529e-14
5.000000000e-03	2.324025030e-01	-3.067210661e-02	2.240340936e-14
5.100000000e-03	2.324133038e-01	-3.076929304e-02	3.228821751e-14
5.200000000e-03	2.324243180e-01	-3.086837668e-02	1.803352179e-14
5.300000000e-03	2.324355457e-01	-3.096935596e-02	1.917827930e-14
5.400000000e-03	2.324469868e-01	-3.107222924e-02	2.845291732e-14
5.500000000e-03	2.324586413e-01	-3.117699488e-02	3.120339040e-14
5.600000000e-03	2.324705091e-01	-3.128365119e-02	2.242650510e-14
5.700000000e-03	2.324825902e-01	-3.139219645e-02	3.035439898e-14
5.800000000e-03	2.324948846e-01	-3.150262893e-02	1.495631540e-14
5.900000000e-03	2.325073923e-01	-3.161494684e-02	3.271900903e-14
6.000000000e-03	2.325201133e-01	-3.172914839e-02	2.856791750e-14
6.100000000e-03	2.325330474e-01	-3.184523174e-02	1.817106471e-14
6.200000000e-03	2.325461948e-01	-3.196319503e-02	2.220446049e-16
6.300000000e-03	2.325595553e-01	-3.208303637e-02	2.854633628e-14
6.400000000e-03	2.325731289e-01	-3.220475384e-02	2.842517867e-14
6.500000000e-03	2.325869156e-01	-3.232834549e-02	1.525658123e-14
6.600000000e-03	2.326009153e-01	-3.245380933e-02	4.263256415e-14
6.700000000e-03	2.326151281e-01	-3.258114335e-02	1.495631540e-14
6.800000000e-03	2.326295539e-01	-3.271034553e-02	4.440892099e-16
6.900000000e-03	2.326441926e-01	-3.284141378e-02	5.107025913e-15
7.000000000e-03	2.326590443e-01	-3.297434602e-02	2.842257678e-14
7.100000000e-03	2.326741089e-01	-3.310914011e-02	3.027714775e-14
7.200000000e-03	2.326893864e-01	-3.324579391e-02	2.861620037e-14
7.300000000e-03	2.327048766e-01	-3.338430522e-02	2.850831366e-14
7.400000000e-03	2.327205797e-01	-3.352467184e-02	2.864289338e-14
7.500000000e-03	2.327364955e-01	-3.366689153e-02	2.844338521e-14
7.600000000e-03	2.327526241e-01	-3.381096200e-02	1.421779192e-14
7.700000000e-03	2.327689653e-01	-3.395688098e-02	4.440892099e-16
7.800000000e-03	2.327855192e-01	-3.410464612e-02	3.108624469e-14
7.900000000e-03	2.328022857e-01	-3.425425507e-02	2.946507645e-14
8.000000000e-03	2.328192648e-01	-3.440570546e-02	4.263314238e-14
8.100000000e-03	2.328364564e-01	-3.455899485e-02	2.106031918e-14
8.200000000e-03	2.328538605e-01	-3.471412083e-02	1.554312234e-15
8.300000000e-03	2.328714770e-01	-3.487108091e-02	1.110223025e-14
8.400000000e-03	2.328893060e-01	-3.502987260e-02	4.264701772e-14
8.500000000e-03	2.329073474e-01	-3.519049337e-02	1.917827930e-14
8.600000000e-03	2.329256011e-01	-3.535294068e-02	2.220446049e-16
8.700000000e-03	2.329440671e-01	-3.551721194e-02	4.305203829e-14
8.800000000e-03	2.329627453e-01	-3.568330454e-02	5.684515356e-14
8.900000000e-03	2.329816358e-01	-3.585121584e-02	1.427316814e-14
9.000000000e-03	2.330007384e-01	-3.602094319e-02	5.698375822e-14
9.100000000e-03	2.330200532e-01	-3.619248389e-02	1.712048861e-14
9.200000000e-03	2.330395800e-01	-3.636583523e-02	1.619708476e-14
9.300000000e-03	2.330593189e-01	-3.654099445e-02	1.569464296e-14
9.400000000e-03	2.330792698e-01	-3.671795879e-02	1.994079236e-14
9.500000000e-03	2.330994326e-01	-3.689672544e-02	7.549516567e-15
9.600000000e-03	2.331198074e-01	-3.707729157e-02	2.842951461e-14
9.700000000e-03	2.331403940e-01	-3.725965434e-02	1.421779192e-14
9.800000000e-03	2.331611924e-01	-3.744381086e-02	1.724530548e-14
9.900000000e-03	2.331822026e-01	-3.762975822e-02	3.330669074e-15
1.000000000e-02	2.332034245e-01	-3.781749349e-02	2.902930695e-14
1.010000000e-02	2.332248581e-01	-3.800701370e-02	3.271900903e-14
1.020000000e-02	2.332465033e-01	-3.819831587e-02	2.139016889e-14
1.030000000e-02	2.332683600e-01	-3.839139698e-02	2.935107174e-14
1.040000000e-02	2.332904283e-01	-3.858625399e-02	4.354792321e-14
1.050000000e-02	2.333127081e-01	-3.878288384e-02	4.568942077e-14
1.060000000e-02	2.333351993e-01	-3.898128344e-02	2.220446049e-15
1.070000000e-02	2.333579019e-01	-3.918144965e-02	1.675811691e-14
1.080000000e-02	2.333808158e-01	-3.938337934e-02	3.076179383e-14
1.090000000e-02	2.334039410e-01	-3.958706934e-02	2.220446049e-16
1.100000000e-02	2.334272774e-01	-3.979251644e-02	1.427316814e-14
1.110000000e-02	2.334508250e-01	-3.999971743e-02	3.012696094e-14
1.120000000e-02	2.334745836e-01	-4.020866906e-02	1.421085472e-14
1.130000000e-02	2.334985534e-01	-4.041936805e-02	2.223219874e-14
1.140000000e-02	2.335227342e-01	-4.063181111e-02	1.482386812e-14
1.150000000e-02	2.335471259e-01	-4.084599491e-02	1.176836406e-14
1.160000000e-02	2.335717285e-01	-4.106191610e-02	0.000000000e+00
1.170000000e-02	2.335965420e-01	-4.127957130e-02	1.422645866e-14
1.180000000e-02	2.336215662e-01	-4.149895713e-02	9.325873407e-15
1.190000000e-02	2.336468012e-01	-4.172007014e-02	1.803352179e-14
1.200000000e-02	2.336722469e-01	-4.194290690e-02	4.545410889e-14
1.210000000e-02	2.336979032e-01	-4.216746393e-02	2.122472334e-14
1.220000000e-02	2.337237700e-01	-4.239373774e-02	2.842257678e-14
1.230000000e-02	2.337498474e-01	-4.262172479e-02	3.108624469e-15
1.240000000e-02	2.337761352e-01	-4.285142154e-02	4.884981308e-15
1.250000000e-02	2.338026334e-01	-4.308282442e-02	1.902988332e-14
1.260000000e-02	2.338293420e-01	-4.331592984e-02	1.998401444e-15
1.270000000e-02	2.338562608e-01	-4.355073417e-02	1.724530548e-14
1.280000000e-02	2.338833898e-01	-4.378723377e-02	8.881784197e-16
1.290000000e-02	2.339107290e-01	-4.402542498e-02	5.763971726e-14
1.300000000e-02	2.339382782e-01	-4.426530411e-02	4.264181500e-14
1.310000000e-02	2.339660375e-01	-4.450686744e-02	9.992007222e-15
1.320000000e-02	2.339940067e-01	-4.475011122e-02	2.843558383e-14
1.330000000e-02	2.340221859e-01	-4.499503171e-02	1.482386812e-14
1.340000000e-02	2.340505749e-01	-4.524162512e-02	3.399531183e-14
1.350000000e-02	2.340791737e-01	-4.548988764e-02	3.996802889e-15
1.360000000e-02	2.341079821e-01	-4.573981544e-02	1.687685073e-14
1.370000000e-02	2.341370003e-01	-4.599140466e-02	1.421258933e-14
1.380000000e-02	2.341662280e-01	-4.624465144e-02	5.329070518e-15
1.390000000e-02	2.341956652e-01	-4.649955187e-02	1.619708476e-14
1.400000000e-02	2.342253119e-01	-4.675610203e-02	2.843558383e-14
1.410000000e-02	2.342551680e-01	-4.701429798e-02	1.435067943e-14
1.420000000e-02	2.342852334e-01	-4.727413575e-02	2.220446049e-16
1.430000000e-02	2.343155081e-01	-4.753561135e-02	7.115446995e-14
1.440000000e-02	2.343459919e-01	-4.779872078e-02	1.154631946e-14
1.450000000e-02	2.343766849e-01	-4.806346000e-02	1.664149878e-14
1.460000000e-02	2.344075869e-01	-4.832982496e-02	4.305203829e-14
1.470000000e-02	2.344386979e-01	-4.859781159e-02	4.832213033e-14
1.480000000e-02	2.344700178e-01	-4.886741578e-02	3.552713679e-15
1.490000000e-02	2.345015466e-01	-4.913863342e-02	2.891699430e-14
1.500000000e-02	2.345332842e-01	-4.941146038e-02	1.421258933e-14
1.510000000e-02	2.345652304e-01	-4.968589248e-02	1.820765760e-14
1.520000000e-02	2.345973853e-01	-4.996192554e-02	2.909377513e-14
1.530000000e-02	2.346297487e-01	-5.023955538e-02	1.609172434e-14
1.540000000e-02	2.346623207e-01	-5.051877775e-02	1.438328100e-14
1.550000000e-02	2.346951010e-01	-5.079958842e-02	2.041361735e-14
1.560000000e-02	2.347280897e-01	-5.108198312e-02	2.287059431e-14
1.570000000e-02	2.347612867e-01	-5.136595757e-02	1.438328100e-14
1.580000000e-02	2.347946918e-01	-5.165150746e-02	8.881784197e-15
1.590000000e-02	2.348283051e-01	-5.193862846e-02	2.842951461e-14
1.600000000e-02	2.348621265e-01	-5.222731624e-02	4.218847494e-15
1.610000000e-02	2.348961558e-01	-5.251756642e-02	2.787522182e-14
1.620000000e-02	2.349303931e-01	-5.280937462e-02	1.445849715e-14
1.630000000e-02	2.349648381e-01	-5.310273643e-02	2.842257678e-14
1.640000000e-02	2.349994909e-01	-5.339764743e-02	4.063416270e-14
1.650000000e-02	2.350343514e-01	-5.369410318e-02	1.454688756e-14
1.660000000e-02	2.350694195e-01	-5.399209920e-02	1.354472090e-14
1.670000000e-02	2.351046951e-01	-5.429163103e-02	4.440892099e-16
1.680000000e-02	2.351401781e-01	-5.459269416e-02	4.333512073e-14
1.690000000e-02	2.351758685e-01	-5.489528406e-02	1.588821858e-14
1.700000000e-02	2.352117662e-01	-5.519939621e-02	1.441922856e-14
1.710000000e-02	2.352478711e-01	-5.550502603e-02	1.429560346e-14
1.720000000e-02	2.352841831e-01	-5.581216896e-02	1.110223025e-14
1.730000000e-02	2.353207021e-01	-5.612082040e-02	1.332267630e-15
1.740000000e-02	2.353574282e-01	-5.643097573e-02	1.776356839e-14
1.750000000e-02	2.353943611e-01	-5.674263034e-02	5.687116766e-14
1.760000000e-02	2.354315008e-01	-5.705577956e-02	4.341696024e-14
1.770000000e-02	2.354688472e-01	-5.737041873e-02	4.440892099e-16
1.780000000e-02	2.355064003e-01	-5.768654317e-02	1.454688756e-14
1.790000000e-02	2.355441599e-01	-5.800414817e-02	1.427316814e-14
1.800000000e-02	2.355821261e-01	-5.832322902e-02	4.884981308e-15
1.810000000e-02	2.356202986e-01	-5.864378098e-02	9.103828802e-15
1.820000000e-02	2.356586774e-01	-5.896579930e-02	1.803352179e-14
1.830000000e-02	2.356972624e-01	-5.928927920e-02	5.086905724e-14
1.840000000e-02	2.357360536e-01	-5.961421590e-02	1.138222823e-13
1.850000000e-02	2.357750508e-01	-5.994060459e-02	2.842257678e-14
1.860000000e-02	2.358142540e-01	-6.026844046e-02	1.737206378e-14
1.870000000e-02	2.358536631e-01	-6.059771866e-02	6.661338148e-16
1.880000000e-02	2.358932779e-01	-6.092843434e-02	1.554312234e-15
1.890000000e-02	2.359330985e-01	-6.126058263e-02	2.883845712e-14
1.900000000e-02	2.359731247e-01	-6.159415865e-02	9.057923133e-14
1.910000000e-02	2.360133565e-01	-6.192915749e-02	2.842257678e-14
1.920000000e-02	2.360537936e-01	-6.226557424e-02	1.421779192e-14
1.930000000e-02	2.360944362e-01	-6.260340396e-02	0.000000000e+00
1.940000000e-02	2.361352840e-01	-6.294264171e-02	1.021405183e-14
1.950000000e-02	2.361763370e-01	-6.328328251e-02	1.502702346e-14
1.960000000e-02	2.362175951e-01	-6.362532140e-02	2.867128122e-14
1.970000000e-02	2.362590582e-01	-6.396875338e-02	1.423858324e-14
1.980000000e-02	2.363007262e-01	-6.431357343e-02	1.445849715e-14
1.990000000e-02	2.363425990e-01	-6.465977653e-02	3.996802889e-15
2.000000000e-02	2.363846765e-01	-6.500735765e-02	0.000000000e+00
2.010000000e-02	2.364269587e-01	-6.535631174e-02	2.176037128e-14
2.020000000e-02	2.364694455e-01	-6.570663371e-02	6.195681132e-14
2.030000000e-02	2.365121366e-01	-6.605831850e-02	1.421085472e-14
2.040000000e-02	2.365550322e-01	-6.641136101e-02	1.502702346e-14
2.050000000e-02	2.365981320e-01	-6.676575612e-02	2.488485103e-14
2.060000000e-02	2.366414360e-01	-6.712149871e-02	1.176836406e-14
2.070000000e-02	2.366849440e-01	-6.747858365e-02	1.421779192e-14
2.080000000e-02	2.367286561e-01	-6.783700579e-02	2.842170943e-14
2.090000000e-02	2.367725720e-01	-6.819675995e-02	2.089698100e-14
2.100000000e-02	2.368166917e-01	-6.855784097e-02	3.682527936e-14
2.110000000e-02	2.368610152e-01	-6.892024365e-02	4.271574972e-14
2.120000000e-02	2.369055422e-01	-6.928396279e-02	1.675811691e-14
2.130000000e-02	2.369502727e-01	-6.964899317e-02	2.844338521e-14
2.140000000e-02	2.369952067e-01	-7.001532956e-02	2.206189426e-14
2.150000000e-02	2.370403439e-01	-7.038296673e-02	2.876656200e-14
2.160000000e-02	2.370856844e-01	-7.075189941e-02	2.842257678e-14
2.170000000e-02	2.371312280e-01	-7.112212234e-02	1.569464296e-14
2.180000000e-02	2.371769746e-01	-7.149363025e-02	1.421779192e-14
2.190000000e-02	2.372229241e-01	-7.186641784e-02	1.724530548e-14
2.200000000e-02	2.372690764e-01	-7.224047981e-02	4.218847494e-15
2.210000000e-02	2.373154315e-01	-7.261581085e-02	2.442490654e-15
2.220000000e-02	2.373619892e-01	-7.299240562e-02	1.421085472e-14
2.230000000e-02	2.374087494e-01	-7.337025881e-02	1.517719949e-14
2.240000000e-02	2.374557120e-01	-7.374936505e-02	2.961196042e-14
2.250000000e-02	2.375028769e-01	-7.412971898e-02	2.845291732e-14
2.260000000e-02	2.375502441e-01	-7.451131525e-02	3.316799415e-14
2.270000000e-02	2.375978134e-01	-7.489414846e-02	1.427316814e-14
2.280000000e-02	2.376455846e-01	-7.527821322e-02	2.876656200e-14
2.290000000e-02	2.376935578e-01	-7.566350414e-02	1.421085472e-14
2.300000000e-02	2.377417328e-01	-7.605001580e-02	4.440892099e-16
2.310000000e-02	2.377901095e-01	-7.643774278e-02	2.842517867e-14
2.320000000e-02	2.378386878e-01	-7.682667964e-02	7.327471963e-15
2.330000000e-02	2.378874676e-01	-7.721682094e-02	6.661338148e-16
2.340000000e-02	2.379364488e-01	-7.760816124e-02	2.846417843e-14
2.350000000e-02	2.379856312e-01	-7.800069506e-02	4.440892099e-16
2.360000000e-02	2.380350149e-01	-7.839441693e-02	2.220446049e-16
2.370000000e-02	2.380845996e-01	-7.878932138e-02	1.763123650e-14
2.380000000e-02	2.381343853e-01	-7.918540292e-02	2.122472334e-14
2.390000000e-02	2.381843718e-01	-7.958265603e-02	4.263487705e-14
2.400000000e-02	2.382345591e-01	-7.998107523e-02	1.652704113e-14
2.410000000e-02	2.382849471e-01	-8.038065498e-02	4.440892099e-16
2.420000000e-02	2.383355356e-01	-8.078138976e-02	4.440892099e-16
2.430000000e-02	2.383863245e-01	-8.118327404e-02	2.870135886e-14
2.440000000e-02	2.384373137e-01	-8.158630227e-02	1.482386812e-14
2.450000000e-02	2.384885032e-01	-8.199046891e-02	1.643130076e-14
2.460000000e-02	2.385398927e-01	-8.239576839e-02	1.425415683e-14
2.470000000e-02	2.385914823e-01	-8.280219514e-02	7.115446995e-14
2.480000000e-02	2.386432717e-01	-8.320974360e-02	4.440892099e-16
2.490000000e-02	2.386952609e-01	-8.361840818e-02	2.220446049e-16
2.500000000e-02	2.387474498e-01	-8.402818328e-02	2.880167609e-14
2.510000000e-02	2.387998382e-01	-8.443906331e-02	1.652704113e-14
2.520000000e-02	2.388524261e-01	-8.485104267e-02	3.138928592e-14
2.530000000e-02	2.389052133e-01	-8.526411575e-02	4.553159847e-14
2.540000000e-02	2.389581997e-01	-8.567827691e-02	2.274846707e-14
2.550000000e-02	2.390113852e-01	-8.609352055e-02	2.220446049e-16
2.560000000e-02	2.390647697e-01	-8.650984102e-02	2.020605905e-14
2.570000000e-02	2.391183531e-01	-8.692723268e-02	1.432144669e-14
2.580000000e-02	2.391721353e-01	-8.734568990e-02	1.643130076e-14
2.590000000e-02	2.392261161e-01	-8.776520701e-02	1.454688756e-14
2.600000000e-02	2.392802955e-01	-8.818577837e-02	1.675811691e-14
2.610000000e-02	2.393346732e-01	-8.860739830e-02	1.789767670e-14
2.620000000e-02	2.393892493e-01	-8.903006113e-02	1.724530548e-14
2.630000000e-02	2.394440236e-01	-8.945376120e-02	2.065014826e-14
2.640000000e-02	2.394989960e-01	-8.987849282e-02	1.425415683e-14
2.650000000e-02	2.395541663e-01	-9.030425030e-02	1.652704113e-14
2.660000000e-02	2.396095344e-01	-9.073102796e-02	1.994079236e-14
2.670000000e-02	2.396651003e-01	-9.115882009e-02	3.059062354e-14
2.680000000e-02	2.397208638e-01	-9.158762099e-02	1.423858324e-14
2.690000000e-02	2.397768248e-01	-9.201742495e-02	2.886579864e-15
2.700000000e-02	2.398329832e-01	-9.244822627e-02	1.542371119e-14
2.710000000e-02	2.398893388e-01	-9.288001923e-02	2.025480127e-14
2.720000000e-02	2.399458916e-01	-9.331279810e-02	2.442490654e-15
2.730000000e-02	2.400026414e-01	-9.374655717e-02	1.443289932e-14
2.740000000e-02	2.400595881e-01	-9.418129070e-02	2.073473398e-14
2.750000000e-02	2.401167316e-01	-9.461699296e-02	1.332267630e-15
2.760000000e-02	2.401740717e-01	-9.505365821e-02	5.859285502e-14
2.770000000e-02	2.402316084e-01	-9.549128071e-02	6.217248938e-15
2.780000000e-02	2.402893415e-01	-9.592985472e-02	4.383905086e-14
2.790000000e-02	2.403472709e-01	-9.636937449e-02	1.438328100e-14
2.800000000e-02	2.404053965e-01	-9.680983426e-02	1.421779192e-14
2.810000000e-02	2.404637181e-01	-9.725122829e-02	2.842257678e-14
2.820000000e-02	2.405222357e-01	-9.769355081e-02	1.459594972e-14
2.830000000e-02	2.405809491e-01	-9.813679607e-02	2.852646714e-14
2.840000000e-02	2.406398582e-01	-9.858095830e-02	3.418044764e-14
2.850000000e-02	2.406989628e-01	-9.902603173e-02	1.609172434e-14
2.860000000e-02	2.407582629e-01	-9.947201060e-02	1.432144669e-14
2.870000000e-02	2.408177583e-01	-9.991888913e-02	2.904713483e-14
2.880000000e-02	2.408774490e-01	-1.003666616e-01	4.350317937e-14
2.890000000e-02	2.409373347e-01	-1.008153221e-01	1.287858709e-14
2.900000000e-02	2.409974153e-01	-1.012648650e-01	0.000000000e+00
2.910000000e-02	2.410576908e-01	-1.017152844e-01	1.176836406e-14
2.920000000e-02	2.411181609e-01	-1.021665746e-01	1.845109169e-14
2.930000000e-02	2.411788257e-01	-1.026187298e-01	1.265654248e-14
2.940000000e-02	2.412396849e-01	-1.030717442e-01	4.195703056e-14
2.950000000e-02	2.413007384e-01	-1.035256121e-01	1.488858336e-14
2.960000000e-02	2.413619861e-01	-1.039803276e-01	3.108624469e-15
2.970000000e-02	2.414234279e-01	-1.044358849e-01	1.831026719e-14
2.980000000e-02	2.414850636e-01	-1.048922783e-01	1.588821858e-14
2.990000000e-02	2.415468931e-01	-1.053495019e-01	0.000000000e+00
3.000000000e-02	2.416089163e-01	-1.058075501e-01	1.476220936e-14
3.010000000e-02	2.416711331e-01	-1.062664169e-01	2.859120692e-14
3.020000000e-02	2.417335433e-01	-1.067260966e-01	4.399902232e-14
3.030000000e-02	2.417961469e-01	-1.071865834e-01	2.886579864e-15
