# Ep [eV]     Omega/c [1/micrones]    Im(epsi1)     Eq(det).Opt det SIN kz nano,R = 0.5 $\mu$m, $\mu_c$ = 0.3 eV, modo = 1, $\epsilon_\infty$ = 3.9, $\gamma_{DL}$ = 0.01 eV, solve_det_sinkz_vs_Ep.py
0.000000000e+00	1.340054624e-01	-3.530719975e-02	6.883382753e-15
1.000000000e-04	1.340056324e-01	-3.531185852e-02	3.108624469e-15
2.000000000e-04	1.340061427e-01	-3.532583463e-02	7.847321480e-15
3.000000000e-04	1.340069930e-01	-3.534912751e-02	2.553512957e-15
4.000000000e-04	1.340081835e-01	-3.538173617e-02	1.421475731e-14
5.000000000e-04	1.340097141e-01	-3.542365925e-02	2.220446049e-16
6.000000000e-04	1.340115849e-01	-3.547489499e-02	4.329869796e-15
7.000000000e-04	1.340137958e-01	-3.553544125e-02	1.428395875e-14
8.000000000e-04	1.340163468e-01	-3.560529550e-02	1.421779192e-14
9.000000000e-04	1.340192378e-01	-3.568445481e-02	2.220446049e-16
1.000000000e-03	1.340224690e-01	-3.577291586e-02	9.016760895e-15
1.100000000e-03	1.340260403e-01	-3.587067496e-02	1.462168360e-14
1.200000000e-03	1.340299516e-01	-3.597772801e-02	1.422645866e-14
1.300000000e-03	1.340342030e-01	-3.609407053e-02	7.229248576e-15
1.400000000e-03	1.340387944e-01	-3.621969766e-02	7.895083120e-15
1.500000000e-03	1.340437258e-01	-3.635460415e-02	7.113229330e-15
1.600000000e-03	1.340489972e-01	-3.649878434e-02	8.881784197e-15
1.700000000e-03	1.340546086e-01	-3.665223221e-02	7.755684626e-15
1.800000000e-03	1.340605599e-01	-3.681494135e-02	7.250529895e-15
1.900000000e-03	1.340668512e-01	-3.698690496e-02	1.426323357e-14
2.000000000e-03	1.340734824e-01	-3.716811585e-02	2.134517455e-14
2.100000000e-03	1.340804535e-01	-3.735856644e-02	1.426323357e-14
2.200000000e-03	1.340877644e-01	-3.755824879e-02	9.992007222e-16
2.300000000e-03	1.340954151e-01	-3.776715455e-02	7.513511731e-15
2.400000000e-03	1.341034056e-01	-3.798527500e-02	4.299244590e-14
2.500000000e-03	1.341117359e-01	-3.821260105e-02	0.000000000e+00
2.600000000e-03	1.341204060e-01	-3.844912320e-02	7.250529895e-15
2.700000000e-03	1.341294157e-01	-3.869483159e-02	8.207394577e-15
2.800000000e-03	1.341387651e-01	-3.894971598e-02	4.996003611e-15
2.900000000e-03	1.341484541e-01	-3.921376574e-02	3.108624469e-15
3.000000000e-03	1.341584827e-01	-3.948696986e-02	7.191640501e-15
3.100000000e-03	1.341688509e-01	-3.976931697e-02	7.136584070e-15
3.200000000e-03	1.341795585e-01	-4.006079532e-02	3.330669074e-16
3.300000000e-03	1.341906057e-01	-4.036139276e-02	7.800847599e-15
3.400000000e-03	1.342019922e-01	-4.067109679e-02	7.628290615e-15
3.500000000e-03	1.342137182e-01	-4.098989453e-02	7.108895958e-15
3.600000000e-03	1.342257835e-01	-4.131777273e-02	2.442490654e-15
3.700000000e-03	1.342381880e-01	-4.165471775e-02	7.229248576e-15
3.800000000e-03	1.342509318e-01	-4.200071562e-02	7.994376728e-15
3.900000000e-03	1.342640148e-01	-4.235575195e-02	1.440083805e-14
4.000000000e-03	1.342774370e-01	-4.271981201e-02	3.885780586e-15
4.100000000e-03	1.342911982e-01	-4.309288071e-02	1.028680197e-14
4.200000000e-03	1.343052985e-01	-4.347494257e-02	1.628663499e-14
4.300000000e-03	1.343197377e-01	-4.386598177e-02	7.351822764e-15
4.400000000e-03	1.343345158e-01	-4.426598210e-02	1.036736699e-14
4.500000000e-03	1.343496329e-01	-4.467492701e-02	7.895083120e-15
4.600000000e-03	1.343650887e-01	-4.509279958e-02	7.628290615e-15
4.700000000e-03	1.343808833e-01	-4.551958253e-02	2.182033135e-14
4.800000000e-03	1.343970165e-01	-4.595525822e-02	7.127078414e-15
4.900000000e-03	1.344134884e-01	-4.639980865e-02	1.443289932e-15
5.000000000e-03	1.344302989e-01	-4.685321547e-02	1.796538460e-14
5.100000000e-03	1.344474478e-01	-4.731545998e-02	1.422645866e-14
5.200000000e-03	1.344649351e-01	-4.778652312e-02	1.859350133e-14
5.300000000e-03	1.344827608e-01	-4.826638547e-02	7.209614281e-15
5.400000000e-03	1.345009248e-01	-4.875502728e-02	1.221245327e-15
5.500000000e-03	1.345194270e-01	-4.925242844e-02	7.895083120e-15
5.600000000e-03	1.345382674e-01	-4.975856849e-02	0.000000000e+00
5.700000000e-03	1.345574458e-01	-5.027342664e-02	7.106294666e-15
5.800000000e-03	1.345769622e-01	-5.079698172e-02	5.218048216e-15
5.900000000e-03	1.345968166e-01	-5.132921227e-02	7.351822764e-15
6.000000000e-03	1.346170087e-01	-5.187009645e-02	7.113229330e-15
6.100000000e-03	1.346375387e-01	-5.241961209e-02	2.131657119e-14
6.200000000e-03	1.346584063e-01	-5.297773669e-02	7.209614281e-15
6.300000000e-03	1.346796115e-01	-5.354444741e-02	7.106294666e-15
6.400000000e-03	1.347011542e-01	-5.411972108e-02	7.147801730e-15
6.500000000e-03	1.347230343e-01	-5.470353419e-02	7.191640501e-15
6.600000000e-03	1.347452518e-01	-5.529586291e-02	7.800847599e-15
6.700000000e-03	1.347678066e-01	-5.589668307e-02	9.225545843e-15
6.800000000e-03	1.347906985e-01	-5.650597019e-02	7.771561172e-16
6.900000000e-03	1.348139275e-01	-5.712369944e-02	1.020680867e-14
7.000000000e-03	1.348374935e-01	-5.774984570e-02	1.110223025e-16
7.100000000e-03	1.348613963e-01	-5.838438350e-02	2.220446049e-16
7.200000000e-03	1.348856360e-01	-5.902728706e-02	1.428395875e-14
7.300000000e-03	1.349102124e-01	-5.967853030e-02	4.440892099e-16
7.400000000e-03	1.349351253e-01	-6.033808679e-02	7.273443782e-15
7.500000000e-03	1.349603748e-01	-6.100592982e-02	3.108624469e-15
7.600000000e-03	1.349859607e-01	-6.168203236e-02	8.498827957e-15
7.700000000e-03	1.350118829e-01	-6.236636706e-02	1.299482734e-14
7.800000000e-03	1.350381413e-01	-6.305890627e-02	7.113229330e-15
7.900000000e-03	1.350647359e-01	-6.375962204e-02	2.220446049e-16
8.000000000e-03	1.350916664e-01	-6.446848611e-02	7.136584070e-15
8.100000000e-03	1.351189327e-01	-6.518546992e-02	4.440892099e-15
8.200000000e-03	1.351465349e-01	-6.591054461e-02	7.628290615e-15
8.300000000e-03	1.351744728e-01	-6.664368104e-02	2.885747077e-14
8.400000000e-03	1.352027462e-01	-6.738484975e-02	2.134517455e-14
8.500000000e-03	1.352313550e-01	-6.813402101e-02	7.108895958e-15
8.600000000e-03	1.352602992e-01	-6.889116479e-02	1.429560346e-14
8.700000000e-03	1.352895786e-01	-6.965625076e-02	7.711855593e-15
8.800000000e-03	1.353191932e-01	-7.042924833e-02	1.110223025e-15
8.900000000e-03	1.353491427e-01	-7.121012662e-02	8.379058453e-15
9.000000000e-03	1.353794270e-01	-7.199885445e-02	2.186885740e-14
9.100000000e-03	1.354100461e-01	-7.279540039e-02	8.881784197e-16
9.200000000e-03	1.354409999e-01	-7.359973270e-02	1.221245327e-15
9.300000000e-03	1.354722881e-01	-7.441181941e-02	1.422169260e-14
9.400000000e-03	1.355039108e-01	-7.523162824e-02	1.482386812e-14
9.500000000e-03	1.355358676e-01	-7.605912665e-02	7.108895958e-15
9.600000000e-03	1.355681586e-01	-7.689428185e-02	3.330669074e-16
9.700000000e-03	1.356007836e-01	-7.773706077e-02	7.147801730e-15
9.800000000e-03	1.356337425e-01	-7.858743009e-02	2.133044428e-14
9.900000000e-03	1.356670351e-01	-7.944535621e-02	1.423208921e-14
1.000000000e-02	1.357006613e-01	-8.031080529e-02	1.452356742e-14
1.010000000e-02	1.357346209e-01	-8.118374324e-02	7.755684626e-15
1.020000000e-02	1.357689139e-01	-8.206413570e-02	1.513857387e-14
1.030000000e-02	1.358035401e-01	-8.295194808e-02	7.381104678e-15
1.040000000e-02	1.358384993e-01	-8.384714552e-02	2.170848012e-14
1.050000000e-02	1.358737915e-01	-8.474969293e-02	1.441922856e-14
1.060000000e-02	1.359094164e-01	-8.565955499e-02	7.229248576e-15
1.070000000e-02	1.359453739e-01	-8.657669611e-02	7.755684626e-15
1.080000000e-02	1.359816640e-01	-8.750108050e-02	1.043609643e-14
1.090000000e-02	1.360182863e-01	-8.843267210e-02	7.175339714e-15
1.100000000e-02	1.360552409e-01	-8.937143464e-02	1.308792382e-14
1.110000000e-02	1.360925275e-01	-9.031733162e-02	1.421475731e-14
1.120000000e-02	1.361301460e-01	-9.127032631e-02	1.044849050e-14
1.130000000e-02	1.361680962e-01	-9.223038174e-02	1.430810018e-14
1.140000000e-02	1.362063781e-01	-9.319746075e-02	1.845109169e-14
1.150000000e-02	1.362449913e-01	-9.417152594e-02	2.131657119e-14
1.160000000e-02	1.362839359e-01	-9.515253970e-02	7.108895958e-15
1.170000000e-02	1.363232115e-01	-9.614046420e-02	7.127078414e-15
1.180000000e-02	1.363628181e-01	-9.713526142e-02	5.551115123e-16
1.190000000e-02	1.364027556e-01	-9.813689311e-02	4.440892099e-15
1.200000000e-02	1.364430236e-01	-9.914532083e-02	6.661338148e-16
1.210000000e-02	1.364836222e-01	-1.001605059e-01	1.110223025e-16
1.220000000e-02	1.365245510e-01	-1.011824095e-01	7.127078414e-15
1.230000000e-02	1.365658101e-01	-1.022109926e-01	7.669383368e-15
1.240000000e-02	1.366073990e-01	-1.032462160e-01	8.320749388e-15
1.250000000e-02	1.366493178e-01	-1.042880401e-01	7.324106878e-15
1.260000000e-02	1.366915663e-01	-1.053364255e-01	2.132668787e-14
1.270000000e-02	1.367341442e-01	-1.063913322e-01	7.324106878e-15
1.280000000e-02	1.367770514e-01	-1.074527203e-01	1.430810018e-14
1.290000000e-02	1.368202878e-01	-1.085205497e-01	7.297974860e-15
1.300000000e-02	1.368638530e-01	-1.095947799e-01	3.330669074e-16
1.310000000e-02	1.369077471e-01	-1.106753705e-01	1.099120794e-14
1.320000000e-02	1.369519698e-01	-1.117622808e-01	1.482386812e-14
1.330000000e-02	1.369965208e-01	-1.128554698e-01	1.423858324e-14
1.340000000e-02	1.370414001e-01	-1.139548966e-01	7.127078414e-15
1.350000000e-02	1.370866074e-01	-1.150605200e-01	1.665334537e-15
1.360000000e-02	1.371321426e-01	-1.161722987e-01	7.209614281e-15
1.370000000e-02	1.371780055e-01	-1.172901910e-01	1.559102602e-14
1.380000000e-02	1.372241959e-01	-1.184141554e-01	7.711855593e-15
1.390000000e-02	1.372707136e-01	-1.195441500e-01	1.473253822e-14
1.400000000e-02	1.373175583e-01	-1.206801329e-01	1.128775275e-14
1.410000000e-02	1.373647300e-01	-1.218220619e-01	1.235144945e-14
1.420000000e-02	1.374122284e-01	-1.229698948e-01	1.422645866e-14
1.430000000e-02	1.374600534e-01	-1.241235892e-01	7.191640501e-15
1.440000000e-02	1.375082047e-01	-1.252831025e-01	1.421258933e-14
1.450000000e-02	1.375566821e-01	-1.264483921e-01	7.411934058e-15
1.460000000e-02	1.376054855e-01	-1.276194152e-01	1.443844937e-14
1.470000000e-02	1.376546146e-01	-1.287961288e-01	7.478157702e-15
1.480000000e-02	1.377040692e-01	-1.299784898e-01	8.263520564e-15
1.490000000e-02	1.377538492e-01	-1.311664552e-01	1.440083805e-14
1.500000000e-02	1.378039543e-01	-1.323599815e-01	7.669383368e-15
1.510000000e-02	1.378543843e-01	-1.335590254e-01	7.175339714e-15
1.520000000e-02	1.379051391e-01	-1.347635433e-01	7.160723346e-15
1.530000000e-02	1.379562183e-01	-1.359734915e-01	7.229248576e-15
1.540000000e-02	1.380076219e-01	-1.371888264e-01	2.220446049e-16
1.550000000e-02	1.380593495e-01	-1.384095039e-01	8.263520564e-15
1.560000000e-02	1.381114010e-01	-1.396354803e-01	8.622652742e-15
1.570000000e-02	1.381637761e-01	-1.408667113e-01	3.441691376e-15
1.580000000e-02	1.382164747e-01	-1.421031528e-01	1.438328100e-14
1.590000000e-02	1.382694965e-01	-1.433447606e-01	1.110223025e-15
1.600000000e-02	1.383228413e-01	-1.445914902e-01	7.136584070e-15
1.610000000e-02	1.383765089e-01	-1.458432973e-01	7.147801730e-15
1.620000000e-02	1.384304991e-01	-1.471001373e-01	7.108895958e-15
1.630000000e-02	1.384848115e-01	-1.483619656e-01	5.218048216e-15
1.640000000e-02	1.385394461e-01	-1.496287374e-01	7.628290615e-15
1.650000000e-02	1.385944026e-01	-1.509004080e-01	8.881784197e-16
1.660000000e-02	1.386496808e-01	-1.521769326e-01	3.996802889e-15
1.670000000e-02	1.387052803e-01	-1.534582663e-01	7.324106878e-15
1.680000000e-02	1.387612011e-01	-1.547443639e-01	1.436656049e-14
1.690000000e-02	1.388174428e-01	-1.560351805e-01	1.998401444e-15
1.700000000e-02	1.388740052e-01	-1.573306709e-01	1.443289932e-15
1.710000000e-02	1.389308882e-01	-1.586307900e-01	7.113229330e-15
1.720000000e-02	1.389880914e-01	-1.599354925e-01	6.661338148e-16
1.730000000e-02	1.390456146e-01	-1.612447331e-01	7.944109290e-15
1.740000000e-02	1.391034576e-01	-1.625584664e-01	7.147801730e-15
1.750000000e-02	1.391616202e-01	-1.638766470e-01	7.191640501e-15
1.760000000e-02	1.392201020e-01	-1.651992295e-01	7.108895958e-15
1.770000000e-02	1.392789029e-01	-1.665261685e-01	5.329070518e-15
1.780000000e-02	1.393380226e-01	-1.678574182e-01	7.994376728e-15
1.790000000e-02	1.393974608e-01	-1.691929332e-01	1.422169260e-14
1.800000000e-02	1.394572174e-01	-1.705326679e-01	7.229248576e-15
1.810000000e-02	1.395172921e-01	-1.718765766e-01	1.110223025e-15
1.820000000e-02	1.395776845e-01	-1.732246136e-01	7.478157702e-15
1.830000000e-02	1.396383945e-01	-1.745767332e-01	5.551115123e-16
1.840000000e-02	1.396994218e-01	-1.759328897e-01	7.847321480e-15
1.850000000e-02	1.397607662e-01	-1.772930373e-01	2.131888400e-14
1.860000000e-02	1.398224274e-01	-1.786571303e-01	1.441922856e-14
1.870000000e-02	1.398844051e-01	-1.800251228e-01	1.010302952e-14
1.880000000e-02	1.399466990e-01	-1.813969691e-01	4.440892099e-16
1.890000000e-02	1.400093090e-01	-1.827726234e-01	1.887379142e-15
1.900000000e-02	1.400722348e-01	-1.841520397e-01	7.113229330e-15
1.910000000e-02	1.401354760e-01	-1.855351724e-01	7.273443782e-15
1.920000000e-02	1.401990324e-01	-1.869219754e-01	7.324106878e-15
1.930000000e-02	1.402629039e-01	-1.883124031e-01	7.229248576e-15
1.940000000e-02	1.403270900e-01	-1.897064096e-01	7.478157702e-15
1.950000000e-02	1.403915905e-01	-1.911039489e-01	1.221245327e-15
1.960000000e-02	1.404564051e-01	-1.925049754e-01	5.551115123e-16
1.970000000e-02	1.405215337e-01	-1.939094432e-01	1.422645866e-14
1.980000000e-02	1.405869758e-01	-1.953173065e-01	7.755684626e-15
1.990000000e-02	1.406527313e-01	-1.967285194e-01	8.881784197e-16
2.000000000e-02	1.407187998e-01	-1.981430363e-01	1.421258933e-14
2.010000000e-02	1.407851811e-01	-1.995608113e-01	8.045862169e-15
2.020000000e-02	1.408518749e-01	-2.009817988e-01	4.279934959e-14
2.030000000e-02	1.409188809e-01	-2.024059530e-01	7.160723346e-15
2.040000000e-02	1.409861988e-01	-2.038332282e-01	2.149622295e-14
2.050000000e-02	1.410538284e-01	-2.052635788e-01	7.105427358e-15
2.060000000e-02	1.411217693e-01	-2.066969592e-01	4.329869796e-15
2.070000000e-02	1.411900213e-01	-2.081333238e-01	7.105427358e-15
2.080000000e-02	1.412585841e-01	-2.095726271e-01	1.454688756e-14
2.090000000e-02	1.413274574e-01	-2.110148234e-01	7.108895958e-15
2.100000000e-02	1.413966408e-01	-2.124598675e-01	1.422645866e-14
2.110000000e-02	1.414661342e-01	-2.139077137e-01	0.000000000e+00
2.120000000e-02	1.415359373e-01	-2.153583169e-01	7.324106878e-15
2.130000000e-02	1.416060496e-01	-2.168116316e-01	1.110223025e-16
2.140000000e-02	1.416764710e-01	-2.182676125e-01	7.381104678e-15
4.690000000e-02	1.686876987e-01	-5.743431291e-01	4.648375333e-15
4.700000000e-02	1.688245067e-01	-5.754053026e-01	2.775557562e-16
4.710000000e-02	1.689615175e-01	-5.764637497e-01	6.175724725e-15
4.720000000e-02	1.690987305e-01	-5.775184680e-01	1.332267630e-15
4.730000000e-02	1.692361453e-01	-5.785694553e-01	2.220446049e-16
4.740000000e-02	1.693737615e-01	-5.796167096e-01	3.164135620e-15
4.750000000e-02	1.695115786e-01	-5.806602290e-01	3.580361673e-15
4.760000000e-02	1.696495961e-01	-5.817000117e-01	3.554447979e-15
4.770000000e-02	1.697878137e-01	-5.827360560e-01	3.814145308e-15
4.780000000e-02	1.699262308e-01	-5.837683605e-01	9.815903626e-15
4.790000000e-02	1.700648470e-01	-5.847969236e-01	7.113229330e-15
4.800000000e-02	1.702036619e-01	-5.858217442e-01	8.326672685e-16
4.810000000e-02	1.703426750e-01	-5.868428210e-01	1.784146018e-15
4.820000000e-02	1.704818858e-01	-5.878601530e-01	3.604807141e-15
4.830000000e-02	1.706212940e-01	-5.888737393e-01	5.455082837e-15
4.840000000e-02	1.707608989e-01	-5.898835790e-01	4.189529227e-15
4.850000000e-02	1.709007003e-01	-5.908896716e-01	3.563539207e-15
4.860000000e-02	1.710406977e-01	-5.918920163e-01	2.220446049e-16
4.870000000e-02	1.711808905e-01	-5.928906127e-01	1.779822905e-15
4.880000000e-02	1.713212784e-01	-5.938854605e-01	1.797910125e-15
4.890000000e-02	1.714618609e-01	-5.948765595e-01	1.172429157e-14
4.900000000e-02	1.716026376e-01	-5.958639095e-01	1.784146018e-15
4.910000000e-02	1.717436080e-01	-5.968475105e-01	1.831026719e-15
4.920000000e-02	1.718847717e-01	-5.978273627e-01	3.794299872e-15
4.930000000e-02	1.720261282e-01	-5.988034662e-01	1.797910125e-15
4.940000000e-02	1.721676770e-01	-5.997758214e-01	5.347542222e-15
4.950000000e-02	1.723094178e-01	-6.007444287e-01	2.800426170e-15
4.960000000e-02	1.724513501e-01	-6.017092886e-01	5.493080158e-15
4.970000000e-02	1.725934734e-01	-6.026704018e-01	1.784146018e-15
4.980000000e-02	1.727357873e-01	-6.036277691e-01	2.220446049e-15
4.990000000e-02	1.728782914e-01	-6.045813913e-01	2.038098551e-15
5.000000000e-02	1.730209852e-01	-6.055312693e-01	3.554447979e-15
5.010000000e-02	1.731638682e-01	-6.064774043e-01	1.917345842e-15
5.020000000e-02	1.733069401e-01	-6.074197974e-01	2.775557562e-16
5.030000000e-02	1.734502003e-01	-6.083584498e-01	3.972054645e-15
5.040000000e-02	1.735936485e-01	-6.092933630e-01	5.343218646e-15
5.050000000e-02	1.737372842e-01	-6.102245385e-01	6.175724725e-15
5.060000000e-02	1.738811070e-01	-6.111519777e-01	7.119291619e-15
5.070000000e-02	1.740251163e-01	-6.120756823e-01	3.614624288e-15
5.080000000e-02	1.741693119e-01	-6.129956542e-01	5.329359631e-15
5.090000000e-02	1.743136932e-01	-6.139118951e-01	1.110223025e-16
5.100000000e-02	1.744582598e-01	-6.148244071e-01	4.440892099e-16
5.110000000e-02	1.746030113e-01	-6.157331922e-01	2.124706989e-15
5.120000000e-02	1.747479471e-01	-6.166382525e-01	2.124706989e-15
5.130000000e-02	1.748930670e-01	-6.175395903e-01	8.892879497e-15
5.140000000e-02	1.750383704e-01	-6.184372079e-01	1.665334537e-15
5.150000000e-02	1.751838570e-01	-6.193311077e-01	1.075541985e-14
5.160000000e-02	1.753295262e-01	-6.202212922e-01	3.556614665e-15
5.170000000e-02	1.754753777e-01	-6.211077641e-01	3.436763472e-15
5.180000000e-02	1.756214110e-01	-6.219905260e-01	2.065880141e-15
5.190000000e-02	1.757676256e-01	-6.228695807e-01	2.164934898e-15
5.200000000e-02	1.759140212e-01	-6.237449310e-01	2.220446049e-16
5.210000000e-02	1.760605974e-01	-6.246165800e-01	1.845276169e-15
5.220000000e-02	1.762073535e-01	-6.254845307e-01	5.455082837e-15
5.230000000e-02	1.763542894e-01	-6.263487861e-01	3.580361673e-15
5.240000000e-02	1.765014044e-01	-6.272093495e-01	1.110223025e-16
5.250000000e-02	1.766486983e-01	-6.280662242e-01	3.604807141e-15
5.260000000e-02	1.767961704e-01	-6.289194136e-01	3.563539207e-15
5.270000000e-02	1.769438206e-01	-6.297689210e-01	1.897149936e-15
5.280000000e-02	1.770916482e-01	-6.306147501e-01	1.779822905e-15
5.290000000e-02	1.772396528e-01	-6.314569044e-01	1.777223989e-15
5.300000000e-02	1.773878341e-01	-6.322953877e-01	3.604807141e-15
5.310000000e-02	1.775361916e-01	-6.331302036e-01	2.288783399e-15
5.320000000e-02	1.776847249e-01	-6.339613561e-01	1.878377933e-15
5.330000000e-02	1.778334336e-01	-6.347888491e-01	5.407139475e-15
5.340000000e-02	1.779823172e-01	-6.356126866e-01	5.218048216e-15
5.350000000e-02	1.781313752e-01	-6.364328726e-01	5.224245250e-15
5.360000000e-02	1.782806074e-01	-6.372494112e-01	6.085247754e-15
5.370000000e-02	1.784300132e-01	-6.380623068e-01	1.790180837e-15
5.380000000e-02	1.785795923e-01	-6.388715636e-01	2.512147934e-15
5.390000000e-02	1.787293441e-01	-6.396771860e-01	7.116044607e-15
5.400000000e-02	1.788792684e-01	-6.404791784e-01	5.377709926e-15
5.410000000e-02	1.790293646e-01	-6.412775453e-01	5.343218646e-15
5.420000000e-02	1.791796323e-01	-6.420722913e-01	2.220446049e-15
5.430000000e-02	1.793300712e-01	-6.428634210e-01	2.011465542e-15
5.440000000e-02	1.794806808e-01	-6.436509392e-01	2.331468352e-15
5.450000000e-02	1.796314606e-01	-6.444348506e-01	3.110606378e-15
5.460000000e-02	1.797824104e-01	-6.452151601e-01	1.986027323e-15
5.470000000e-02	1.799335295e-01	-6.459918725e-01	4.222133059e-15
5.480000000e-02	1.800848177e-01	-6.467649930e-01	3.556614665e-15
5.490000000e-02	1.802362746e-01	-6.475345264e-01	5.024295868e-15
5.500000000e-02	1.803878996e-01	-6.483004780e-01	3.713961532e-15
5.510000000e-02	1.805396924e-01	-6.490628528e-01	1.887583216e-15
5.520000000e-02	1.806916525e-01	-6.498216561e-01	5.653423088e-15
5.530000000e-02	1.808437796e-01	-6.505768933e-01	5.493080158e-15
5.540000000e-02	1.809960733e-01	-6.513285696e-01	1.776356839e-15
5.550000000e-02	1.811485330e-01	-6.520766904e-01	1.831867991e-15
5.560000000e-02	1.813011585e-01	-6.528212613e-01	3.558022303e-15
5.570000000e-02	1.814539493e-01	-6.535622878e-01	7.229248576e-15
