# R [micrones]     Omega/c [1/micrones]    Im(epsi1)     Eq(det)$\mu$ = 0.3 eV, $E_p$ = 0.300 eV, modo = 2, $\epsilon_\infty$ = 3.9, $\gamma_{DL}$ = 0.01 eV, solve_det_sinkz_vs_R2.py
5.000000000e-03	1.688071717e+00	-3.581003900e-01	6.355287432e-14
6.000000000e-03	1.602319708e+00	-3.046357449e-01	3.314512409e-13
7.000000000e-03	1.530913320e+00	-2.691097797e-01	2.967313580e-13
8.000000000e-03	1.470479501e+00	-2.442741399e-01	4.825417036e-13
9.000000000e-03	1.418617832e+00	-2.262895953e-01	1.163751005e-13
1.000000000e-02	1.373580930e+00	-2.129419104e-01	2.220943373e-13
1.100000000e-02	1.334068908e+00	-2.028676734e-01	1.960119423e-13
1.200000000e-02	1.299095385e+00	-1.951827220e-01	6.546640164e-13
1.300000000e-02	1.267898366e+00	-1.892891193e-01	5.506706202e-14
1.400000000e-02	1.239879702e+00	-1.847682709e-01	3.983834181e-13
1.500000000e-02	1.214563086e+00	-1.813185402e-01	3.028154415e-13
1.600000000e-02	1.191564334e+00	-1.787171891e-01	6.998034367e-14
1.700000000e-02	1.170569975e+00	-1.767962678e-01	6.029155041e-14
1.800000000e-02	1.151321555e+00	-1.754268381e-01	6.156044013e-14
1.900000000e-02	1.133603970e+00	-1.745083526e-01	5.859285502e-14
2.000000000e-02	1.117236649e+00	-1.739613259e-01	1.457911802e-13
2.100000000e-02	1.102066826e+00	-1.737221658e-01	2.051442214e-13
2.200000000e-02	1.087964329e+00	-1.737394545e-01	2.087521623e-13
2.300000000e-02	1.074817507e+00	-1.739712268e-01	1.082011307e-13
2.400000000e-02	1.062530017e+00	-1.743829466e-01	2.424596946e-13
2.500000000e-02	1.051018254e+00	-1.749459799e-01	1.057827582e-13
2.600000000e-02	1.040209295e+00	-1.756364287e-01	2.858113442e-13
2.700000000e-02	1.030039225e+00	-1.764342289e-01	9.314552835e-14
2.800000000e-02	1.020451772e+00	-1.773224460e-01	1.688940802e-13
2.900000000e-02	1.011397185e+00	-1.782867186e-01	2.280288905e-13
3.000000000e-02	1.002831309e+00	-1.793148154e-01	2.814394126e-13
3.100000000e-02	9.947148077e-01	-1.803962802e-01	1.232177511e-13
3.200000000e-02	9.870125177e-01	-1.815221431e-01	1.291627951e-13
3.300000000e-02	9.796929041e-01	-1.826846866e-01	1.819552234e-13
3.400000000e-02	9.727275992e-01	-1.838772529e-01	8.888110215e-14
3.500000000e-02	9.660910100e-01	-1.850940850e-01	1.800440844e-13
3.600000000e-02	9.597599840e-01	-1.863301949e-01	2.245784425e-13
3.700000000e-02	9.537135221e-01	-1.875812532e-01	1.592151172e-13
3.800000000e-02	9.479325312e-01	-1.888434973e-01	7.496595489e-14
3.900000000e-02	9.423996108e-01	-1.901136529e-01	1.683937154e-13
4.000000000e-02	9.370988677e-01	-1.913888690e-01	2.706782022e-13
4.100000000e-02	9.320157545e-01	-1.926666610e-01	4.585100121e-14
4.200000000e-02	9.271369290e-01	-1.939448637e-01	1.768395352e-13
4.300000000e-02	9.224501305e-01	-1.952215900e-01	1.647523088e-13
4.400000000e-02	9.179440717e-01	-1.964951962e-01	7.268425883e-14
4.500000000e-02	9.136083427e-01	-1.977642511e-01	4.556494339e-13
4.600000000e-02	9.094333269e-01	-1.990275107e-01	1.442052784e-13
4.700000000e-02	9.054101263e-01	-2.002838949e-01	7.226782026e-13
4.800000000e-02	9.015304946e-01	-2.015324681e-01	6.395038818e-14
4.900000000e-02	8.977867784e-01	-2.027724219e-01	1.539728443e-13
5.000000000e-02	8.941718644e-01	-2.040030606e-01	8.548717290e-14
5.100000000e-02	8.906791321e-01	-2.052237872e-01	2.810773363e-13
5.200000000e-02	8.873024116e-01	-2.064340929e-01	5.865015177e-14
5.300000000e-02	8.840359455e-01	-2.076335463e-01	4.261081673e-13
5.400000000e-02	8.808743546e-01	-2.088217850e-01	1.759456916e-13
5.500000000e-02	8.778126076e-01	-2.099985072e-01	2.841806845e-13
5.600000000e-02	8.748459925e-01	-2.111634656e-01	1.137012025e-13
5.700000000e-02	8.719700920e-01	-2.123164604e-01	8.424603190e-14
5.800000000e-02	8.691807607e-01	-2.134573345e-01	6.417050666e-14
5.900000000e-02	8.664741037e-01	-2.145859686e-01	1.442415153e-13
6.000000000e-02	8.638464587e-01	-2.157022767e-01	2.316588554e-13
6.100000000e-02	8.612943779e-01	-2.168062023e-01	2.003585629e-13
6.200000000e-02	8.588146133e-01	-2.178977154e-01	1.030292350e-13
6.300000000e-02	8.564041014e-01	-2.189768092e-01	2.444613853e-13
6.400000000e-02	8.540599510e-01	-2.200434973e-01	7.220931861e-14
6.500000000e-02	8.517794307e-01	-2.210978116e-01	1.569759956e-13
6.600000000e-02	8.495599581e-01	-2.221398001e-01	1.191025093e-13
6.700000000e-02	8.473990897e-01	-2.231695247e-01	8.740776777e-14
6.800000000e-02	8.452945116e-01	-2.241870599e-01	8.940751197e-14
6.900000000e-02	8.432440311e-01	-2.251924910e-01	1.563170363e-13
7.000000000e-02	8.412455684e-01	-2.261859127e-01	3.939653427e-14
7.100000000e-02	8.392971500e-01	-2.271674282e-01	1.262292332e-13
7.200000000e-02	8.373969014e-01	-2.281371475e-01	1.996937341e-13
7.300000000e-02	8.355430413e-01	-2.290951873e-01	1.151849299e-13
7.400000000e-02	8.337338758e-01	-2.300416690e-01	5.773170403e-14
7.500000000e-02	8.319677926e-01	-2.309767191e-01	1.133762367e-13
7.600000000e-02	8.302432570e-01	-2.319004674e-01	1.719736630e-13
7.700000000e-02	8.285588064e-01	-2.328130470e-01	1.373988350e-13
7.800000000e-02	8.269130467e-01	-2.337145938e-01	1.142675845e-13
7.900000000e-02	8.253046477e-01	-2.346052455e-01	7.706707309e-14
8.000000000e-02	8.237323403e-01	-2.354851415e-01	9.625641627e-14
8.100000000e-02	8.221949122e-01	-2.363544225e-01	6.512544037e-14
8.200000000e-02	8.206912053e-01	-2.372132298e-01	8.719232847e-14
8.300000000e-02	8.192201123e-01	-2.380617054e-01	9.621888934e-14
8.400000000e-02	8.177805741e-01	-2.388999915e-01	4.972919320e-14
8.500000000e-02	8.163715774e-01	-2.397282302e-01	8.727371678e-14
8.600000000e-02	8.149921519e-01	-2.405465633e-01	8.606649550e-14
8.700000000e-02	8.136413681e-01	-2.413551321e-01	3.375119080e-14
8.800000000e-02	8.123183353e-01	-2.421540773e-01	7.210932732e-14
8.900000000e-02	8.110221996e-01	-2.429435386e-01	6.836903114e-14
9.000000000e-02	8.097521419e-01	-2.437236551e-01	6.350825062e-14
9.100000000e-02	8.085073760e-01	-2.444945644e-01	7.833740664e-14
9.200000000e-02	7.676423943e-01	-2.572874910e-01	1.454260963e-13
9.300000000e-02	7.676423943e-01	-2.572874910e-01	1.266050218e-13
9.400000000e-02	7.676423943e-01	-2.572874910e-01	8.995571541e-14
9.500000000e-02	7.676423943e-01	-2.572874910e-01	8.618284537e-14
9.600000000e-02	7.676423943e-01	-2.572874910e-01	8.254678162e-14
9.700000000e-02	7.676423943e-01	-2.572874910e-01	7.904151668e-14
9.800000000e-02	7.676423943e-01	-2.572874910e-01	7.566136068e-14
9.900000000e-02	7.676423943e-01	-2.572874910e-01	7.240092173e-14
1.000000000e-01	7.676423943e-01	-2.572874910e-01	6.925508782e-14
1.010000000e-01	7.676423943e-01	-2.572874910e-01	6.621900983e-14
1.020000000e-01	7.676423943e-01	-2.572874910e-01	6.328808585e-14
1.030000000e-01	7.676423943e-01	-2.572874910e-01	6.045794660e-14
1.040000000e-01	7.676423943e-01	-2.572874910e-01	5.772444174e-14
1.050000000e-01	7.676423943e-01	-2.572874910e-01	5.508362726e-14
1.060000000e-01	7.676423943e-01	-2.572874910e-01	5.253175366e-14
1.070000000e-01	7.676423943e-01	-2.572874910e-01	5.006525498e-14
1.080000000e-01	7.676423943e-01	-2.572874910e-01	4.768073853e-14
1.090000000e-01	7.676423943e-01	-2.572874910e-01	4.537497537e-14
1.100000000e-01	7.676423943e-01	-2.572874910e-01	4.314489145e-14
1.110000000e-01	7.676423943e-01	-2.572874910e-01	4.098755936e-14
1.120000000e-01	7.676423943e-01	-2.572874910e-01	3.890019065e-14
1.130000000e-01	7.676423943e-01	-2.572874910e-01	3.688012879e-14
1.140000000e-01	7.676423943e-01	-2.572874910e-01	3.492484257e-14
1.150000000e-01	7.676423943e-01	-2.572874910e-01	3.303192014e-14
1.160000000e-01	7.676423943e-01	-2.572874910e-01	3.119906351e-14
1.170000000e-01	7.676423943e-01	-2.572874910e-01	2.942408366e-14
1.180000000e-01	7.676423943e-01	-2.572874910e-01	2.770489618e-14
1.190000000e-01	7.676423943e-01	-2.572874910e-01	2.603951757e-14
1.200000000e-01	7.676423943e-01	-2.572874910e-01	2.442606221e-14
1.210000000e-01	7.676423943e-01	-2.572874910e-01	2.286274017e-14
1.220000000e-01	7.676423943e-01	-2.572874910e-01	2.134785607e-14
1.230000000e-01	7.676423943e-01	-2.572874910e-01	1.987980911e-14
1.240000000e-01	7.676423943e-01	-2.572874910e-01	1.845709494e-14
1.250000000e-01	7.676423943e-01	-2.572874910e-01	1.707830970e-14
1.260000000e-01	7.676423943e-01	-2.572874910e-01	1.574215742e-14
1.270000000e-01	7.676423943e-01	-2.572874910e-01	1.444746221e-14
1.280000000e-01	7.676423943e-01	-2.572874910e-01	1.132282816e-14
1.290000000e-01	7.676423943e-01	-2.572874910e-01	1.028031533e-14
1.300000000e-01	7.676423943e-01	-2.572874910e-01	9.271194049e-15
1.310000000e-01	7.676423943e-01	-2.572874910e-01	8.295165179e-15
1.320000000e-01	7.676423943e-01	-2.572874910e-01	7.352299583e-15
1.330000000e-01	7.676423943e-01	-2.572874910e-01	6.443234931e-15
1.340000000e-01	7.676423943e-01	-2.572874910e-01	5.569531522e-15
1.350000000e-01	7.676423943e-01	-2.572874910e-01	4.734349836e-15
1.360000000e-01	7.676423943e-01	-2.572874910e-01	3.943817747e-15
1.370000000e-01	7.676423943e-01	-2.572874910e-01	2.501727695e-15
1.380000000e-01	7.676423943e-01	-2.572874910e-01	1.992931133e-15
1.390000000e-01	7.676423943e-01	-2.572874910e-01	1.586156377e-15
1.400000000e-01	7.676423943e-01	-2.572874910e-01	1.350877584e-15
1.410000000e-01	7.676423943e-01	-2.572874910e-01	1.355404705e-15
1.420000000e-01	7.676423943e-01	-2.572874910e-01	1.579646822e-15
1.430000000e-01	7.676423943e-01	-2.572874910e-01	1.935440009e-15
1.440000000e-01	7.676423943e-01	-2.572874910e-01	2.353569661e-15
1.450000000e-01	7.676423943e-01	-2.572874910e-01	2.798038969e-15
1.460000000e-01	7.676423943e-01	-2.572874910e-01	3.251454831e-15
1.470000000e-01	7.676423943e-01	-2.572874910e-01	3.705118301e-15
1.480000000e-01	7.676423943e-01	-2.572874910e-01	4.154445869e-15
1.490000000e-01	7.676423943e-01	-2.572874910e-01	4.596919041e-15
1.500000000e-01	7.676423943e-01	-2.572874910e-01	5.031122235e-15
1.510000000e-01	7.676423943e-01	-2.572874910e-01	5.456262626e-15
1.520000000e-01	7.676423943e-01	-2.572874910e-01	5.871915836e-15
1.530000000e-01	7.676423943e-01	-2.572874910e-01	6.277883899e-15
1.540000000e-01	7.676423943e-01	-2.572874910e-01	6.674112198e-15
1.550000000e-01	7.676423943e-01	-2.572874910e-01	7.060638919e-15
1.560000000e-01	7.676423943e-01	-2.572874910e-01	7.437563232e-15
1.570000000e-01	7.676423943e-01	-2.572874910e-01	7.805024667e-15
1.580000000e-01	7.676423943e-01	-2.572874910e-01	8.163189405e-15
1.590000000e-01	7.676423943e-01	-2.572874910e-01	8.512240976e-15
1.600000000e-01	7.676423943e-01	-2.572874910e-01	8.852373833e-15
1.610000000e-01	7.676423943e-01	-2.572874910e-01	9.183788844e-15
1.620000000e-01	7.676423943e-01	-2.572874910e-01	9.506690094e-15
1.630000000e-01	7.676423943e-01	-2.572874910e-01	9.821282595e-15
1.640000000e-01	7.676423943e-01	-2.572874910e-01	1.012777065e-14
1.650000000e-01	7.676423943e-01	-2.572874910e-01	1.042635664e-14
1.660000000e-01	7.676423943e-01	-2.572874910e-01	1.071724022e-14
1.670000000e-01	7.676423943e-01	-2.572874910e-01	1.100061764e-14
1.680000000e-01	7.676423943e-01	-2.572874910e-01	1.127668138e-14
1.690000000e-01	7.676423943e-01	-2.572874910e-01	1.154561979e-14
1.700000000e-01	7.676423943e-01	-2.572874910e-01	1.180761696e-14
1.710000000e-01	7.676423943e-01	-2.572874910e-01	1.206285255e-14
1.720000000e-01	7.676423943e-01	-2.572874910e-01	1.231150174e-14
1.730000000e-01	7.676423943e-01	-2.572874910e-01	1.255373522e-14
1.740000000e-01	7.676423943e-01	-2.572874910e-01	1.278971922e-14
1.750000000e-01	7.676423943e-01	-2.572874910e-01	1.301961549e-14
1.760000000e-01	7.676423943e-01	-2.572874910e-01	1.324358144e-14
1.770000000e-01	7.676423943e-01	-2.572874910e-01	1.346177014e-14
1.780000000e-01	7.676423943e-01	-2.572874910e-01	1.367433045e-14
1.790000000e-01	7.676423943e-01	-2.572874910e-01	1.388140709e-14
1.800000000e-01	7.676423943e-01	-2.572874910e-01	1.408314074e-14
1.810000000e-01	7.676423943e-01	-2.572874910e-01	1.427966813e-14
1.820000000e-01	7.676423943e-01	-2.572874910e-01	1.447112217e-14
1.830000000e-01	7.676423943e-01	-2.572874910e-01	1.465763201e-14
1.840000000e-01	7.676423943e-01	-2.572874910e-01	1.483932319e-14
1.850000000e-01	7.676423943e-01	-2.572874910e-01	1.501631769e-14
1.860000000e-01	7.676423943e-01	-2.572874910e-01	1.518873408e-14
1.870000000e-01	7.676423943e-01	-2.572874910e-01	1.535668759e-14
1.880000000e-01	7.676423943e-01	-2.572874910e-01	1.552029021e-14
1.890000000e-01	7.676423943e-01	-2.572874910e-01	1.567965080e-14
1.900000000e-01	7.676423943e-01	-2.572874910e-01	1.583487518e-14
1.910000000e-01	7.676423943e-01	-2.572874910e-01	1.598606619e-14
1.920000000e-01	7.676423943e-01	-2.572874910e-01	1.613332384e-14
1.930000000e-01	7.676423943e-01	-2.572874910e-01	1.627674534e-14
1.940000000e-01	7.676423943e-01	-2.572874910e-01	1.641642522e-14
1.950000000e-01	7.676423943e-01	-2.572874910e-01	1.655245539e-14
1.960000000e-01	7.676423943e-01	-2.572874910e-01	1.668492524e-14
1.970000000e-01	7.676423943e-01	-2.572874910e-01	1.681392168e-14
1.980000000e-01	7.676423943e-01	-2.572874910e-01	1.693952927e-14
1.990000000e-01	7.676423943e-01	-2.572874910e-01	1.706183025e-14
2.000000000e-01	7.676423943e-01	-2.572874910e-01	1.718090463e-14
2.010000000e-01	7.676423943e-01	-2.572874910e-01	1.729683024e-14
2.020000000e-01	7.676423943e-01	-2.572874910e-01	1.740968282e-14
2.030000000e-01	7.676423943e-01	-2.572874910e-01	1.751953605e-14
2.040000000e-01	7.676423943e-01	-2.572874910e-01	1.762646166e-14
2.050000000e-01	7.676423943e-01	-2.572874910e-01	1.773052945e-14
2.060000000e-01	7.676423943e-01	-2.572874910e-01	1.783180735e-14
2.070000000e-01	7.676423943e-01	-2.572874910e-01	1.793036151e-14
2.080000000e-01	7.676423943e-01	-2.572874910e-01	1.802625630e-14
2.090000000e-01	7.676423943e-01	-2.572874910e-01	1.811955441e-14
2.100000000e-01	7.676423943e-01	-2.572874910e-01	1.821031689e-14
2.110000000e-01	7.676423943e-01	-2.572874910e-01	1.829860317e-14
2.120000000e-01	7.676423943e-01	-2.572874910e-01	1.838447115e-14
2.130000000e-01	7.676423943e-01	-2.572874910e-01	1.846797721e-14
2.140000000e-01	7.676423943e-01	-2.572874910e-01	1.854917628e-14
2.150000000e-01	7.676423943e-01	-2.572874910e-01	1.862812186e-14
2.160000000e-01	7.676423943e-01	-2.572874910e-01	1.870486609e-14
2.170000000e-01	7.676423943e-01	-2.572874910e-01	1.877945976e-14
2.180000000e-01	7.676423943e-01	-2.572874910e-01	1.885195236e-14
2.190000000e-01	7.676423943e-01	-2.572874910e-01	1.892239213e-14
2.200000000e-01	7.676423943e-01	-2.572874910e-01	1.899082609e-14
2.210000000e-01	7.676423943e-01	-2.572874910e-01	1.905730005e-14
2.220000000e-01	7.676423943e-01	-2.572874910e-01	1.912185869e-14
2.230000000e-01	7.676423943e-01	-2.572874910e-01	1.918454556e-14
2.240000000e-01	7.676423943e-01	-2.572874910e-01	1.924540311e-14
2.250000000e-01	7.676423943e-01	-2.572874910e-01	1.930447274e-14
2.260000000e-01	7.676423943e-01	-2.572874910e-01	1.936179482e-14
2.270000000e-01	7.676423943e-01	-2.572874910e-01	1.941740873e-14
2.280000000e-01	7.676423943e-01	-2.572874910e-01	1.947135286e-14
2.290000000e-01	7.676423943e-01	-2.572874910e-01	1.952366467e-14
2.300000000e-01	7.676423943e-01	-2.572874910e-01	1.957438069e-14
2.310000000e-01	7.676423943e-01	-2.572874910e-01	1.962353656e-14
2.320000000e-01	7.676423943e-01	-2.572874910e-01	1.967116706e-14
2.330000000e-01	7.676423943e-01	-2.572874910e-01	1.971730612e-14
2.340000000e-01	7.676423943e-01	-2.572874910e-01	1.976198685e-14
2.350000000e-01	7.676423943e-01	-2.572874910e-01	1.980524156e-14
2.360000000e-01	7.676423943e-01	-2.572874910e-01	1.984710178e-14
2.370000000e-01	7.676423943e-01	-2.572874910e-01	1.988759830e-14
2.380000000e-01	7.676423943e-01	-2.572874910e-01	1.992676115e-14
2.390000000e-01	7.676423943e-01	-2.572874910e-01	1.996461966e-14
2.400000000e-01	7.676423943e-01	-2.572874910e-01	2.000120246e-14
2.410000000e-01	7.676423943e-01	-2.572874910e-01	2.003653751e-14
2.420000000e-01	7.676423943e-01	-2.572874910e-01	2.007065210e-14
2.430000000e-01	7.676423943e-01	-2.572874910e-01	2.010357288e-14
2.440000000e-01	7.676423943e-01	-2.572874910e-01	2.013532589e-14
2.450000000e-01	7.676423943e-01	-2.572874910e-01	2.016593654e-14
2.460000000e-01	7.676423943e-01	-2.572874910e-01	2.019542965e-14
2.470000000e-01	7.676423943e-01	-2.572874910e-01	2.022382949e-14
2.480000000e-01	7.676423943e-01	-2.572874910e-01	2.025115973e-14
2.490000000e-01	7.676423943e-01	-2.572874910e-01	2.027744352e-14
2.500000000e-01	7.676423943e-01	-2.572874910e-01	2.030270347e-14
2.510000000e-01	7.676423943e-01	-2.572874910e-01	2.032696167e-14
2.520000000e-01	7.676423943e-01	-2.572874910e-01	2.035023970e-14
2.530000000e-01	7.676423943e-01	-2.572874910e-01	2.037255866e-14
2.540000000e-01	7.676423943e-01	-2.572874910e-01	2.039393915e-14
2.550000000e-01	7.676423943e-01	-2.572874910e-01	2.041440132e-14
2.560000000e-01	7.676423943e-01	-2.572874910e-01	2.043396486e-14
2.570000000e-01	7.676423943e-01	-2.572874910e-01	2.045264902e-14
2.580000000e-01	7.676423943e-01	-2.572874910e-01	2.047047260e-14
2.590000000e-01	7.676423943e-01	-2.572874910e-01	2.048745400e-14
2.600000000e-01	7.676423943e-01	-2.572874910e-01	2.050361119e-14
2.610000000e-01	7.676423943e-01	-2.572874910e-01	2.051896176e-14
2.620000000e-01	7.676423943e-01	-2.572874910e-01	2.053352288e-14
2.630000000e-01	7.676423943e-01	-2.572874910e-01	2.054731136e-14
2.640000000e-01	7.676423943e-01	-2.572874910e-01	2.056034363e-14
2.650000000e-01	7.676423943e-01	-2.572874910e-01	2.057263577e-14
2.660000000e-01	7.676423943e-01	-2.572874910e-01	2.058420349e-14
2.670000000e-01	7.676423943e-01	-2.572874910e-01	2.059506216e-14
2.680000000e-01	7.676423943e-01	-2.572874910e-01	2.060522682e-14
2.690000000e-01	7.676423943e-01	-2.572874910e-01	2.061471218e-14
2.700000000e-01	7.676423943e-01	-2.572874910e-01	2.062353262e-14
2.710000000e-01	7.676423943e-01	-2.572874910e-01	2.063170221e-14
2.720000000e-01	7.676423943e-01	-2.572874910e-01	2.063923472e-14
2.730000000e-01	7.676423943e-01	-2.572874910e-01	2.064614363e-14
2.740000000e-01	7.676423943e-01	-2.572874910e-01	2.065244212e-14
2.750000000e-01	7.676423943e-01	-2.572874910e-01	2.065814308e-14
2.760000000e-01	7.676423943e-01	-2.572874910e-01	2.066325913e-14
2.770000000e-01	7.676423943e-01	-2.572874910e-01	2.066780263e-14
2.780000000e-01	7.676423943e-01	-2.572874910e-01	2.067178566e-14
2.790000000e-01	7.676423943e-01	-2.572874910e-01	2.067522005e-14
2.800000000e-01	7.676423943e-01	-2.572874910e-01	2.067811739e-14
2.810000000e-01	7.676423943e-01	-2.572874910e-01	2.068048899e-14
2.820000000e-01	7.676423943e-01	-2.572874910e-01	2.068234597e-14
2.830000000e-01	7.676423943e-01	-2.572874910e-01	2.068369917e-14
2.840000000e-01	7.676423943e-01	-2.572874910e-01	2.068455922e-14
2.850000000e-01	7.676423943e-01	-2.572874910e-01	2.068493655e-14
2.860000000e-01	7.676423943e-01	-2.572874910e-01	2.068484132e-14
2.870000000e-01	7.676423943e-01	-2.572874910e-01	2.068428353e-14
2.880000000e-01	7.676423943e-01	-2.572874910e-01	2.068327294e-14
2.890000000e-01	7.676423943e-01	-2.572874910e-01	2.068181911e-14
2.900000000e-01	7.676423943e-01	-2.572874910e-01	2.067993141e-14
2.910000000e-01	7.676423943e-01	-2.572874910e-01	2.067761902e-14
2.920000000e-01	7.676423943e-01	-2.572874910e-01	2.067489092e-14
2.930000000e-01	7.676423943e-01	-2.572874910e-01	2.067175590e-14
2.940000000e-01	7.676423943e-01	-2.572874910e-01	2.066822259e-14
2.950000000e-01	7.676423943e-01	-2.572874910e-01	2.066429941e-14
2.960000000e-01	7.676423943e-01	-2.572874910e-01	2.065999465e-14
2.970000000e-01	7.676423943e-01	-2.572874910e-01	2.065531639e-14
2.980000000e-01	7.676423943e-01	-2.572874910e-01	2.065027258e-14
2.990000000e-01	7.676423943e-01	-2.572874910e-01	2.064487097e-14
3.000000000e-01	7.676423943e-01	-2.572874910e-01	2.063911918e-14
3.010000000e-01	7.676423943e-01	-2.572874910e-01	2.063302468e-14
3.020000000e-01	7.676423943e-01	-2.572874910e-01	2.062659477e-14
3.030000000e-01	7.676423943e-01	-2.572874910e-01	2.061983660e-14
3.040000000e-01	7.676423943e-01	-2.572874910e-01	2.061275720e-14
3.050000000e-01	7.676423943e-01	-2.572874910e-01	2.060536344e-14
3.060000000e-01	7.676423943e-01	-2.572874910e-01	2.059766205e-14
3.070000000e-01	7.676423943e-01	-2.572874910e-01	2.058965964e-14
3.080000000e-01	7.676423943e-01	-2.572874910e-01	2.058136268e-14
