# R [micrones]     Omega/c [1/micrones]    Im(epsi1)     Eq(det)$\mu$ = 0.3 eV, $E_p$ = 0.300 eV, modo = 4, $\epsilon_\infty$ = 3.9, $\gamma_{DL}$ = 0.01 eV, solve_det_sinkz_vs_R2.py
5.000000000e-03	2.002536050e+00	-7.400962549e-01	3.410605132e-13
6.000000000e-03	1.924151709e+00	-6.033183384e-01	1.546308171e-12
7.000000000e-03	1.854757534e+00	-5.108609803e-01	5.684341886e-13
8.000000000e-03	1.793008588e+00	-4.448585961e-01	1.607774678e-13
1.000000000e-02	1.688071109e+00	-3.580979409e-01	3.422427022e-13
1.100000000e-02	1.643141019e+00	-3.284455782e-01	2.291431471e-13
1.200000000e-02	1.602319001e+00	-3.046332172e-01	1.607774678e-13
1.300000000e-02	1.565060951e+00	-2.851936353e-01	3.317557437e-13
1.400000000e-02	1.530912548e+00	-2.691071885e-01	1.324890720e-12
1.500000000e-02	1.499492438e+00	-2.556446544e-01	2.382173337e-13
1.600000000e-02	1.470478700e+00	-2.442714946e-01	3.243687903e-13
1.700000000e-02	1.443598019e+00	-2.345873986e-01	1.847411113e-13
1.800000000e-02	1.418617033e+00	-2.262869016e-01	1.847411113e-13
1.900000000e-02	1.395335387e+00	-2.191330195e-01	7.105427358e-15
2.000000000e-02	1.373580160e+00	-2.129391712e-01	6.720171806e-13
2.100000000e-02	1.353201345e+00	-2.075565123e-01	6.394884622e-14
2.200000000e-02	1.334068195e+00	-2.028648900e-01	6.355287432e-14
2.300000000e-02	1.316066222e+00	-1.987662718e-01	6.874294412e-13
2.400000000e-02	1.299094752e+00	-1.951798941e-01	1.024759307e-13
2.500000000e-02	1.283064888e+00	-1.920386322e-01	1.191086669e-13
2.600000000e-02	1.267897836e+00	-1.892862453e-01	5.598427493e-13
2.700000000e-02	1.253523496e+00	-1.868752637e-01	3.291776632e-13
2.800000000e-02	1.239879294e+00	-1.847653481e-01	2.295833841e-13
2.900000000e-02	1.226909186e+00	-1.829220042e-01	2.481819080e-13
3.000000000e-02	1.214562820e+00	-1.813155650e-01	6.674942991e-14
3.100000000e-02	1.202794831e+00	-1.799203791e-01	2.242716463e-13
3.200000000e-02	1.191564228e+00	-1.787141569e-01	3.035439898e-13
3.300000000e-02	1.180833875e+00	-1.776774410e-01	2.192631729e-13
3.400000000e-02	1.170570044e+00	-1.767931735e-01	1.464821376e-12
3.500000000e-02	1.160742031e+00	-1.760463400e-01	7.983731029e-14
3.600000000e-02	1.151321816e+00	-1.754236758e-01	1.223624942e-13
3.700000000e-02	1.142283778e+00	-1.749134211e-01	2.149391776e-13
3.800000000e-02	1.133604437e+00	-1.745051159e-01	4.493866840e-14
3.900000000e-02	1.125262234e+00	-1.741894280e-01	2.313359544e-13
4.000000000e-02	1.117237336e+00	-1.739580078e-01	5.684341886e-14
4.100000000e-02	1.109511464e+00	-1.738033641e-01	3.019806627e-14
4.200000000e-02	1.102067745e+00	-1.737187589e-01	4.158344748e-14
4.300000000e-02	1.094890573e+00	-1.736981176e-01	9.379433253e-14
4.400000000e-02	1.087965493e+00	-1.737359509e-01	1.205831008e-13
4.500000000e-02	1.081279097e+00	-1.738272879e-01	8.286281023e-14
4.600000000e-02	1.074818928e+00	-1.739676183e-01	2.672118394e-13
4.700000000e-02	1.068573397e+00	-1.741528419e-01	3.035491874e-13
4.800000000e-02	1.062531706e+00	-1.743792246e-01	6.125064104e-13
4.900000000e-02	1.056683784e+00	-1.746433599e-01	3.177643716e-14
5.000000000e-02	1.051020223e+00	-1.749421355e-01	4.155042561e-13
5.100000000e-02	1.045532225e+00	-1.752727031e-01	6.824540120e-14
5.200000000e-02	1.040211554e+00	-1.756324527e-01	8.526975410e-14
5.300000000e-02	1.035050488e+00	-1.760189892e-01	1.351082579e-13
5.400000000e-02	1.030041783e+00	-1.764301120e-01	1.847496513e-13
5.500000000e-02	1.025178633e+00	-1.768637965e-01	1.725993720e-13
5.600000000e-02	1.020454639e+00	-1.773181784e-01	1.053343659e-13
5.700000000e-02	1.015863777e+00	-1.777915385e-01	1.093036981e-13
5.800000000e-02	1.011400372e+00	-1.782822904e-01	2.131110040e-13
5.900000000e-02	1.007059071e+00	-1.787889682e-01	6.092282461e-14
6.000000000e-02	1.002834824e+00	-1.793102166e-01	9.884352438e-14
6.100000000e-02	9.987228572e-01	-1.798447813e-01	1.868555155e-13
6.200000000e-02	9.947186592e-01	-1.803915004e-01	2.096270420e-13
6.300000000e-02	9.908179597e-01	-1.809492970e-01	6.912402262e-14
6.400000000e-02	9.870167148e-01	-1.815171720e-01	5.123796534e-14
6.500000000e-02	9.833110917e-01	-1.820941980e-01	2.445460210e-13
6.600000000e-02	9.796974553e-01	-1.826795136e-01	9.460246810e-14
6.700000000e-02	9.761723548e-01	-1.832723183e-01	9.352902532e-14
6.800000000e-02	9.727325126e-01	-1.838718674e-01	2.169356472e-13
6.900000000e-02	9.693748133e-01	-1.844774682e-01	1.166763585e-13
7.000000000e-02	9.660962937e-01	-1.850884761e-01	9.313600010e-14
7.100000000e-02	9.628941332e-01	-1.857042903e-01	1.108516410e-13
7.200000000e-02	9.597656458e-01	-1.863243516e-01	9.947697427e-14
7.300000000e-02	9.567082717e-01	-1.869481383e-01	1.787424590e-13
7.400000000e-02	9.537195697e-01	-1.875751645e-01	7.503399417e-14
7.500000000e-02	9.507972110e-01	-1.882049766e-01	1.509380765e-13
7.600000000e-02	9.479389722e-01	-1.888371519e-01	5.493080158e-14
7.700000000e-02	9.451427293e-01	-1.894712957e-01	8.513550374e-14
7.800000000e-02	9.424064526e-01	-1.901070398e-01	1.224963959e-13
7.900000000e-02	9.397282010e-01	-1.907440404e-01	3.747228858e-14
8.000000000e-02	9.371061175e-01	-1.913819766e-01	2.006311548e-13
8.100000000e-02	9.345384245e-01	-1.920205491e-01	2.217317457e-13
8.200000000e-02	9.320234196e-01	-1.926594780e-01	1.138255310e-13
8.300000000e-02	9.295594714e-01	-1.932985024e-01	3.593898081e-13
8.400000000e-02	9.271450163e-01	-1.939373786e-01	1.023257094e-13
8.500000000e-02	9.247785545e-01	-1.945758789e-01	5.622641178e-14
8.600000000e-02	9.224586471e-01	-1.952137912e-01	1.219621303e-13
8.700000000e-02	9.201839125e-01	-1.958509172e-01	1.457845855e-13
8.800000000e-02	9.179530242e-01	-1.964870719e-01	1.126326593e-13
8.900000000e-02	9.157647078e-01	-1.971220831e-01	1.813473782e-13
9.000000000e-02	9.136177380e-01	-1.977557898e-01	7.398618199e-14
9.100000000e-02	9.115109371e-01	-1.983880421e-01	1.356997768e-13
9.200000000e-02	9.094431718e-01	-1.990187004e-01	5.978074202e-14
9.300000000e-02	9.074133517e-01	-1.996476347e-01	7.716968496e-14
9.400000000e-02	9.054204272e-01	-2.002747239e-01	7.288612043e-14
9.500000000e-02	9.034633873e-01	-2.008998553e-01	5.666663585e-14
9.600000000e-02	9.015412580e-01	-2.015229243e-01	2.639639003e-13
9.700000000e-02	8.996531008e-01	-2.021438338e-01	9.840985828e-14
9.800000000e-02	8.977980108e-01	-2.027624936e-01	1.461723193e-13
9.900000000e-02	8.959751153e-01	-2.033788199e-01	1.499365135e-13
1.000000000e-01	8.941835723e-01	-2.039927354e-01	9.301840476e-14
1.010000000e-01	8.924225692e-01	-2.046041686e-01	5.991759596e-14
1.020000000e-01	8.906913217e-01	-2.052130533e-01	2.008787116e-13
1.030000000e-01	8.889890723e-01	-2.058193284e-01	1.106807165e-13
1.040000000e-01	8.873150892e-01	-2.064229379e-01	1.074398220e-13
1.050000000e-01	8.856686653e-01	-2.070238303e-01	9.265009036e-14
1.060000000e-01	8.840491172e-01	-2.076219581e-01	1.401434396e-13
1.070000000e-01	8.824557840e-01	-2.082172782e-01	1.397241590e-13
1.080000000e-01	8.808880266e-01	-2.088097512e-01	1.570526137e-13
1.090000000e-01	8.793452268e-01	-2.093993411e-01	1.272891396e-13
1.100000000e-01	8.778267860e-01	-2.099860155e-01	3.441333221e-14
1.110000000e-01	8.763321251e-01	-2.105697451e-01	1.262512508e-13
1.120000000e-01	8.748606834e-01	-2.111505036e-01	1.245796884e-13
1.130000000e-01	8.734119176e-01	-2.117282674e-01	8.913827453e-14
1.140000000e-01	8.719853015e-01	-2.123030156e-01	7.950344211e-14
1.150000000e-01	8.705803252e-01	-2.128747300e-01	5.916405478e-14
1.160000000e-01	8.691964946e-01	-2.134433945e-01	4.240299871e-14
1.170000000e-01	8.678333304e-01	-2.140089953e-01	8.716042714e-14
1.180000000e-01	8.664903680e-01	-2.145715207e-01	2.566897098e-14
1.190000000e-01	8.651671568e-01	-2.151309610e-01	6.097712354e-14
1.200000000e-01	8.638632593e-01	-2.156873082e-01	6.146528464e-14
1.210000000e-01	8.625782513e-01	-2.162405562e-01	9.138263520e-14
1.220000000e-01	8.613117208e-01	-2.167907006e-01	5.364123859e-14
1.230000000e-01	8.600632678e-01	-2.173377382e-01	5.042933746e-14
1.240000000e-01	8.588325041e-01	-2.178816677e-01	5.927229005e-14
1.250000000e-01	8.576190524e-01	-2.184224887e-01	8.947991222e-14
1.260000000e-01	8.564225461e-01	-2.189602025e-01	1.493043283e-13
1.270000000e-01	8.552426291e-01	-2.194948114e-01	7.173939553e-14
1.280000000e-01	8.540789553e-01	-2.200263189e-01	4.792255534e-14
1.290000000e-01	8.529311881e-01	-2.205547294e-01	5.421720459e-14
1.300000000e-01	8.517990004e-01	-2.210800484e-01	8.404212301e-14
1.310000000e-01	8.506820738e-01	-2.216022826e-01	5.490970482e-14
1.320000000e-01	8.495800989e-01	-2.221214391e-01	6.562782231e-14
1.330000000e-01	8.484927744e-01	-2.226375262e-01	4.416846181e-14
1.340000000e-01	8.474198073e-01	-2.231505529e-01	4.063207719e-14
1.350000000e-01	8.463609123e-01	-2.236605287e-01	5.373698067e-14
1.360000000e-01	8.453158118e-01	-2.241674640e-01	4.777472344e-14
1.370000000e-01	8.442842352e-01	-2.246713698e-01	5.966932352e-14
1.380000000e-01	8.432659194e-01	-2.251722577e-01	8.940949804e-14
1.390000000e-01	8.422606078e-01	-2.256701399e-01	4.553136159e-14
1.400000000e-01	8.412680505e-01	-2.261650288e-01	4.638308807e-14
1.410000000e-01	8.402880042e-01	-2.266569378e-01	3.354729519e-14
1.420000000e-01	8.393202315e-01	-2.271458803e-01	4.208302718e-14
1.430000000e-01	8.383645013e-01	-2.276318703e-01	5.018726926e-14
1.440000000e-01	8.374205880e-01	-2.281149222e-01	2.902719712e-14
1.450000000e-01	8.364882719e-01	-2.285950507e-01	3.923096222e-14
1.460000000e-01	8.355673386e-01	-2.290722709e-01	3.573832964e-14
1.470000000e-01	8.346575791e-01	-2.295465981e-01	7.831661967e-14
1.480000000e-01	8.337587893e-01	-2.300180480e-01	9.360544730e-15
1.490000000e-01	8.328707703e-01	-2.304866365e-01	3.539532433e-14
1.500000000e-01	8.319933280e-01	-2.309523797e-01	5.050765153e-14
1.510000000e-01	8.311262728e-01	-2.314152940e-01	4.498603454e-14
1.520000000e-01	8.302694197e-01	-2.318753959e-01	6.317415342e-14
1.530000000e-01	8.294225882e-01	-2.323327021e-01	5.203678206e-14
1.540000000e-01	8.285856020e-01	-2.327872296e-01	3.860249807e-14
1.550000000e-01	8.277582889e-01	-2.332389953e-01	1.887379142e-14
1.560000000e-01	8.269404807e-01	-2.336880165e-01	5.713564623e-14
1.570000000e-01	8.261320131e-01	-2.341343103e-01	2.432973714e-14
1.580000000e-01	8.253327257e-01	-2.345778942e-01	3.148500304e-14
1.590000000e-01	8.245424616e-01	-2.350187857e-01	6.399695616e-14
1.600000000e-01	8.237610677e-01	-2.354570022e-01	2.449652447e-14
1.610000000e-01	8.229883942e-01	-2.358925614e-01	2.718427325e-14
1.620000000e-01	8.222242946e-01	-2.363254810e-01	4.863380597e-14
1.630000000e-01	8.214686259e-01	-2.367557785e-01	4.444013504e-14
1.640000000e-01	8.207212481e-01	-2.371834718e-01	1.525042598e-14
1.650000000e-01	8.199820244e-01	-2.376085786e-01	3.395967269e-14
1.660000000e-01	8.192508210e-01	-2.380311166e-01	2.007403658e-14
1.670000000e-01	8.185275070e-01	-2.384511036e-01	2.032921131e-14
1.680000000e-01	8.178119543e-01	-2.388685573e-01	1.891493605e-14
1.690000000e-01	8.171040376e-01	-2.392834956e-01	1.938897317e-14
1.700000000e-01	8.164036345e-01	-2.396959361e-01	2.376120851e-14
1.710000000e-01	8.157106248e-01	-2.401058966e-01	3.012185912e-14
1.720000000e-01	8.150248913e-01	-2.405133947e-01	1.462824165e-14
1.730000000e-01	8.143463189e-01	-2.409184480e-01	9.336605995e-15
1.740000000e-01	8.136747953e-01	-2.413210742e-01	1.160236180e-14
1.750000000e-01	8.130102102e-01	-2.417212908e-01	1.738609345e-14
1.760000000e-01	7.676423943e-01	-2.572874910e-01	1.784160002e-27
1.770000000e-01	7.676423943e-01	-2.572874910e-01	1.747345119e-27
1.780000000e-01	7.676423943e-01	-2.572874910e-01	1.711242259e-27
1.790000000e-01	7.676423943e-01	-2.572874910e-01	1.675834521e-27
1.800000000e-01	7.676423943e-01	-2.572874910e-01	1.641105487e-27
1.810000000e-01	7.676423943e-01	-2.572874910e-01	1.607039212e-27
1.820000000e-01	7.676423943e-01	-2.572874910e-01	1.573620201e-27
1.830000000e-01	7.676423943e-01	-2.572874910e-01	1.540833399e-27
1.840000000e-01	7.676423943e-01	-2.572874910e-01	1.508664176e-27
1.850000000e-01	7.676423943e-01	-2.572874910e-01	1.477098308e-27
1.860000000e-01	7.676423943e-01	-2.572874910e-01	1.446121972e-27
1.870000000e-01	7.676423943e-01	-2.572874910e-01	1.415721724e-27
1.880000000e-01	7.676423943e-01	-2.572874910e-01	1.385884494e-27
1.890000000e-01	7.676423943e-01	-2.572874910e-01	1.356597569e-27
1.900000000e-01	7.676423943e-01	-2.572874910e-01	1.327848584e-27
1.910000000e-01	7.676423943e-01	-2.572874910e-01	1.299625509e-27
1.920000000e-01	7.676423943e-01	-2.572874910e-01	1.271916641e-27
1.930000000e-01	7.676423943e-01	-2.572874910e-01	1.244710591e-27
1.940000000e-01	7.676423943e-01	-2.572874910e-01	1.217996276e-27
1.950000000e-01	7.676423943e-01	-2.572874910e-01	1.191762906e-27
1.960000000e-01	7.676423943e-01	-2.572874910e-01	1.165999981e-27
1.970000000e-01	7.676423943e-01	-2.572874910e-01	1.140697275e-27
1.980000000e-01	7.676423943e-01	-2.572874910e-01	1.115844833e-27
1.990000000e-01	7.676423943e-01	-2.572874910e-01	1.091432959e-27
2.000000000e-01	7.676423943e-01	-2.572874910e-01	1.067452212e-27
2.010000000e-01	7.676423943e-01	-2.572874910e-01	1.043893394e-27
2.020000000e-01	7.676423943e-01	-2.572874910e-01	1.020747543e-27
2.030000000e-01	7.676423943e-01	-2.572874910e-01	9.980059307e-28
2.040000000e-01	7.676423943e-01	-2.572874910e-01	9.756600502e-28
2.050000000e-01	7.676423943e-01	-2.572874910e-01	9.537016119e-28
2.060000000e-01	7.676423943e-01	-2.572874910e-01	9.321225364e-28
2.070000000e-01	7.676423943e-01	-2.572874910e-01	9.109149485e-28
2.080000000e-01	7.676423943e-01	-2.572874910e-01	8.900711714e-28
2.090000000e-01	7.676423943e-01	-2.572874910e-01	8.695837204e-28
2.100000000e-01	7.676423943e-01	-2.572874910e-01	8.494452979e-28
2.110000000e-01	7.676423943e-01	-2.572874910e-01	8.296487877e-28
2.120000000e-01	7.676423943e-01	-2.572874910e-01	8.101872499e-28
2.130000000e-01	7.676423943e-01	-2.572874910e-01	7.910539158e-28
2.140000000e-01	7.676423943e-01	-2.572874910e-01	7.722421833e-28
2.150000000e-01	7.676423943e-01	-2.572874910e-01	7.537456120e-28
2.160000000e-01	7.676423943e-01	-2.572874910e-01	7.355579188e-28
2.170000000e-01	7.676423943e-01	-2.572874910e-01	7.176729737e-28
2.180000000e-01	7.676423943e-01	-2.572874910e-01	7.000847952e-28
2.190000000e-01	7.676423943e-01	-2.572874910e-01	6.827875467e-28
2.200000000e-01	7.676423943e-01	-2.572874910e-01	6.657755324e-28
2.210000000e-01	7.676423943e-01	-2.572874910e-01	6.490431937e-28
2.220000000e-01	7.676423943e-01	-2.572874910e-01	6.325851053e-28
2.230000000e-01	7.676423943e-01	-2.572874910e-01	6.163959720e-28
2.240000000e-01	7.676423943e-01	-2.572874910e-01	6.004706251e-28
2.250000000e-01	7.676423943e-01	-2.572874910e-01	5.848040196e-28
2.260000000e-01	7.676423943e-01	-2.572874910e-01	5.693912306e-28
2.270000000e-01	7.676423943e-01	-2.572874910e-01	5.542274508e-28
2.280000000e-01	7.676423943e-01	-2.572874910e-01	5.393079873e-28
2.290000000e-01	7.676423943e-01	-2.572874910e-01	5.246282592e-28
2.300000000e-01	7.676423943e-01	-2.572874910e-01	5.101837947e-28
2.310000000e-01	7.676423943e-01	-2.572874910e-01	4.959702291e-28
2.320000000e-01	7.676423943e-01	-2.572874910e-01	4.819833020e-28
2.330000000e-01	7.676423943e-01	-2.572874910e-01	4.682188555e-28
2.340000000e-01	7.676423943e-01	-2.572874910e-01	4.546728320e-28
2.350000000e-01	7.676423943e-01	-2.572874910e-01	4.413412722e-28
2.360000000e-01	7.676423943e-01	-2.572874910e-01	4.282203137e-28
2.370000000e-01	7.676423943e-01	-2.572874910e-01	4.153061890e-28
2.380000000e-01	7.676423943e-01	-2.572874910e-01	4.025952246e-28
2.390000000e-01	7.676423943e-01	-2.572874910e-01	3.900838391e-28
2.400000000e-01	7.676423943e-01	-2.572874910e-01	3.777685430e-28
2.410000000e-01	7.676423943e-01	-2.572874910e-01	3.656459375e-28
2.420000000e-01	7.676423943e-01	-2.572874910e-01	3.537127137e-28
2.430000000e-01	7.676423943e-01	-2.572874910e-01	3.419656530e-28
2.440000000e-01	7.676423943e-01	-2.572874910e-01	3.304016270e-28
2.450000000e-01	7.676423943e-01	-2.572874910e-01	3.190175977e-28
2.460000000e-01	7.676423943e-01	-2.572874910e-01	3.078106187e-28
2.470000000e-01	7.676423943e-01	-2.572874910e-01	2.967778365e-28
2.480000000e-01	7.676423943e-01	-2.572874910e-01	2.859164930e-28
2.490000000e-01	7.676423943e-01	-2.572874910e-01	2.752239274e-28
2.500000000e-01	7.676423943e-01	-2.572874910e-01	2.646975809e-28
2.510000000e-01	7.676423943e-01	-2.572874910e-01	2.543350004e-28
2.520000000e-01	7.676423943e-01	-2.572874910e-01	2.441338453e-28
2.530000000e-01	7.676423943e-01	-2.572874910e-01	2.340918947e-28
2.540000000e-01	7.676423943e-01	-2.572874910e-01	2.242070567e-28
2.550000000e-01	7.676423943e-01	-2.572874910e-01	2.144773809e-28
2.560000000e-01	7.676423943e-01	-2.572874910e-01	2.049010728e-28
2.570000000e-01	7.676423943e-01	-2.572874910e-01	1.954765131e-28
2.580000000e-01	7.676423943e-01	-2.572874910e-01	1.862022812e-28
2.590000000e-01	7.676423943e-01	-2.572874910e-01	1.770771860e-28
2.600000000e-01	7.676423943e-01	-2.572874910e-01	1.681003038e-28
2.610000000e-01	7.676423943e-01	-2.572874910e-01	1.592710283e-28
2.620000000e-01	7.676423943e-01	-2.572874910e-01	1.505891348e-28
2.630000000e-01	7.676423943e-01	-2.572874910e-01	1.420548639e-28
2.640000000e-01	7.676423943e-01	-2.572874910e-01	1.336690325e-28
2.650000000e-01	7.676423943e-01	-2.572874910e-01	1.254331809e-28
2.660000000e-01	7.676423943e-01	-2.572874910e-01	1.173497726e-28
2.670000000e-01	7.676423943e-01	-2.572874910e-01	1.094224654e-28
2.680000000e-01	7.676423943e-01	-2.572874910e-01	1.016564893e-28
2.690000000e-01	7.676423943e-01	-2.572874910e-01	9.405917497e-29
2.700000000e-01	7.676423943e-01	-2.572874910e-01	8.664070927e-29
2.710000000e-01	7.676423943e-01	-2.572874910e-01	7.941522801e-29
2.720000000e-01	7.676423943e-01	-2.572874910e-01	7.240242114e-29
2.730000000e-01	7.676423943e-01	-2.572874910e-01	6.562991900e-29
2.740000000e-01	7.676423943e-01	-2.572874910e-01	5.913686578e-29
2.750000000e-01	7.676423943e-01	-2.572874910e-01	5.297925410e-29
2.760000000e-01	7.676423943e-01	-2.572874910e-01	4.723769376e-29
2.770000000e-01	7.676423943e-01	-2.572874910e-01	4.202793094e-29
2.780000000e-01	7.676423943e-01	-2.572874910e-01	3.751249575e-29
2.790000000e-01	7.676423943e-01	-2.572874910e-01	3.390605268e-29
2.800000000e-01	7.676423943e-01	-2.572874910e-01	3.145625223e-29
2.810000000e-01	7.676423943e-01	-2.572874910e-01	3.037775290e-29
2.820000000e-01	7.676423943e-01	-2.572874910e-01	3.075208315e-29
2.830000000e-01	7.676423943e-01	-2.572874910e-01	3.247172367e-29
2.840000000e-01	7.676423943e-01	-2.572874910e-01	3.528984854e-29
2.850000000e-01	7.676423943e-01	-2.572874910e-01	3.892424393e-29
2.860000000e-01	7.676423943e-01	-2.572874910e-01	4.313036664e-29
2.870000000e-01	7.676423943e-01	-2.572874910e-01	4.772348792e-29
2.880000000e-01	7.676423943e-01	-2.572874910e-01	5.257262234e-29
2.890000000e-01	7.676423943e-01	-2.572874910e-01	5.758698684e-29
2.900000000e-01	7.676423943e-01	-2.572874910e-01	6.270376722e-29
2.910000000e-01	7.676423943e-01	-2.572874910e-01	6.787912921e-29
2.920000000e-01	7.676423943e-01	-2.572874910e-01	7.308209028e-29
2.930000000e-01	7.676423943e-01	-2.572874910e-01	7.829044629e-29
2.940000000e-01	7.676423943e-01	-2.572874910e-01	8.348807229e-29
2.950000000e-01	7.676423943e-01	-2.572874910e-01	8.866312000e-29
2.960000000e-01	7.676423943e-01	-2.572874910e-01	9.380679851e-29
2.970000000e-01	7.676423943e-01	-2.572874910e-01	9.891253716e-29
2.980000000e-01	7.676423943e-01	-2.572874910e-01	1.039754016e-28
2.990000000e-01	7.676423943e-01	-2.572874910e-01	1.089916802e-28
3.000000000e-01	7.676423943e-01	-2.572874910e-01	1.139585865e-28
3.010000000e-01	7.676423943e-01	-2.572874910e-01	1.188740424e-28
3.020000000e-01	7.676423943e-01	-2.572874910e-01	1.237365175e-28
3.030000000e-01	7.676423943e-01	-2.572874910e-01	1.285449093e-28
3.040000000e-01	7.676423943e-01	-2.572874910e-01	1.332984520e-28
3.050000000e-01	7.676423943e-01	-2.572874910e-01	1.379966472e-28
3.060000000e-01	7.676423943e-01	-2.572874910e-01	1.426392096e-28
3.070000000e-01	7.676423943e-01	-2.572874910e-01	1.472260253e-28
3.080000000e-01	7.676423943e-01	-2.572874910e-01	1.517571188e-28
3.090000000e-01	7.676423943e-01	-2.572874910e-01	1.562326261e-28
