# R [micrones]     Omega/c [1/micrones]    Im(epsi1)     Eq(det)$\mu$ = 0.3 eV, $E_p$ = 0.300 eV, modo = 1, $\epsilon_\infty$ = 3.9, $\gamma_{DL}$ = 0.01 eV, solve_det_sinkz_vs_R2.py
5.000000000e-03	1.373562036e+00	-2.130219011e-01	4.079437419e-13
6.000000000e-03	1.299072016e+00	-1.952854346e-01	1.753562034e-13
7.000000000e-03	1.239851806e+00	-1.848954480e-01	5.549089707e-13
8.000000000e-03	1.191531844e+00	-1.788705632e-01	2.034684750e-13
9.000000000e-03	1.151284394e+00	-1.756081370e-01	4.832213033e-14
1.000000000e-02	1.117194732e+00	-1.741722733e-01	8.728132539e-14
1.100000000e-02	1.087917566e+00	-1.739817711e-01	3.221835846e-13
1.200000000e-02	1.062478318e+00	-1.746583499e-01	2.071741610e-13
1.300000000e-02	1.040152568e+00	-1.759466326e-01	1.399860484e-13
1.400000000e-02	1.020389924e+00	-1.776691609e-01	1.590763255e-13
1.500000000e-02	1.002764249e+00	-1.796997477e-01	1.865280414e-13
1.600000000e-02	9.869401541e-01	-1.819469949e-01	2.864289338e-14
1.700000000e-02	9.726498421e-01	-1.843437223e-01	7.856740153e-14
1.800000000e-02	9.596767448e-01	-1.868399756e-01	2.276666550e-13
1.900000000e-02	9.478437228e-01	-1.893982786e-01	1.206623971e-13
2.000000000e-02	9.370044046e-01	-1.919903358e-01	1.826779466e-13
2.100000000e-02	9.270367275e-01	-1.945946965e-01	2.327925635e-13
2.200000000e-02	9.178380495e-01	-1.971950708e-01	8.218530456e-14
2.300000000e-02	9.093214037e-01	-1.997790989e-01	1.667843232e-13
2.400000000e-02	9.014125916e-01	-2.023374372e-01	2.917447267e-13
2.500000000e-02	8.940479046e-01	-2.048630736e-01	1.683609199e-13
2.600000000e-02	8.871723197e-01	-2.073508086e-01	8.728612677e-14
2.700000000e-02	8.807380569e-01	-2.097968580e-01	8.600209211e-14
2.800000000e-02	8.747034169e-01	-2.121985465e-01	6.752492897e-14
2.900000000e-02	8.690318369e-01	-2.145540698e-01	6.916689443e-14
3.000000000e-02	8.636911179e-01	-2.168623090e-01	6.249899320e-13
3.100000000e-02	8.586527884e-01	-2.191226834e-01	1.651591370e-13
3.200000000e-02	8.538915764e-01	-2.213350360e-01	1.437035647e-13
3.300000000e-02	8.493849697e-01	-2.234995407e-01	1.003250995e-13
3.400000000e-02	8.451128468e-01	-2.256166300e-01	7.842112812e-14
3.500000000e-02	8.410571662e-01	-2.276869362e-01	4.985902830e-13
3.600000000e-02	8.372017021e-01	-2.297112450e-01	2.480318993e-13
3.700000000e-02	8.335318213e-01	-2.316904576e-01	1.812113897e-13
3.800000000e-02	8.300342906e-01	-2.336255607e-01	9.557002028e-14
3.900000000e-02	8.266971129e-01	-2.355176023e-01	1.234089177e-13
4.000000000e-02	8.235093853e-01	-2.373676723e-01	2.146950020e-13
4.100000000e-02	8.204611763e-01	-2.391768868e-01	7.445624445e-14
4.200000000e-02	8.175434199e-01	-2.409463756e-01	1.168444331e-13
4.300000000e-02	8.147478225e-01	-2.426772722e-01	1.712637771e-13
4.400000000e-02	8.120667821e-01	-2.443707057e-01	1.620281026e-13
4.500000000e-02	8.094933173e-01	-2.460277948e-01	1.080880660e-13
4.600000000e-02	8.070210051e-01	-2.476496428e-01	9.600194211e-14
4.700000000e-02	8.046439261e-01	-2.492373335e-01	1.626364284e-13
4.800000000e-02	8.023566152e-01	-2.507919285e-01	1.204491188e-13
4.900000000e-02	8.001540195e-01	-2.523144653e-01	1.042355903e-13
5.000000000e-02	7.980314594e-01	-2.538059551e-01	6.810078078e-14
5.100000000e-02	7.959845951e-01	-2.552673823e-01	1.149824493e-13
5.200000000e-02	7.940093956e-01	-2.566997033e-01	6.514512093e-14
5.300000000e-02	7.921021123e-01	-2.581038466e-01	1.536038793e-13
5.400000000e-02	7.902592541e-01	-2.594807124e-01	1.276370255e-13
5.500000000e-02	7.884775658e-01	-2.608311728e-01	1.390805169e-13
5.600000000e-02	7.867540084e-01	-2.621560718e-01	8.017626446e-14
5.700000000e-02	7.850857413e-01	-2.634562263e-01	1.457176179e-13
5.800000000e-02	7.834701067e-01	-2.647324260e-01	9.192527643e-14
5.900000000e-02	7.819046144e-01	-2.659854342e-01	5.336007788e-14
6.000000000e-02	7.803869295e-01	-2.672159884e-01	8.716063926e-14
6.100000000e-02	7.789148598e-01	-2.684248012e-01	9.859636844e-14
6.200000000e-02	7.774863456e-01	-2.696125607e-01	6.995781684e-14
6.300000000e-02	7.760994494e-01	-2.707799313e-01	8.171611024e-14
6.400000000e-02	7.747523470e-01	-2.719275545e-01	1.145010985e-13
6.500000000e-02	7.734433196e-01	-2.730560499e-01	3.350611887e-14
6.600000000e-02	7.721707459e-01	-2.741660154e-01	7.838677755e-14
6.700000000e-02	7.709330956e-01	-2.752580282e-01	1.606259069e-14
6.800000000e-02	7.697289228e-01	-2.763326458e-01	8.701259188e-14
6.900000000e-02	7.685568605e-01	-2.773904061e-01	7.738158909e-14
7.000000000e-02	7.674156151e-01	-2.784318289e-01	3.751124714e-14
7.100000000e-02	7.663039616e-01	-2.794574156e-01	4.837327845e-14
7.200000000e-02	7.652207390e-01	-2.804676509e-01	3.621165613e-14
7.300000000e-02	7.641648466e-01	-2.814630026e-01	3.883023876e-14
7.400000000e-02	7.631352393e-01	-2.824439227e-01	6.000204034e-14
7.500000000e-02	7.621309250e-01	-2.834108478e-01	6.114563387e-14
7.600000000e-02	7.611509607e-01	-2.843641997e-01	9.685886252e-14
7.700000000e-02	7.601944497e-01	-2.853043862e-01	6.356456467e-14
7.800000000e-02	7.592605389e-01	-2.862318011e-01	6.306902934e-14
7.900000000e-02	7.583484160e-01	-2.871468254e-01	4.374350043e-14
8.000000000e-02	7.574573070e-01	-2.880498273e-01	3.666923332e-14
8.100000000e-02	7.565864743e-01	-2.889411627e-01	8.301133662e-14
8.200000000e-02	7.557352143e-01	-2.898211761e-01	7.570843950e-14
8.300000000e-02	7.549028554e-01	-2.906902006e-01	8.927906209e-14
8.400000000e-02	7.540887567e-01	-2.915485584e-01	1.021842277e-13
8.500000000e-02	7.532923056e-01	-2.923965614e-01	5.439247520e-14
8.600000000e-02	7.525129167e-01	-2.932345114e-01	3.774403159e-14
8.700000000e-02	7.517500302e-01	-2.940627006e-01	6.149750126e-14
8.800000000e-02	7.510031103e-01	-2.948814120e-01	9.358594018e-14
8.900000000e-02	7.502716443e-01	-2.956909195e-01	9.875096800e-14
9.000000000e-02	7.495551411e-01	-2.964914885e-01	7.952354710e-14
9.100000000e-02	7.488531302e-01	-2.972833761e-01	4.176883598e-14
9.200000000e-02	7.481651605e-01	-2.980668315e-01	9.645095773e-14
9.300000000e-02	7.474907994e-01	-2.988420961e-01	4.123159656e-14
9.400000000e-02	7.468296320e-01	-2.996094040e-01	1.180917386e-13
9.500000000e-02	7.461812599e-01	-3.003689821e-01	1.214134852e-13
9.600000000e-02	7.455453005e-01	-3.011210505e-01	8.079434988e-14
9.700000000e-02	7.449213865e-01	-3.018658226e-01	1.173212685e-13
9.800000000e-02	7.443091646e-01	-3.026035055e-01	6.423584255e-14
9.900000000e-02	7.437082955e-01	-3.033343001e-01	1.042257907e-13
1.000000000e-01	7.431184525e-01	-3.040584015e-01	1.188702449e-13
1.010000000e-01	7.425393216e-01	-3.047759988e-01	9.588803934e-14
1.020000000e-01	7.419706003e-01	-3.054872760e-01	3.962719627e-14
1.030000000e-01	7.414119976e-01	-3.061924113e-01	5.082494241e-14
1.040000000e-01	7.408632330e-01	-3.068915782e-01	9.794942635e-14
1.050000000e-01	7.403240364e-01	-3.075849450e-01	1.565202008e-13
1.060000000e-01	7.397941474e-01	-3.082726752e-01	4.525824066e-14
1.070000000e-01	7.392733148e-01	-3.089549278e-01	9.314440412e-14
1.080000000e-01	7.387612966e-01	-3.096318572e-01	7.857438745e-14
1.090000000e-01	7.382578592e-01	-3.103036138e-01	3.807494698e-14
1.100000000e-01	7.377627770e-01	-3.109703434e-01	7.058929854e-14
1.110000000e-01	7.372758324e-01	-3.116321881e-01	3.512198108e-14
1.120000000e-01	7.367968152e-01	-3.122892861e-01	1.979052641e-13
1.130000000e-01	7.363255224e-01	-3.129417715e-01	5.887624869e-14
1.140000000e-01	7.358617577e-01	-3.135897753e-01	7.674988507e-14
1.150000000e-01	7.354053315e-01	-3.142334245e-01	5.142534845e-14
1.160000000e-01	7.349560604e-01	-3.148728431e-01	8.278621555e-14
1.170000000e-01	7.345137673e-01	-3.155081514e-01	7.727045499e-14
1.180000000e-01	7.340782804e-01	-3.161394670e-01	1.151195675e-13
1.190000000e-01	7.336494338e-01	-3.167669041e-01	1.623428954e-13
1.200000000e-01	7.332270670e-01	-3.173905739e-01	4.262148863e-14
1.210000000e-01	7.328110243e-01	-3.180105849e-01	1.038563017e-13
1.220000000e-01	7.324011552e-01	-3.186270427e-01	5.915969140e-14
1.230000000e-01	7.319973137e-01	-3.192400502e-01	6.441053993e-14
1.240000000e-01	7.315993586e-01	-3.198497079e-01	8.151706714e-14
1.250000000e-01	7.312071528e-01	-3.204561133e-01	8.367711893e-14
1.260000000e-01	7.308205636e-01	-3.210593619e-01	1.319356015e-13
1.270000000e-01	7.304394622e-01	-3.216595466e-01	1.023594175e-13
1.280000000e-01	7.300637237e-01	-3.222567580e-01	8.383865303e-14
1.290000000e-01	7.296932271e-01	-3.228510846e-01	6.448073492e-14
1.300000000e-01	7.293278548e-01	-3.234426125e-01	2.210441812e-13
1.310000000e-01	7.289674928e-01	-3.240314259e-01	7.661915786e-14
1.320000000e-01	7.286120304e-01	-3.246176068e-01	6.368415064e-14
1.330000000e-01	7.282613601e-01	-3.252012355e-01	8.498527551e-14
1.340000000e-01	7.279153776e-01	-3.257823900e-01	1.035532926e-13
1.350000000e-01	7.275739814e-01	-3.263611467e-01	7.186496094e-14
1.360000000e-01	7.272370731e-01	-3.269375801e-01	6.995843181e-14
1.370000000e-01	7.269045570e-01	-3.275117630e-01	9.002835854e-14
1.380000000e-01	7.265763401e-01	-3.280837665e-01	7.910228699e-14
1.390000000e-01	7.262523319e-01	-3.286536600e-01	1.074499867e-13
1.400000000e-01	7.259324446e-01	-3.292215112e-01	3.775267905e-14
1.410000000e-01	7.256165927e-01	-3.297873864e-01	4.256789891e-14
1.420000000e-01	7.253046929e-01	-3.303513504e-01	5.489079916e-14
1.430000000e-01	7.249966645e-01	-3.309134664e-01	1.023908193e-13
1.440000000e-01	7.246924287e-01	-3.314737962e-01	9.282796378e-14
1.450000000e-01	7.243919088e-01	-3.320324003e-01	6.585976695e-14
1.460000000e-01	7.240950305e-01	-3.325893377e-01	7.609172199e-14
1.470000000e-01	7.238017210e-01	-3.331446663e-01	5.515029167e-14
1.480000000e-01	7.235119096e-01	-3.336984424e-01	1.011762534e-13
1.490000000e-01	7.232255277e-01	-3.342507215e-01	1.246719487e-13
1.500000000e-01	7.229425080e-01	-3.348015574e-01	7.624289336e-14
1.510000000e-01	7.226627853e-01	-3.353510032e-01	9.697868009e-14
1.520000000e-01	7.223862960e-01	-3.358991104e-01	5.576625147e-14
1.530000000e-01	7.221129779e-01	-3.364459297e-01	1.366541011e-13
1.540000000e-01	7.218427708e-01	-3.369915107e-01	7.200208987e-14
1.550000000e-01	7.215756156e-01	-3.375359018e-01	1.422396907e-13
1.560000000e-01	7.213114549e-01	-3.380791504e-01	5.263469884e-14
1.570000000e-01	7.210502326e-01	-3.386213031e-01	4.355529389e-14
1.580000000e-01	7.207918941e-01	-3.391624052e-01	8.840916200e-14
1.590000000e-01	7.205363862e-01	-3.397025013e-01	7.746723495e-14
1.600000000e-01	7.202836568e-01	-3.402416350e-01	1.414693551e-13
1.610000000e-01	7.200336551e-01	-3.407798491e-01	8.422943251e-14
1.620000000e-01	7.197863317e-01	-3.413171853e-01	9.158585404e-14
1.630000000e-01	7.195416383e-01	-3.418536846e-01	6.607322201e-14
1.640000000e-01	7.192995276e-01	-3.423893872e-01	1.039773531e-13
1.650000000e-01	7.190599536e-01	-3.429243324e-01	9.544725930e-14
1.660000000e-01	7.188228713e-01	-3.434585587e-01	8.465394405e-14
1.670000000e-01	7.185882369e-01	-3.439921040e-01	9.909729198e-14
1.680000000e-01	7.183560074e-01	-3.445250052e-01	9.125063336e-14
1.690000000e-01	7.181261410e-01	-3.450572987e-01	9.549982341e-14
1.700000000e-01	7.178985966e-01	-3.455890200e-01	7.000459468e-14
1.710000000e-01	7.176733344e-01	-3.461202040e-01	1.728242299e-13
1.720000000e-01	7.174503153e-01	-3.466508849e-01	5.040287796e-14
1.730000000e-01	7.172295010e-01	-3.471810963e-01	6.784282974e-14
1.740000000e-01	7.170108542e-01	-3.477108710e-01	9.683920333e-14
1.750000000e-01	7.167943384e-01	-3.482402413e-01	1.199563430e-13
1.760000000e-01	7.165799180e-01	-3.487692388e-01	5.240577317e-14
1.770000000e-01	7.163675581e-01	-3.492978947e-01	9.791325459e-14
1.780000000e-01	7.161572245e-01	-3.498262393e-01	2.397497326e-14
1.790000000e-01	7.159488840e-01	-3.503543026e-01	1.205586398e-13
1.800000000e-01	7.157425038e-01	-3.508821138e-01	7.932399127e-14
1.810000000e-01	7.155380520e-01	-3.514097018e-01	6.270432744e-14
1.820000000e-01	7.153354974e-01	-3.519370949e-01	4.794251564e-14
1.830000000e-01	7.151348094e-01	-3.524643206e-01	5.522692517e-14
1.840000000e-01	7.149359582e-01	-3.529914063e-01	8.528315024e-14
1.850000000e-01	7.147389144e-01	-3.535183786e-01	4.975055748e-14
1.860000000e-01	7.145436495e-01	-3.540452639e-01	9.876324721e-14
1.870000000e-01	7.143501353e-01	-3.545720878e-01	1.269309942e-13
1.880000000e-01	7.141583444e-01	-3.550988757e-01	6.696175012e-14
1.890000000e-01	7.139682499e-01	-3.556256524e-01	5.325521238e-14
1.900000000e-01	7.137798256e-01	-3.561524423e-01	5.741987419e-14
1.910000000e-01	7.135930455e-01	-3.566792693e-01	7.851228133e-14
1.920000000e-01	7.134078846e-01	-3.572061571e-01	8.760535579e-14
1.930000000e-01	7.132243180e-01	-3.577331287e-01	8.289128247e-14
1.940000000e-01	7.130423215e-01	-3.582602069e-01	1.396283095e-13
1.950000000e-01	7.128618713e-01	-3.587874139e-01	9.128221770e-14
1.960000000e-01	7.126829443e-01	-3.593147718e-01	3.741443017e-14
1.970000000e-01	7.125055177e-01	-3.598423021e-01	8.194776461e-14
1.980000000e-01	7.123295690e-01	-3.603700260e-01	1.040613868e-13
1.990000000e-01	7.121550765e-01	-3.608979642e-01	8.307296156e-14
2.000000000e-01	7.119820187e-01	-3.614261374e-01	5.647212446e-14
2.010000000e-01	7.118103745e-01	-3.619545655e-01	5.615819209e-14
2.020000000e-01	7.116401233e-01	-3.624832685e-01	1.129807305e-13
2.030000000e-01	7.114712450e-01	-3.630122656e-01	8.311348573e-14
2.040000000e-01	7.113037197e-01	-3.635415762e-01	6.055833788e-14
2.050000000e-01	7.111375279e-01	-3.640712189e-01	8.087879388e-14
2.060000000e-01	7.109726507e-01	-3.646012122e-01	7.914314704e-14
2.070000000e-01	7.108090693e-01	-3.651315744e-01	8.571568050e-14
2.080000000e-01	7.106467653e-01	-3.656623234e-01	8.135447308e-14
2.090000000e-01	7.104857209e-01	-3.661934766e-01	6.022417766e-14
2.100000000e-01	7.103259183e-01	-3.667250516e-01	5.266537737e-14
2.110000000e-01	7.101673403e-01	-3.672570652e-01	4.057457907e-14
2.120000000e-01	7.100099699e-01	-3.677895342e-01	1.007333750e-13
2.130000000e-01	7.098537904e-01	-3.683224751e-01	4.534288601e-14
2.140000000e-01	7.096987854e-01	-3.688559041e-01	9.131216898e-14
2.150000000e-01	7.095449390e-01	-3.693898372e-01	5.675223109e-14
2.160000000e-01	7.093922353e-01	-3.699242900e-01	7.919754253e-14
2.170000000e-01	7.092406589e-01	-3.704592781e-01	5.056597191e-14
2.180000000e-01	7.090901946e-01	-3.709948166e-01	5.949494351e-14
2.190000000e-01	7.089408275e-01	-3.715309206e-01	5.633596709e-14
2.200000000e-01	7.087925431e-01	-3.720676046e-01	5.820679057e-14
2.210000000e-01	7.086453268e-01	-3.726048833e-01	7.943422609e-14
2.220000000e-01	7.084991647e-01	-3.731427709e-01	5.689524213e-14
2.230000000e-01	7.083540428e-01	-3.736812815e-01	4.609420874e-14
2.240000000e-01	7.082099476e-01	-3.742204289e-01	3.548203097e-14
2.250000000e-01	7.080668657e-01	-3.747602268e-01	3.325885547e-14
2.260000000e-01	7.079247840e-01	-3.753006885e-01	9.139580165e-14
2.270000000e-01	7.077836896e-01	-3.758418273e-01	6.130880200e-14
2.280000000e-01	7.076435698e-01	-3.763836561e-01	4.420226464e-14
2.290000000e-01	7.075044122e-01	-3.769261879e-01	4.935683615e-14
2.300000000e-01	7.073662047e-01	-3.774694351e-01	4.660378919e-14
2.310000000e-01	7.072289350e-01	-3.780134104e-01	5.443314742e-14
2.320000000e-01	7.070925916e-01	-3.785581258e-01	8.432870675e-14
2.330000000e-01	7.069571628e-01	-3.791035935e-01	5.828858402e-14
2.340000000e-01	7.068226371e-01	-3.796498253e-01	4.305597911e-14
2.350000000e-01	7.066890034e-01	-3.801968329e-01	7.227791875e-14
2.360000000e-01	7.065562507e-01	-3.807446279e-01	9.169900210e-14
2.370000000e-01	7.064243682e-01	-3.812932217e-01	5.848116799e-14
2.380000000e-01	7.062933452e-01	-3.818426254e-01	8.281241016e-14
2.390000000e-01	7.061631713e-01	-3.823928500e-01	7.316615168e-14
2.400000000e-01	7.060338362e-01	-3.829439065e-01	5.827004053e-14
2.410000000e-01	7.059053299e-01	-3.834958055e-01	5.563030934e-14
2.420000000e-01	7.057776422e-01	-3.840485576e-01	9.786040619e-14
2.430000000e-01	7.056507636e-01	-3.846021732e-01	6.295980215e-14
2.440000000e-01	7.055246844e-01	-3.851566625e-01	1.294226409e-13
2.450000000e-01	7.053993952e-01	-3.857120357e-01	4.423663547e-14
2.460000000e-01	7.052748866e-01	-3.862683028e-01	3.987306924e-14
2.470000000e-01	7.051511495e-01	-3.868254734e-01	4.946079139e-14
2.480000000e-01	7.050281750e-01	-3.873835574e-01	6.212056048e-14
2.490000000e-01	7.049059542e-01	-3.879425642e-01	1.110607913e-13
2.500000000e-01	7.047844785e-01	-3.885025033e-01	7.813353651e-14
2.510000000e-01	7.046637391e-01	-3.890633839e-01	6.038874077e-14
2.520000000e-01	7.045437279e-01	-3.896252152e-01	8.803254745e-14
2.530000000e-01	7.044244364e-01	-3.901880061e-01	4.437114996e-14
2.540000000e-01	7.043058566e-01	-3.907517656e-01	1.118886770e-13
2.550000000e-01	7.041879803e-01	-3.913165025e-01	5.164235936e-14
2.560000000e-01	7.040707998e-01	-3.918822253e-01	4.378906416e-14
2.570000000e-01	7.039543074e-01	-3.924489427e-01	6.971684699e-14
2.580000000e-01	7.038384952e-01	-3.930166629e-01	5.098149902e-14
2.590000000e-01	7.037233559e-01	-3.935853943e-01	6.206406385e-14
2.600000000e-01	7.036088820e-01	-3.941551450e-01	4.362733839e-14
2.610000000e-01	7.034950663e-01	-3.947259232e-01	6.677117700e-14
2.620000000e-01	7.033819017e-01	-3.952977367e-01	4.636567399e-14
2.630000000e-01	7.032693809e-01	-3.958705934e-01	9.118855951e-14
2.640000000e-01	7.031574972e-01	-3.964445010e-01	3.454823877e-14
2.650000000e-01	7.030462437e-01	-3.970194671e-01	1.213937319e-13
2.660000000e-01	7.029356136e-01	-3.975954994e-01	4.047278286e-14
2.670000000e-01	7.028256004e-01	-3.981726051e-01	3.998691829e-14
2.680000000e-01	7.027161976e-01	-3.987507916e-01	5.318151080e-14
2.690000000e-01	7.026073986e-01	-3.993300661e-01	8.106699606e-14
2.700000000e-01	7.024991972e-01	-3.999104358e-01	3.545197275e-14
2.710000000e-01	7.023915872e-01	-4.004919076e-01	9.162840785e-14
2.720000000e-01	7.022845625e-01	-4.010744885e-01	6.406552540e-14
2.730000000e-01	7.021781169e-01	-4.016581854e-01	5.940513799e-14
2.740000000e-01	7.020722447e-01	-4.022430049e-01	1.979504327e-14
2.750000000e-01	7.019669399e-01	-4.028289537e-01	2.722708713e-14
2.760000000e-01	7.018621967e-01	-4.034160385e-01	6.577138420e-14
2.770000000e-01	7.017580095e-01	-4.040042656e-01	8.405114392e-14
2.780000000e-01	7.016543728e-01	-4.045936414e-01	9.688882319e-14
2.790000000e-01	7.015512809e-01	-4.051841723e-01	6.182933175e-14
2.800000000e-01	7.014487285e-01	-4.057758645e-01	9.629511748e-14
2.810000000e-01	7.013467103e-01	-4.063687241e-01	5.541799572e-14
2.820000000e-01	7.012452209e-01	-4.069627572e-01	5.068205626e-14
2.830000000e-01	7.011442552e-01	-4.075579697e-01	7.234611139e-14
2.840000000e-01	7.010438081e-01	-4.081543675e-01	5.489998338e-14
2.850000000e-01	7.009438746e-01	-4.087519565e-01	5.010718773e-14
2.860000000e-01	7.008444497e-01	-4.093507424e-01	4.131461228e-14
2.870000000e-01	7.007455284e-01	-4.099507308e-01	1.144515703e-13
2.880000000e-01	7.006471061e-01	-4.105519274e-01	6.639433872e-14
2.890000000e-01	7.005491780e-01	-4.111543376e-01	4.640512029e-14
2.900000000e-01	7.004517394e-01	-4.117579669e-01	7.105477038e-14
2.910000000e-01	7.003547856e-01	-4.123628207e-01	6.390073423e-14
2.920000000e-01	7.002583122e-01	-4.129689042e-01	5.611498529e-14
2.930000000e-01	7.001623148e-01	-4.135762227e-01	6.027113392e-14
2.940000000e-01	7.000667888e-01	-4.141847814e-01	6.114053984e-14
2.950000000e-01	6.999717299e-01	-4.147945852e-01	1.018230381e-13
2.960000000e-01	6.998771339e-01	-4.154056394e-01	6.696264510e-14
2.970000000e-01	6.997829966e-01	-4.160179487e-01	5.471442475e-14
2.980000000e-01	6.996893138e-01	-4.166315181e-01	3.379686177e-14
2.990000000e-01	6.995960814e-01	-4.172463525e-01	5.123439426e-14
3.000000000e-01	6.995032953e-01	-4.178624565e-01	4.875756162e-14
3.010000000e-01	6.994109516e-01	-4.184798349e-01	1.088062868e-13
3.020000000e-01	6.993190464e-01	-4.190984923e-01	4.921377447e-14
3.030000000e-01	6.992275758e-01	-4.197184332e-01	2.869490442e-14
3.040000000e-01	6.991365360e-01	-4.203396623e-01	6.455392454e-14
3.050000000e-01	6.990459232e-01	-4.209621839e-01	4.142797130e-14
3.060000000e-01	6.989557338e-01	-4.215860024e-01	5.414470710e-14
3.070000000e-01	6.988659640e-01	-4.222111223e-01	1.072214660e-13
3.080000000e-01	6.987766103e-01	-4.228375476e-01	6.417625067e-14
