# kz [eV]     Omega/c [1/micrones]    Im(epsi1)     Eq(det).Opt det con kz, R=0.5 \mum, Re(epsi1)=3.90, $\mu_c$ = 0.600 eV, solve_det_conkz_vs_kz.py
0.000000000e+00	1.890882907e-01	-3.048048882e-02	1.207289503e-13
5.000000000e-04	1.890882920e-01	-3.048058524e-02	4.303606709e-13
1.000000000e-03	1.890882958e-01	-3.048087450e-02	1.964741679e-13
1.500000000e-03	1.890883020e-01	-3.048135660e-02	7.547052308e-14
2.000000000e-03	1.890883108e-01	-3.048203155e-02	1.673438570e-13
2.500000000e-03	1.890883222e-01	-3.048289933e-02	1.175023812e-13
3.000000000e-03	1.890883360e-01	-3.048395997e-02	8.999266944e-14
3.500000000e-03	1.890883523e-01	-3.048521345e-02	1.338468725e-13
4.000000000e-03	1.890883711e-01	-3.048665979e-02	5.472543529e-13
4.500000000e-03	1.890883925e-01	-3.048829898e-02	2.831129966e-13
5.000000000e-03	1.890884164e-01	-3.049013104e-02	1.726266266e-13
5.500000000e-03	1.890884427e-01	-3.049215597e-02	1.832317592e-13
6.000000000e-03	1.890884716e-01	-3.049437378e-02	1.373669014e-13
6.500000000e-03	1.890885030e-01	-3.049678446e-02	1.536425380e-13
7.000000000e-03	1.890885368e-01	-3.049938804e-02	8.114118483e-14
7.500000000e-03	1.890885732e-01	-3.050218451e-02	1.461114828e-13
8.000000000e-03	1.890886121e-01	-3.050517389e-02	1.570901116e-13
8.500000000e-03	1.890886534e-01	-3.050835618e-02	1.633201788e-13
9.000000000e-03	1.890886973e-01	-3.051173140e-02	8.619397358e-14
9.500000000e-03	1.890887436e-01	-3.051529955e-02	9.138628285e-14
1.000000000e-02	1.890887924e-01	-3.051906065e-02	7.066900879e-14
1.050000000e-02	1.890888437e-01	-3.052301470e-02	6.664825472e-14
1.100000000e-02	1.890888975e-01	-3.052716172e-02	2.205095152e-13
1.150000000e-02	1.890889538e-01	-3.053150173e-02	1.548450608e-13
1.200000000e-02	1.890890125e-01	-3.053603473e-02	7.870866960e-14
1.250000000e-02	1.890890737e-01	-3.054076074e-02	4.810607876e-13
1.300000000e-02	1.890891374e-01	-3.054567977e-02	1.515097628e-13
1.350000000e-02	1.890892035e-01	-3.055079185e-02	1.689491942e-13
1.400000000e-02	1.890892721e-01	-3.055609697e-02	1.742513121e-13
1.450000000e-02	1.890893431e-01	-3.056159517e-02	1.558708183e-13
1.500000000e-02	1.890894166e-01	-3.056728645e-02	2.168351379e-13
1.550000000e-02	1.890894925e-01	-3.057317084e-02	1.705509858e-13
1.600000000e-02	1.890895709e-01	-3.057924835e-02	1.571407418e-13
1.650000000e-02	1.890896517e-01	-3.058551901e-02	8.857668710e-14
1.700000000e-02	1.890897349e-01	-3.059198282e-02	1.686799069e-13
1.750000000e-02	1.890898206e-01	-3.059863981e-02	8.322533200e-14
1.800000000e-02	1.890899086e-01	-3.060549001e-02	1.836773459e-13
1.850000000e-02	1.890899991e-01	-3.061253343e-02	3.637868527e-13
1.900000000e-02	1.890900920e-01	-3.061977009e-02	1.056469837e-13
1.950000000e-02	1.890901873e-01	-3.062720002e-02	1.207395215e-13
2.000000000e-02	1.890902850e-01	-3.063482323e-02	3.190685090e-13
2.050000000e-02	1.890903850e-01	-3.064263977e-02	5.507395943e-14
2.100000000e-02	1.890904875e-01	-3.065064963e-02	1.130885927e-13
2.150000000e-02	1.890905923e-01	-3.065885286e-02	1.237961525e-13
2.200000000e-02	1.890906995e-01	-3.066724948e-02	3.667619509e-13
2.250000000e-02	1.890908090e-01	-3.067583951e-02	7.224774955e-14
2.300000000e-02	1.890909209e-01	-3.068462298e-02	2.577401530e-13
2.350000000e-02	1.890910352e-01	-3.069359992e-02	1.855549912e-13
2.400000000e-02	1.890911518e-01	-3.070277035e-02	7.395839703e-14
2.450000000e-02	1.890912707e-01	-3.071213431e-02	3.846202572e-13
2.500000000e-02	1.890913919e-01	-3.072169182e-02	8.017332202e-14
2.550000000e-02	1.890915155e-01	-3.073144291e-02	1.170902033e-13
2.600000000e-02	1.890916413e-01	-3.074138761e-02	2.415599807e-13
2.650000000e-02	1.890917695e-01	-3.075152596e-02	5.803050973e-13
2.700000000e-02	1.890918999e-01	-3.076185799e-02	2.849742162e-13
2.750000000e-02	1.890920326e-01	-3.077238373e-02	6.129053321e-14
2.800000000e-02	1.890921676e-01	-3.078310320e-02	7.855535349e-14
2.850000000e-02	1.890923049e-01	-3.079401646e-02	1.887316846e-13
2.900000000e-02	1.890924444e-01	-3.080512352e-02	1.058910450e-13
2.950000000e-02	1.890925862e-01	-3.081642442e-02	8.019025608e-14
3.000000000e-02	1.890927302e-01	-3.082791921e-02	1.437176840e-13
3.050000000e-02	1.890928764e-01	-3.083960791e-02	5.148686203e-14
3.100000000e-02	1.890930248e-01	-3.085149057e-02	6.180888894e-14
3.150000000e-02	1.890931754e-01	-3.086356722e-02	1.683818340e-13
3.200000000e-02	1.890933283e-01	-3.087583790e-02	4.044915218e-13
3.250000000e-02	1.890934833e-01	-3.088830264e-02	1.204034308e-13
3.300000000e-02	1.890936405e-01	-3.090096150e-02	9.858425615e-14
3.350000000e-02	1.890937998e-01	-3.091381450e-02	5.934319201e-14
3.400000000e-02	1.890939613e-01	-3.092686169e-02	6.575912785e-14
3.450000000e-02	1.890941249e-01	-3.094010312e-02	1.147469352e-13
3.500000000e-02	1.890942907e-01	-3.095353881e-02	1.263641892e-13
3.550000000e-02	1.890944585e-01	-3.096716883e-02	6.008360522e-14
3.600000000e-02	1.890946285e-01	-3.098099320e-02	3.332391721e-13
3.650000000e-02	1.890948006e-01	-3.099501198e-02	3.444595863e-13
3.700000000e-02	1.890949747e-01	-3.100922521e-02	1.188107715e-13
3.750000000e-02	1.890951509e-01	-3.102363293e-02	4.388554297e-13
3.800000000e-02	1.890953292e-01	-3.103823520e-02	7.858284372e-13
3.850000000e-02	1.890955095e-01	-3.105303206e-02	1.585675755e-13
3.900000000e-02	1.890956918e-01	-3.106802355e-02	7.739265636e-14
3.950000000e-02	1.890958761e-01	-3.108320973e-02	1.398900953e-13
4.000000000e-02	1.890960624e-01	-3.109859065e-02	1.100878052e-13
4.050000000e-02	1.890962508e-01	-3.111416635e-02	4.440281243e-13
4.100000000e-02	1.890964410e-01	-3.112993689e-02	2.697908921e-13
4.150000000e-02	1.890966333e-01	-3.114590232e-02	1.436739061e-13
4.200000000e-02	1.890968275e-01	-3.116206268e-02	7.799579914e-14
4.250000000e-02	1.890970236e-01	-3.117841805e-02	1.044468237e-13
4.300000000e-02	1.890972216e-01	-3.119496845e-02	3.935982458e-13
4.350000000e-02	1.890974215e-01	-3.121171396e-02	2.047228067e-13
4.400000000e-02	1.890976233e-01	-3.122865463e-02	5.307038042e-14
4.450000000e-02	1.890978269e-01	-3.124579051e-02	9.429624057e-14
4.500000000e-02	1.890980324e-01	-3.126312167e-02	1.134565043e-13
4.550000000e-02	1.890982398e-01	-3.128064814e-02	1.301176683e-13
4.600000000e-02	1.890984489e-01	-3.129837001e-02	1.060985591e-13
4.650000000e-02	1.890986599e-01	-3.131628732e-02	1.224147575e-13
4.700000000e-02	1.890988726e-01	-3.133440014e-02	1.359304593e-13
4.750000000e-02	1.890990871e-01	-3.135270852e-02	1.639588950e-13
4.800000000e-02	1.890993033e-01	-3.137121253e-02	2.363389647e-13
4.850000000e-02	1.890995213e-01	-3.138991223e-02	8.329804581e-14
4.900000000e-02	1.890997410e-01	-3.140880768e-02	2.483541291e-13
4.950000000e-02	1.890999624e-01	-3.142789895e-02	9.980054822e-14
5.000000000e-02	1.891001854e-01	-3.144718611e-02	1.975277565e-13
5.050000000e-02	1.891004101e-01	-3.146666920e-02	2.209014407e-13
5.100000000e-02	1.891006364e-01	-3.148634832e-02	5.794122159e-14
5.150000000e-02	1.891008644e-01	-3.150622351e-02	2.501395969e-13
5.200000000e-02	1.891010940e-01	-3.152629485e-02	1.504296958e-13
5.250000000e-02	1.891013251e-01	-3.154656241e-02	1.408686416e-13
5.300000000e-02	1.891015578e-01	-3.156702626e-02	1.135731199e-14
5.350000000e-02	1.891017920e-01	-3.158768647e-02	1.033632431e-13
5.400000000e-02	1.891020277e-01	-3.160854310e-02	1.076631114e-13
5.450000000e-02	1.891022650e-01	-3.162959624e-02	2.487950132e-13
5.500000000e-02	1.891025037e-01	-3.165084595e-02	1.919107346e-13
5.550000000e-02	1.891027438e-01	-3.167229231e-02	9.286699422e-14
5.600000000e-02	1.891029854e-01	-3.169393540e-02	6.235901659e-13
5.650000000e-02	1.891032284e-01	-3.171577529e-02	2.176838451e-13
5.700000000e-02	1.891034728e-01	-3.173781205e-02	6.053779839e-14
5.750000000e-02	1.891037185e-01	-3.176004577e-02	8.940875515e-14
5.800000000e-02	1.891039656e-01	-3.178247652e-02	2.668147640e-13
5.850000000e-02	1.891042140e-01	-3.180510438e-02	1.144732997e-13
5.900000000e-02	1.891044637e-01	-3.182792944e-02	9.350459316e-14
5.950000000e-02	1.891047147e-01	-3.185095177e-02	1.167627540e-13
6.000000000e-02	1.891049669e-01	-3.187417146e-02	2.091342056e-13
6.050000000e-02	1.891052203e-01	-3.189758859e-02	4.645148475e-14
6.100000000e-02	1.891054749e-01	-3.192120325e-02	1.972607219e-13
6.150000000e-02	1.891057307e-01	-3.194501551e-02	5.546025075e-14
6.200000000e-02	1.891059876e-01	-3.196902548e-02	3.843958966e-14
6.250000000e-02	1.891062456e-01	-3.199323322e-02	1.385401011e-13
6.300000000e-02	1.891065048e-01	-3.201763884e-02	3.595973771e-13
6.350000000e-02	1.891067649e-01	-3.204224242e-02	1.753275638e-13
6.400000000e-02	1.891070262e-01	-3.206704405e-02	2.029847095e-13
6.450000000e-02	1.891072884e-01	-3.209204382e-02	7.998069814e-14
6.500000000e-02	1.891075516e-01	-3.211724183e-02	7.703497537e-14
6.550000000e-02	1.891078158e-01	-3.214263816e-02	1.040167951e-13
6.600000000e-02	1.891080808e-01	-3.216823292e-02	3.172994965e-13
6.650000000e-02	1.891083468e-01	-3.219402620e-02	9.731307522e-14
6.700000000e-02	1.891086137e-01	-3.222001809e-02	6.709444654e-14
6.750000000e-02	1.891088813e-01	-3.224620870e-02	1.513189513e-13
6.800000000e-02	1.891091498e-01	-3.227259812e-02	8.325776353e-14
6.850000000e-02	1.891094190e-01	-3.229918645e-02	2.052065967e-13
6.900000000e-02	1.891096890e-01	-3.232597379e-02	1.260090880e-13
6.950000000e-02	1.891099597e-01	-3.235296025e-02	1.467310441e-13
7.000000000e-02	1.891102311e-01	-3.238014592e-02	6.207942178e-14
7.050000000e-02	1.891105031e-01	-3.240753092e-02	1.306863804e-13
7.100000000e-02	1.891107758e-01	-3.243511535e-02	9.088562537e-14
7.150000000e-02	1.891110490e-01	-3.246289931e-02	1.108871097e-13
7.200000000e-02	1.891113227e-01	-3.249088292e-02	1.743188622e-13
7.250000000e-02	1.891115970e-01	-3.251906627e-02	1.678890869e-13
7.300000000e-02	1.891118717e-01	-3.254744950e-02	2.517448853e-13
7.350000000e-02	1.891121469e-01	-3.257603269e-02	1.238815600e-13
7.400000000e-02	1.891124225e-01	-3.260481598e-02	4.208517904e-14
7.450000000e-02	1.891126985e-01	-3.263379947e-02	1.609060875e-13
7.500000000e-02	1.891129747e-01	-3.266298327e-02	3.298283500e-13
7.550000000e-02	1.891132513e-01	-3.269236751e-02	1.809958410e-13
7.600000000e-02	1.891135282e-01	-3.272195231e-02	6.436823548e-14
7.650000000e-02	1.891138052e-01	-3.275173777e-02	2.033522864e-13
7.700000000e-02	1.891140825e-01	-3.278172403e-02	1.042586177e-13
7.750000000e-02	1.891143598e-01	-3.281191121e-02	2.016872240e-13
7.800000000e-02	1.891146373e-01	-3.284229942e-02	2.684961860e-13
7.850000000e-02	1.891149149e-01	-3.287288880e-02	2.460162003e-13
7.900000000e-02	1.891151924e-01	-3.290367947e-02	1.210540326e-13
7.950000000e-02	1.891154700e-01	-3.293467156e-02	1.182429665e-13
8.000000000e-02	1.891157475e-01	-3.296586519e-02	1.155753719e-13
8.050000000e-02	1.891160248e-01	-3.299726050e-02	1.778108087e-13
8.100000000e-02	1.891163021e-01	-3.302885763e-02	1.653648375e-13
8.150000000e-02	1.891165791e-01	-3.306065669e-02	3.251090176e-13
8.200000000e-02	1.891168559e-01	-3.309265784e-02	2.753015620e-13
8.250000000e-02	1.891171324e-01	-3.312486120e-02	7.717335669e-14
8.300000000e-02	1.891174086e-01	-3.315726692e-02	1.174402076e-13
8.350000000e-02	1.891176844e-01	-3.318987513e-02	1.222712582e-13
8.400000000e-02	1.891179598e-01	-3.322268598e-02	2.670208033e-13
8.450000000e-02	1.891182347e-01	-3.325569960e-02	1.517796638e-13
8.500000000e-02	1.891185091e-01	-3.328891615e-02	1.392307985e-13
8.550000000e-02	1.891187829e-01	-3.332233577e-02	1.131685233e-13
8.600000000e-02	1.891190561e-01	-3.335595861e-02	9.946257536e-14
8.650000000e-02	1.891193287e-01	-3.338978481e-02	9.649876324e-14
8.700000000e-02	1.891196005e-01	-3.342381454e-02	4.193057499e-14
8.750000000e-02	1.891198715e-01	-3.345804793e-02	1.403541921e-13
8.800000000e-02	1.891201418e-01	-3.349248516e-02	2.053218253e-13
8.850000000e-02	1.891204111e-01	-3.352712637e-02	2.243416719e-13
8.900000000e-02	1.891206796e-01	-3.356197172e-02	1.598431676e-13
8.950000000e-02	1.891209470e-01	-3.359702138e-02	1.689367298e-13
9.000000000e-02	1.891212134e-01	-3.363227551e-02	1.878399879e-13
9.050000000e-02	1.891214787e-01	-3.366773427e-02	7.428581709e-14
9.100000000e-02	1.891217428e-01	-3.370339782e-02	8.857290959e-14
9.150000000e-02	1.891220057e-01	-3.373926634e-02	1.447960684e-13
9.200000000e-02	1.891222674e-01	-3.377534000e-02	1.891342328e-13
9.250000000e-02	1.891225277e-01	-3.381161897e-02	7.770490487e-14
9.300000000e-02	1.891227866e-01	-3.384810342e-02	7.418230089e-14
9.350000000e-02	1.891230440e-01	-3.388479353e-02	5.207647424e-14
9.400000000e-02	1.891233000e-01	-3.392168948e-02	1.543630671e-13
9.450000000e-02	1.891235543e-01	-3.395879146e-02	1.509830157e-13
9.500000000e-02	1.891238070e-01	-3.399609963e-02	3.705698004e-13
9.550000000e-02	1.891240580e-01	-3.403361419e-02	3.735124487e-13
9.600000000e-02	1.891243072e-01	-3.407133533e-02	8.385666805e-14
9.650000000e-02	1.891245545e-01	-3.410926324e-02	6.413843332e-13
9.700000000e-02	1.891248000e-01	-3.414739811e-02	1.256474433e-13
9.750000000e-02	1.891250434e-01	-3.418574013e-02	6.771398878e-14
9.800000000e-02	1.891252848e-01	-3.422428950e-02	3.206784005e-13
9.850000000e-02	1.891255240e-01	-3.426304642e-02	9.113321382e-14
9.900000000e-02	1.891257610e-01	-3.430201110e-02	1.590366385e-13
9.950000000e-02	1.891259958e-01	-3.434118373e-02	1.319147947e-13
1.000000000e-01	1.891262282e-01	-3.438056453e-02	8.203928788e-14
1.005000000e-01	1.891264581e-01	-3.442015371e-02	1.554395947e-13
1.010000000e-01	1.891266855e-01	-3.445995147e-02	3.890315549e-14
1.015000000e-01	1.891269104e-01	-3.449995804e-02	2.870732989e-14
1.020000000e-01	1.891271325e-01	-3.454017363e-02	1.693418308e-13
1.025000000e-01	1.891273519e-01	-3.458059847e-02	1.287973514e-13
1.030000000e-01	1.891275685e-01	-3.462123277e-02	1.711653986e-13
1.035000000e-01	1.891277821e-01	-3.466207677e-02	1.524983384e-12
1.040000000e-01	1.891279927e-01	-3.470313070e-02	4.577404927e-14
1.045000000e-01	1.891282003e-01	-3.474439478e-02	1.833894499e-13
1.050000000e-01	1.891284046e-01	-3.478586926e-02	1.071091932e-13
1.055000000e-01	1.891286056e-01	-3.482755438e-02	2.161561638e-13
1.060000000e-01	1.891288033e-01	-3.486945037e-02	1.262922448e-13
1.065000000e-01	1.891289975e-01	-3.491155749e-02	6.679622327e-14
1.070000000e-01	1.891291881e-01	-3.495387598e-02	3.121279982e-13
1.075000000e-01	1.891293751e-01	-3.499640610e-02	4.389978814e-14
1.080000000e-01	1.891295583e-01	-3.503914810e-02	8.382874103e-14
1.085000000e-01	1.891297377e-01	-3.508210225e-02	1.156932432e-13
1.090000000e-01	1.891299130e-01	-3.512526881e-02	1.167775855e-13
1.095000000e-01	1.891300844e-01	-3.516864804e-02	9.158720218e-13
1.100000000e-01	1.891302515e-01	-3.521224022e-02	3.476496880e-13
1.105000000e-01	1.891304143e-01	-3.525604562e-02	1.702772322e-13
1.110000000e-01	1.891305728e-01	-3.530006452e-02	4.472585479e-13
1.115000000e-01	1.891307267e-01	-3.534429721e-02	3.187033168e-13
1.120000000e-01	1.891308761e-01	-3.538874398e-02	2.155357839e-13
1.125000000e-01	1.891310206e-01	-3.543340511e-02	1.204105721e-13
1.130000000e-01	1.891311604e-01	-3.547828090e-02	1.661425592e-13
1.135000000e-01	1.891312951e-01	-3.552337166e-02	1.462493119e-13
1.140000000e-01	1.891314248e-01	-3.556867768e-02	1.173513208e-13
1.145000000e-01	1.891315492e-01	-3.561419928e-02	9.495774848e-14
1.150000000e-01	1.891316682e-01	-3.565993678e-02	3.062667179e-13
1.155000000e-01	1.891317818e-01	-3.570589049e-02	4.376443671e-14
1.160000000e-01	1.891318898e-01	-3.575206074e-02	6.145319809e-14
1.165000000e-01	1.891319920e-01	-3.579844786e-02	2.225026959e-13
1.170000000e-01	1.891320883e-01	-3.584505218e-02	6.849574921e-14
1.175000000e-01	1.891321786e-01	-3.589187404e-02	9.495076263e-14
1.180000000e-01	1.891322627e-01	-3.593891380e-02	1.873273908e-13
1.185000000e-01	1.891323405e-01	-3.598617179e-02	3.626221455e-14
1.190000000e-01	1.891324118e-01	-3.603364838e-02	1.360601404e-13
1.195000000e-01	1.891324764e-01	-3.608134394e-02	1.251141167e-13
1.200000000e-01	1.891325344e-01	-3.612925883e-02	6.431043005e-14
1.205000000e-01	1.891325853e-01	-3.617739342e-02	2.551925930e-13
1.210000000e-01	1.891326292e-01	-3.622574810e-02	6.005885313e-14
1.215000000e-01	1.891326658e-01	-3.627432326e-02	5.706416303e-14
1.220000000e-01	1.891326949e-01	-3.632311930e-02	1.391191637e-13
1.225000000e-01	1.891327165e-01	-3.637213660e-02	5.649881658e-13
1.230000000e-01	1.891327302e-01	-3.642137559e-02	8.966004523e-14
1.235000000e-01	1.891327360e-01	-3.647083669e-02	2.324856399e-13
1.240000000e-01	1.891327337e-01	-3.652052030e-02	6.799750438e-14
1.245000000e-01	1.891327230e-01	-3.657042687e-02	1.161497961e-12
1.250000000e-01	1.891327038e-01	-3.662055683e-02	5.442289898e-14
1.255000000e-01	1.891326758e-01	-3.667091064e-02	4.506023513e-13
1.260000000e-01	1.891326389e-01	-3.672148874e-02	2.367286899e-13
1.265000000e-01	1.891325929e-01	-3.677229161e-02	5.942476626e-14
1.270000000e-01	1.891325376e-01	-3.682331971e-02	2.122277793e-13
1.275000000e-01	1.891324727e-01	-3.687457352e-02	1.973097820e-13
1.280000000e-01	1.891323980e-01	-3.692605355e-02	3.242147509e-13
1.285000000e-01	1.891323133e-01	-3.697776028e-02	1.595684856e-13
1.290000000e-01	1.891322184e-01	-3.702969424e-02	3.973393909e-13
1.295000000e-01	1.891321130e-01	-3.708185593e-02	1.429088571e-13
1.300000000e-01	1.891319969e-01	-3.713424590e-02	6.345665609e-14
1.305000000e-01	1.891318698e-01	-3.718686469e-02	1.801803822e-13
1.310000000e-01	1.891317316e-01	-3.723971284e-02	6.612465527e-14
1.315000000e-01	1.891315818e-01	-3.729279092e-02	6.816927360e-14
1.320000000e-01	1.891314204e-01	-3.734609952e-02	7.525439714e-14
1.325000000e-01	1.891312469e-01	-3.739963921e-02	3.004577680e-13
1.330000000e-01	1.891310611e-01	-3.745341060e-02	1.616839518e-13
1.335000000e-01	1.891308628e-01	-3.750741431e-02	2.149412309e-13
1.340000000e-01	1.891306515e-01	-3.756165097e-02	1.197028355e-13
1.345000000e-01	1.891304272e-01	-3.761612120e-02	4.593303845e-13
1.350000000e-01	1.891301893e-01	-3.767082568e-02	3.639175737e-13
1.355000000e-01	1.891299376e-01	-3.772576507e-02	2.221747520e-13
1.365000000e-01	1.891293916e-01	-3.783635136e-02	2.464537442e-14
1.375000000e-01	1.891287863e-01	-3.794788575e-02	3.603436974e-13
1.380000000e-01	1.891284605e-01	-3.800401033e-02	1.396631608e-13
1.385000000e-01	1.891281189e-01	-3.806037420e-02	1.475222507e-13
1.390000000e-01	1.891277610e-01	-3.811697815e-02	2.848131326e-13
1.395000000e-01	1.891273864e-01	-3.817382297e-02	6.210313157e-13
1.400000000e-01	1.891269947e-01	-3.823090952e-02	4.407995245e-13
1.405000000e-01	1.891265855e-01	-3.828823864e-02	2.344787231e-14
1.410000000e-01	1.891261584e-01	-3.834581120e-02	1.040303879e-13
1.415000000e-01	1.891257129e-01	-3.840362810e-02	1.409331677e-13
1.420000000e-01	1.891252485e-01	-3.846169027e-02	5.199035932e-14
1.425000000e-01	1.891247648e-01	-3.851999865e-02	1.167968719e-13
1.430000000e-01	1.891242614e-01	-3.857855421e-02	9.334854455e-14
1.435000000e-01	1.891237376e-01	-3.863735796e-02	2.272564710e-13
1.445000000e-01	1.891226271e-01	-3.875571413e-02	2.315471524e-13
1.450000000e-01	1.891220393e-01	-3.881526870e-02	7.913498753e-14
1.455000000e-01	1.891214289e-01	-3.887507574e-02	1.766305768e-13
1.460000000e-01	1.891207955e-01	-3.893513641e-02	2.863007331e-13
1.465000000e-01	1.891201385e-01	-3.899545188e-02	3.098861413e-14
1.470000000e-01	1.891194571e-01	-3.905602338e-02	3.352907210e-13
1.475000000e-01	1.891187508e-01	-3.911685218e-02	2.957131274e-13
1.480000000e-01	1.891180188e-01	-3.917793957e-02	3.287857422e-14
1.485000000e-01	1.891172605e-01	-3.923928689e-02	7.041416080e-14
1.490000000e-01	1.891164751e-01	-3.930089552e-02	1.139307482e-13
1.495000000e-01	1.891156620e-01	-3.936276690e-02	5.412086796e-13
1.500000000e-01	1.891148202e-01	-3.942490251e-02	7.457168252e-13
1.505000000e-01	1.891139491e-01	-3.948730386e-02	4.544445478e-13
1.510000000e-01	1.891130477e-01	-3.954997255e-02	4.565981977e-14
1.520000000e-01	1.891111508e-01	-3.967611851e-02	1.010959088e-12
1.525000000e-01	1.891101533e-01	-3.973959924e-02	2.824104865e-13
1.530000000e-01	1.891091220e-01	-3.980335419e-02	5.262793603e-14
1.535000000e-01	1.891080557e-01	-3.986738527e-02	1.539769221e-13
1.540000000e-01	1.891069534e-01	-3.993169442e-02	4.440385086e-13
