# kz [eV]     Omega/c [1/micrones]    Im(epsi1)     Eq(det).Opt det con kz, R=0.5 \mum, Re(epsi1)=3.90, $\mu_c$ = 0.600 eV, solve_det_conkz_vs_kz.py
5.000000000e-04	3.284220335e-01	-1.357829456e-02	3.397754576e-13
1.000000000e-03	3.284220354e-01	-1.357829457e-02	1.176954958e-13
1.500000000e-03	3.284220385e-01	-1.357829459e-02	3.487978242e-13
2.000000000e-03	3.284220429e-01	-1.357829463e-02	2.238775240e-13
2.500000000e-03	3.284220485e-01	-1.357829467e-02	4.218966778e-13
3.000000000e-03	3.284220554e-01	-1.357829472e-02	6.742919432e-14
3.500000000e-03	3.284220635e-01	-1.357829479e-02	1.197574790e-12
4.500000000e-03	3.284220835e-01	-1.357829494e-02	6.948419571e-14
5.000000000e-03	3.284220954e-01	-1.357829503e-02	1.777546247e-13
5.500000000e-03	3.284221085e-01	-1.357829513e-02	9.119141420e-14
6.000000000e-03	3.284221229e-01	-1.357829524e-02	3.208442306e-13
6.500000000e-03	3.284221385e-01	-1.357829536e-02	7.391559975e-14
7.000000000e-03	3.284221554e-01	-1.357829549e-02	5.139839044e-14
7.500000000e-03	3.284221735e-01	-1.357829563e-02	2.693646429e-13
8.000000000e-03	3.284221929e-01	-1.357829578e-02	1.675203703e-13
8.500000000e-03	3.284222135e-01	-1.357829594e-02	3.437391864e-13
9.000000000e-03	3.284222354e-01	-1.357829611e-02	2.018409392e-13
9.500000000e-03	3.284222585e-01	-1.357829629e-02	6.931868632e-14
1.050000000e-02	3.284223085e-01	-1.357829667e-02	3.356451029e-14
1.150000000e-02	3.284223635e-01	-1.357829709e-02	7.961054650e-14
1.200000000e-02	3.284223929e-01	-1.357829732e-02	4.926093363e-13
1.250000000e-02	3.284224235e-01	-1.357829756e-02	5.280125331e-14
1.300000000e-02	3.284224554e-01	-1.357829780e-02	2.158927502e-13
1.350000000e-02	3.284224885e-01	-1.357829806e-02	1.349086993e-13
1.400000000e-02	3.284225229e-01	-1.357829832e-02	1.632458867e-13
1.450000000e-02	3.284225585e-01	-1.357829859e-02	2.273903063e-13
1.600000000e-02	3.284226729e-01	-1.357829947e-02	2.156803188e-13
1.700000000e-02	3.284227554e-01	-1.357830011e-02	1.185893424e-12
1.750000000e-02	3.284227985e-01	-1.357830044e-02	2.507853804e-13
1.800000000e-02	3.284228429e-01	-1.357830078e-02	6.343278616e-13
1.850000000e-02	3.284228885e-01	-1.357830113e-02	1.257472065e-14
1.900000000e-02	3.284229354e-01	-1.357830149e-02	2.634594883e-13
1.950000000e-02	3.284229835e-01	-1.357830186e-02	1.392911768e-13
2.000000000e-02	3.284230329e-01	-1.357830224e-02	1.643126003e-13
2.050000000e-02	3.284230835e-01	-1.357830263e-02	7.945603852e-14
2.100000000e-02	3.284231354e-01	-1.357830303e-02	2.715086177e-13
2.150000000e-02	3.284231885e-01	-1.357830344e-02	1.130793868e-13
2.200000000e-02	3.284232429e-01	-1.357830386e-02	7.791285765e-14
2.250000000e-02	3.284232985e-01	-1.357830428e-02	2.753343916e-13
2.300000000e-02	3.284233554e-01	-1.357830472e-02	7.272898223e-13
2.350000000e-02	3.284234136e-01	-1.357830517e-02	1.118393571e-13
2.400000000e-02	3.284234729e-01	-1.357830562e-02	5.493191942e-13
2.450000000e-02	3.284235336e-01	-1.357830609e-02	1.894329627e-13
2.500000000e-02	3.284235954e-01	-1.357830657e-02	2.355457573e-14
2.550000000e-02	3.284236586e-01	-1.357830705e-02	1.668318213e-13
2.600000000e-02	3.284237229e-01	-1.357830755e-02	4.599232466e-13
2.650000000e-02	3.284237886e-01	-1.357830805e-02	1.491763604e-13
2.700000000e-02	3.284238554e-01	-1.357830856e-02	1.510190300e-13
2.750000000e-02	3.284239236e-01	-1.357830909e-02	6.862505456e-14
2.800000000e-02	3.284239929e-01	-1.357830962e-02	5.537076601e-13
2.850000000e-02	3.284240636e-01	-1.357831016e-02	4.187032293e-14
2.900000000e-02	3.284241354e-01	-1.357831072e-02	1.384104740e-13
2.950000000e-02	3.284242086e-01	-1.357831128e-02	6.765649676e-14
3.000000000e-02	3.284242829e-01	-1.357831185e-02	1.058152667e-13
3.050000000e-02	3.284243586e-01	-1.357831243e-02	1.524210304e-13
3.100000000e-02	3.284244354e-01	-1.357831302e-02	3.039658175e-14
3.200000000e-02	3.284245929e-01	-1.357831423e-02	5.447655338e-14
3.250000000e-02	3.284246736e-01	-1.357831485e-02	8.437611021e-14
3.300000000e-02	3.284247554e-01	-1.357831548e-02	3.252094415e-13
3.350000000e-02	3.284248386e-01	-1.357831612e-02	2.983091132e-13
3.400000000e-02	3.284249230e-01	-1.357831677e-02	3.172117046e-13
3.450000000e-02	3.284250086e-01	-1.357831742e-02	9.191170173e-14
3.500000000e-02	3.284250955e-01	-1.357831809e-02	1.116697680e-13
3.550000000e-02	3.284251836e-01	-1.357831877e-02	1.782738277e-13
3.600000000e-02	3.284252730e-01	-1.357831945e-02	1.176730905e-13
3.650000000e-02	3.284253636e-01	-1.357832015e-02	1.203356541e-13
3.700000000e-02	3.284254555e-01	-1.357832085e-02	2.044539419e-13
3.750000000e-02	3.284255486e-01	-1.357832157e-02	3.600285057e-13
3.800000000e-02	3.284256430e-01	-1.357832229e-02	3.130687101e-13
3.850000000e-02	3.284257386e-01	-1.357832303e-02	6.448092514e-14
3.900000000e-02	3.284258355e-01	-1.357832377e-02	6.650004608e-14
3.950000000e-02	3.284259336e-01	-1.357832452e-02	3.622217554e-13
4.050000000e-02	3.284261336e-01	-1.357832606e-02	2.915234655e-13
4.100000000e-02	3.284262355e-01	-1.357832684e-02	3.476693541e-13
4.150000000e-02	3.284263386e-01	-1.357832763e-02	6.876685064e-14
4.200000000e-02	3.284264430e-01	-1.357832843e-02	2.491988308e-13
4.250000000e-02	3.284265486e-01	-1.357832924e-02	5.489713006e-14
4.350000000e-02	3.284267636e-01	-1.357833089e-02	4.370647038e-13
4.400000000e-02	3.284268730e-01	-1.357833173e-02	2.476581079e-13
4.450000000e-02	3.284269836e-01	-1.357833258e-02	3.072164372e-13
4.500000000e-02	3.284270955e-01	-1.357833344e-02	2.205058941e-13
4.550000000e-02	3.284272086e-01	-1.357833431e-02	5.125323752e-14
4.600000000e-02	3.284273230e-01	-1.357833518e-02	2.820196838e-13
4.650000000e-02	3.284274386e-01	-1.357833607e-02	1.928483447e-12
4.700000000e-02	3.284275555e-01	-1.357833697e-02	9.146835876e-14
4.750000000e-02	3.284276736e-01	-1.357833787e-02	5.760864697e-14
4.800000000e-02	3.284277930e-01	-1.357833879e-02	1.629674734e-13
4.850000000e-02	3.284279136e-01	-1.357833971e-02	3.746222147e-13
4.900000000e-02	3.284280355e-01	-1.357834065e-02	8.802680006e-15
4.950000000e-02	3.284281586e-01	-1.357834159e-02	9.254756346e-14
5.000000000e-02	3.284282830e-01	-1.357834254e-02	1.768552083e-13
5.050000000e-02	3.284284086e-01	-1.357834351e-02	2.612543113e-13
5.100000000e-02	3.284285355e-01	-1.357834448e-02	3.967317668e-13
5.150000000e-02	3.284286636e-01	-1.357834546e-02	6.626933464e-14
5.200000000e-02	3.284287930e-01	-1.357834645e-02	4.047166301e-14
5.250000000e-02	3.284289236e-01	-1.357834745e-02	1.359696173e-13
5.300000000e-02	3.284290555e-01	-1.357834846e-02	5.473459948e-13
5.350000000e-02	3.284291886e-01	-1.357834948e-02	1.014737910e-13
5.400000000e-02	3.284293230e-01	-1.357835051e-02	1.273105118e-13
5.450000000e-02	3.284294586e-01	-1.357835155e-02	3.406920231e-13
5.500000000e-02	3.284295955e-01	-1.357835260e-02	2.171298198e-13
5.600000000e-02	3.284298730e-01	-1.357835472e-02	4.967821984e-13
5.750000000e-02	3.284302986e-01	-1.357835798e-02	1.281167810e-13
5.800000000e-02	3.284304430e-01	-1.357835909e-02	2.883158746e-13
5.850000000e-02	3.284305886e-01	-1.357836020e-02	5.601461629e-13
5.900000000e-02	3.284307355e-01	-1.357836133e-02	1.252979744e-13
5.950000000e-02	3.284308836e-01	-1.357836246e-02	7.276372219e-14
6.000000000e-02	3.284310329e-01	-1.357836360e-02	7.877236208e-14
6.050000000e-02	3.284311836e-01	-1.357836475e-02	1.073691006e-13
6.100000000e-02	3.284313354e-01	-1.357836592e-02	2.112526099e-13
6.150000000e-02	3.284314886e-01	-1.357836709e-02	4.933819677e-13
6.200000000e-02	3.284316429e-01	-1.357836827e-02	6.063456630e-13
6.250000000e-02	3.284317986e-01	-1.357836946e-02	1.166173095e-13
6.300000000e-02	3.284319554e-01	-1.357837066e-02	1.946946160e-13
6.350000000e-02	3.284321136e-01	-1.357837187e-02	5.745842680e-13
6.400000000e-02	3.284322729e-01	-1.357837309e-02	1.056058521e-13
6.500000000e-02	3.284325954e-01	-1.357837555e-02	8.241798780e-14
6.550000000e-02	3.284327585e-01	-1.357837680e-02	3.135273371e-13
6.600000000e-02	3.284329229e-01	-1.357837806e-02	4.189219603e-14
6.650000000e-02	3.284330885e-01	-1.357837932e-02	2.059447772e-13
6.700000000e-02	3.284332554e-01	-1.357838060e-02	4.059721407e-14
6.750000000e-02	3.284334235e-01	-1.357838188e-02	1.007769355e-13
6.800000000e-02	3.284335929e-01	-1.357838318e-02	2.913136053e-14
6.850000000e-02	3.284337635e-01	-1.357838448e-02	7.900287687e-14
6.900000000e-02	3.284339354e-01	-1.357838579e-02	1.085006893e-12
6.950000000e-02	3.284341085e-01	-1.357838712e-02	4.983228139e-13
7.050000000e-02	3.284344585e-01	-1.357838979e-02	1.246956750e-13
7.100000000e-02	3.284346354e-01	-1.357839114e-02	2.048262158e-13
7.150000000e-02	3.284348135e-01	-1.357839250e-02	1.823487684e-13
7.200000000e-02	3.284349929e-01	-1.357839387e-02	4.696211660e-14
7.250000000e-02	3.284351735e-01	-1.357839525e-02	1.361920500e-13
7.300000000e-02	3.284353553e-01	-1.357839664e-02	9.969954726e-14
7.350000000e-02	3.284355385e-01	-1.357839804e-02	8.807083170e-14
7.400000000e-02	3.284357228e-01	-1.357839944e-02	2.775364167e-13
7.450000000e-02	3.284359084e-01	-1.357840086e-02	1.508117840e-13
7.500000000e-02	3.284360953e-01	-1.357840229e-02	1.831399586e-13
7.550000000e-02	3.284362834e-01	-1.357840372e-02	1.895132426e-13
7.650000000e-02	3.284366634e-01	-1.357840662e-02	5.706144691e-13
7.700000000e-02	3.284368553e-01	-1.357840808e-02	6.222428667e-13
7.750000000e-02	3.284370484e-01	-1.357840956e-02	3.983182346e-13
7.850000000e-02	3.284374384e-01	-1.357841253e-02	1.165488426e-13
7.900000000e-02	3.284376352e-01	-1.357841403e-02	4.482999795e-13
7.950000000e-02	3.284378334e-01	-1.357841554e-02	4.210163195e-13
8.000000000e-02	3.284380327e-01	-1.357841706e-02	1.674609696e-13
8.050000000e-02	3.284382333e-01	-1.357841859e-02	1.844495339e-13
8.150000000e-02	3.284386383e-01	-1.357842168e-02	2.588917360e-13
8.200000000e-02	3.284388427e-01	-1.357842323e-02	1.237232893e-13
8.250000000e-02	3.284390483e-01	-1.357842480e-02	3.261838631e-13
8.300000000e-02	3.284392552e-01	-1.357842638e-02	2.166931922e-13
8.350000000e-02	3.284394633e-01	-1.357842796e-02	2.158775810e-13
8.450000000e-02	3.284398833e-01	-1.357843116e-02	3.539528506e-14
8.500000000e-02	3.284400951e-01	-1.357843277e-02	1.498813290e-13
8.600000000e-02	3.284405226e-01	-1.357843603e-02	3.285358933e-13
8.650000000e-02	3.284407382e-01	-1.357843767e-02	5.421760099e-13
8.700000000e-02	3.284409551e-01	-1.357843932e-02	6.710798530e-14
8.750000000e-02	3.284411732e-01	-1.357844098e-02	3.876514550e-14
8.800000000e-02	3.284413925e-01	-1.357844265e-02	1.603683073e-13
8.850000000e-02	3.284416132e-01	-1.357844433e-02	1.956835699e-13
8.900000000e-02	3.284418350e-01	-1.357844602e-02	1.751312561e-13
8.950000000e-02	3.284420581e-01	-1.357844772e-02	2.424966449e-13
9.000000000e-02	3.284422825e-01	-1.357844942e-02	1.960412402e-13
9.050000000e-02	3.284425081e-01	-1.357845114e-02	3.444501052e-13
9.150000000e-02	3.284429631e-01	-1.357845460e-02	8.828507471e-14
9.200000000e-02	3.284431924e-01	-1.357845634e-02	2.593638204e-13
9.250000000e-02	3.284434230e-01	-1.357845809e-02	6.902881576e-14
9.300000000e-02	3.284436549e-01	-1.357845986e-02	2.590382235e-13
9.350000000e-02	3.284438880e-01	-1.357846163e-02	1.172291556e-12
9.400000000e-02	3.284441224e-01	-1.357846341e-02	1.925626844e-12
9.500000000e-02	3.284445948e-01	-1.357846700e-02	1.536536857e-13
9.550000000e-02	3.284448329e-01	-1.357846881e-02	3.509038054e-13
9.600000000e-02	3.284450723e-01	-1.357847063e-02	1.540622502e-13
9.650000000e-02	3.284453129e-01	-1.357847246e-02	1.550479830e-13
9.700000000e-02	3.284455547e-01	-1.357847429e-02	1.919945432e-14
9.750000000e-02	3.284457978e-01	-1.357847614e-02	2.651588098e-13
9.800000000e-02	3.284460422e-01	-1.357847799e-02	3.508150730e-13
9.850000000e-02	3.284462878e-01	-1.357847986e-02	4.564250102e-13
9.950000000e-02	3.284467828e-01	-1.357848362e-02	2.276586703e-13
1.005000000e-01	3.284472827e-01	-1.357848741e-02	2.183634526e-13
1.010000000e-01	3.284475346e-01	-1.357848932e-02	1.010274283e-12
1.015000000e-01	3.284477877e-01	-1.357849124e-02	3.182273068e-13
1.020000000e-01	3.284480420e-01	-1.357849317e-02	6.970537201e-14
1.025000000e-01	3.284482976e-01	-1.357849511e-02	1.538172133e-13
1.030000000e-01	3.284485545e-01	-1.357849706e-02	1.021334548e-13
1.040000000e-01	3.284490719e-01	-1.357850098e-02	6.534906406e-14
1.050000000e-01	3.284495944e-01	-1.357850494e-02	3.342861021e-13
1.055000000e-01	3.284498575e-01	-1.357850693e-02	8.595612094e-14
1.060000000e-01	3.284501218e-01	-1.357850894e-02	2.361095987e-13
1.065000000e-01	3.284503874e-01	-1.357851095e-02	2.361580432e-13
1.070000000e-01	3.284506543e-01	-1.357851297e-02	1.282485327e-13
1.075000000e-01	3.284509224e-01	-1.357851500e-02	2.512957421e-13
1.080000000e-01	3.284511917e-01	-1.357851704e-02	6.453112564e-13
1.090000000e-01	3.284517341e-01	-1.357852115e-02	3.971848490e-13
1.095000000e-01	3.284520072e-01	-1.357852322e-02	3.642473577e-13
1.100000000e-01	3.284522816e-01	-1.357852530e-02	4.458911413e-13
1.105000000e-01	3.284525572e-01	-1.357852738e-02	6.588051843e-13
1.110000000e-01	3.284528340e-01	-1.357852948e-02	7.247143663e-13
1.115000000e-01	3.284531121e-01	-1.357853158e-02	5.776228640e-13
1.120000000e-01	3.284533914e-01	-1.357853370e-02	1.470194015e-12
1.125000000e-01	3.284536720e-01	-1.357853582e-02	3.636599343e-13
1.130000000e-01	3.284539539e-01	-1.357853795e-02	6.094627438e-14
1.140000000e-01	3.284545213e-01	-1.357854225e-02	3.035357166e-13
1.145000000e-01	3.284548069e-01	-1.357854441e-02	4.871661906e-13
1.150000000e-01	3.284550937e-01	-1.357854657e-02	1.301308878e-12
1.155000000e-01	3.284553818e-01	-1.357854875e-02	1.578049807e-13
1.165000000e-01	3.284559618e-01	-1.357855314e-02	7.808699153e-13
1.170000000e-01	3.284562536e-01	-1.357855534e-02	3.714534523e-13
1.175000000e-01	3.284565467e-01	-1.357855756e-02	3.298583728e-13
1.180000000e-01	3.284568410e-01	-1.357855978e-02	3.711447589e-13
1.195000000e-01	3.284577315e-01	-1.357856651e-02	1.375286268e-13
1.200000000e-01	3.284580308e-01	-1.357856877e-02	6.199549299e-13
1.210000000e-01	3.284586333e-01	-1.357857332e-02	4.500632196e-13
1.215000000e-01	3.284589363e-01	-1.357857561e-02	3.413780654e-13
1.225000000e-01	3.284595463e-01	-1.357858021e-02	1.873609017e-13
1.230000000e-01	3.284598531e-01	-1.357858253e-02	3.467689915e-13
1.240000000e-01	3.284604705e-01	-1.357858719e-02	3.445453559e-13
1.245000000e-01	3.284607811e-01	-1.357858953e-02	3.272832166e-13
1.250000000e-01	3.284610929e-01	-1.357859188e-02	4.643102702e-13
1.255000000e-01	3.284614060e-01	-1.357859424e-02	9.065982878e-13
1.260000000e-01	3.284617203e-01	-1.357859661e-02	2.020076393e-13
1.265000000e-01	3.284620359e-01	-1.357859899e-02	2.341743751e-13
1.270000000e-01	3.284623527e-01	-1.357860138e-02	1.244478706e-13
1.275000000e-01	3.284626708e-01	-1.357860378e-02	3.693159403e-13
1.285000000e-01	3.284633107e-01	-1.357860860e-02	4.192764275e-13
1.290000000e-01	3.284636325e-01	-1.357861103e-02	1.833039683e-13
1.295000000e-01	3.284639556e-01	-1.357861346e-02	2.027809282e-14
1.300000000e-01	3.284642799e-01	-1.357861591e-02	3.585469959e-13
1.310000000e-01	3.284649323e-01	-1.357862082e-02	9.447827724e-14
1.315000000e-01	3.284652603e-01	-1.357862329e-02	2.515085693e-13
1.325000000e-01	3.284659202e-01	-1.357862826e-02	2.414874832e-13
1.335000000e-01	3.284665851e-01	-1.357863327e-02	1.499077899e-13
1.340000000e-01	3.284669194e-01	-1.357863579e-02	4.670138985e-13
1.350000000e-01	3.284675918e-01	-1.357864085e-02	6.624268673e-13
1.355000000e-01	3.284679299e-01	-1.357864339e-02	9.935010849e-14
1.360000000e-01	3.284682692e-01	-1.357864594e-02	3.266873980e-13
1.365000000e-01	3.284686097e-01	-1.357864851e-02	2.128959494e-13
1.375000000e-01	3.284692946e-01	-1.357865366e-02	6.318523786e-14
1.385000000e-01	3.284699845e-01	-1.357865885e-02	1.822817214e-13
1.395000000e-01	3.284706793e-01	-1.357866407e-02	2.249005435e-12
1.400000000e-01	3.284710286e-01	-1.357866670e-02	5.748825462e-13
1.405000000e-01	3.284713792e-01	-1.357866933e-02	7.458419871e-14
1.410000000e-01	3.284717310e-01	-1.357867198e-02	1.151690207e-13
1.420000000e-01	3.284724383e-01	-1.357867729e-02	9.478392213e-13
1.425000000e-01	3.284727939e-01	-1.357867996e-02	1.549183400e-13
1.430000000e-01	3.284731507e-01	-1.357868264e-02	1.354531007e-12
1.435000000e-01	3.284735087e-01	-1.357868533e-02	3.692354089e-13
1.440000000e-01	3.284738680e-01	-1.357868803e-02	4.444517501e-12
1.450000000e-01	3.284745904e-01	-1.357869345e-02	1.082249872e-13
1.455000000e-01	3.284749534e-01	-1.357869618e-02	5.189792728e-13
1.460000000e-01	3.284753177e-01	-1.357869892e-02	2.177795108e-13
1.470000000e-01	3.284760501e-01	-1.357870441e-02	1.063409457e-13
1.485000000e-01	3.284771579e-01	-1.357871273e-02	3.723251735e-13
1.490000000e-01	3.284775297e-01	-1.357871552e-02	3.188569939e-13
1.500000000e-01	3.284782770e-01	-1.357872112e-02	1.792235271e-13
1.505000000e-01	3.284786526e-01	-1.357872394e-02	6.936963608e-13
1.510000000e-01	3.284790294e-01	-1.357872676e-02	7.023377785e-13
1.515000000e-01	3.284794074e-01	-1.357872960e-02	4.654776241e-13
1.520000000e-01	3.284797867e-01	-1.357873244e-02	2.469903896e-13
1.525000000e-01	3.284801672e-01	-1.357873530e-02	2.152917637e-13
1.530000000e-01	3.284805490e-01	-1.357873816e-02	1.535401084e-12
1.535000000e-01	3.284809320e-01	-1.357874103e-02	1.104901076e-13
1.540000000e-01	3.284813163e-01	-1.357874391e-02	6.500167078e-13
1.545000000e-01	3.284817018e-01	-1.357874680e-02	1.685981509e-13
1.550000000e-01	3.284820886e-01	-1.357874970e-02	5.905563274e-13
1.555000000e-01	3.284824766e-01	-1.357875260e-02	7.889916904e-13
1.560000000e-01	3.284828659e-01	-1.357875552e-02	8.490581545e-13
1.570000000e-01	3.284836482e-01	-1.357876138e-02	2.478681899e-13
1.575000000e-01	3.284840412e-01	-1.357876432e-02	1.552629656e-13
1.580000000e-01	3.284844355e-01	-1.357876728e-02	4.184020166e-13
1.585000000e-01	3.284848310e-01	-1.357877024e-02	2.488071020e-13
1.590000000e-01	3.284852278e-01	-1.357877321e-02	4.479585200e-13
1.600000000e-01	3.284860251e-01	-1.357877918e-02	7.824929995e-13
1.610000000e-01	3.284868274e-01	-1.357878518e-02	6.230250226e-14
1.615000000e-01	3.284872304e-01	-1.357878820e-02	3.388677046e-13
1.620000000e-01	3.284876346e-01	-1.357879123e-02	6.154295915e-13
1.630000000e-01	3.284884469e-01	-1.357879730e-02	2.985425962e-13
1.635000000e-01	3.284888549e-01	-1.357880036e-02	1.268320586e-12
1.640000000e-01	3.284892642e-01	-1.357880342e-02	7.124403479e-14
1.650000000e-01	3.284900864e-01	-1.357880957e-02	4.077884896e-13
1.655000000e-01	3.284904994e-01	-1.357881266e-02	1.642198722e-13
1.660000000e-01	3.284909137e-01	-1.357881576e-02	7.331804368e-12
1.665000000e-01	3.284913292e-01	-1.357881886e-02	3.387686338e-13
1.670000000e-01	3.284917459e-01	-1.357882198e-02	2.402230544e-13
1.675000000e-01	3.284921639e-01	-1.357882511e-02	2.510770152e-13
1.680000000e-01	3.284925832e-01	-1.357882824e-02	3.034158407e-13
1.685000000e-01	3.284930037e-01	-1.357883138e-02	3.472370343e-14
1.690000000e-01	3.284934254e-01	-1.357883454e-02	4.869544907e-13
1.700000000e-01	3.284942727e-01	-1.357884087e-02	4.742805928e-13
1.705000000e-01	3.284946982e-01	-1.357884405e-02	2.445090250e-12
1.710000000e-01	3.284951249e-01	-1.357884724e-02	6.500845589e-13
1.720000000e-01	3.284959821e-01	-1.357885364e-02	5.675057275e-13
1.725000000e-01	3.284964126e-01	-1.357885686e-02	4.230573090e-13
1.730000000e-01	3.284968444e-01	-1.357886008e-02	5.824234001e-13
1.735000000e-01	3.284972773e-01	-1.357886332e-02	9.612685920e-13
1.745000000e-01	3.284981471e-01	-1.357886981e-02	3.406532143e-13
1.750000000e-01	3.284985838e-01	-1.357887308e-02	1.458609065e-12
1.755000000e-01	3.284990218e-01	-1.357887635e-02	2.991372557e-13
1.765000000e-01	3.284999015e-01	-1.357888292e-02	2.361996029e-13
1.770000000e-01	3.285003432e-01	-1.357888622e-02	1.023195379e-12
1.780000000e-01	3.285012304e-01	-1.357889284e-02	4.800786246e-13
1.785000000e-01	3.285016759e-01	-1.357889616e-02	1.173571391e-12
1.790000000e-01	3.285021226e-01	-1.357889950e-02	1.486471576e-13
1.795000000e-01	3.285025706e-01	-1.357890284e-02	5.842418495e-13
1.800000000e-01	3.285030198e-01	-1.357890620e-02	4.203115845e-13
1.805000000e-01	3.285034702e-01	-1.357890956e-02	1.866539320e-13
1.815000000e-01	3.285043749e-01	-1.357891631e-02	7.486724738e-13
