# R [micrones]     Omega/c [1/micrones]    Im(epsi1)     Eq(det).Opt det SIN kz, mu = 0.6 eV, Re(epsi1)=3.90, solve_det_sinkz_vs_R.py
5.000000000e-01	3.284220329e-01	-1.357829455e-02	1.925364326e-11
5.500000000e-01	3.131174949e-01	-1.364015102e-02	7.420916731e-11
6.000000000e-01	2.997607928e-01	-1.372535505e-02	7.806192173e-12
6.500000000e-01	2.879706028e-01	-1.382789422e-02	1.859643066e-11
7.000000000e-01	2.774625569e-01	-1.394346601e-02	7.318484135e-12
7.500000000e-01	2.680196871e-01	-1.406892094e-02	1.502873736e-11
8.000000000e-01	2.594731851e-01	-1.420190923e-02	9.072906739e-12
8.500000000e-01	2.516894751e-01	-1.434064917e-02	1.702471794e-11
9.000000000e-01	2.445612897e-01	-1.448377100e-02	2.392709365e-11
9.500000000e-01	2.380013616e-01	-1.463020918e-02	1.286951639e-11
1.000000000e+00	2.319378709e-01	-1.477912626e-02	1.123526027e-11
1.050000000e+00	2.263110983e-01	-1.492985834e-02	1.782899864e-11
1.100000000e+00	2.210709235e-01	-1.508187518e-02	2.497867540e-11
1.150000000e+00	2.161749285e-01	-1.523475052e-02	8.969545685e-12
1.200000000e+00	2.115869393e-01	-1.538813994e-02	1.455229496e-11
1.250000000e+00	2.072758920e-01	-1.554176392e-02	2.389888350e-11
1.300000000e+00	2.032149403e-01	-1.569539484e-02	1.111298506e-11
1.350000000e+00	1.993807466e-01	-1.584884689e-02	1.001880295e-11
1.400000000e+00	1.957529138e-01	-1.600196812e-02	7.336258991e-12
1.450000000e+00	1.923135250e-01	-1.615463427e-02	6.972760411e-12
1.500000000e+00	1.890467693e-01	-1.630674371e-02	9.553628279e-12
1.550000000e+00	1.859386332e-01	-1.645821348e-02	1.335369263e-11
1.600000000e+00	1.829766466e-01	-1.660897610e-02	2.362780634e-11
1.650000000e+00	1.801496705e-01	-1.675897688e-02	1.062168770e-11
1.700000000e+00	1.774477199e-01	-1.690817185e-02	2.409645771e-11
1.750000000e+00	1.748618146e-01	-1.705652596e-02	6.918610456e-12
1.800000000e+00	1.723838525e-01	-1.720401168e-02	1.360290606e-11
1.850000000e+00	1.700065024e-01	-1.735060774e-02	1.313886817e-11
1.900000000e+00	1.677231121e-01	-1.749629820e-02	2.298257295e-11
1.950000000e+00	1.655276296e-01	-1.764107158e-02	1.346981253e-11
2.000000000e+00	1.634145352e-01	-1.778492014e-02	6.202881916e-12
2.050000000e+00	1.613787830e-01	-1.792783934e-02	1.192972909e-11
2.100000000e+00	1.594157495e-01	-1.806982735e-02	1.119115019e-11
2.150000000e+00	1.575211893e-01	-1.821088457e-02	1.008418645e-11
2.200000000e+00	1.556911964e-01	-1.835101333e-02	8.560997642e-12
2.250000000e+00	1.539221699e-01	-1.849021758e-02	4.369213988e-11
2.300000000e+00	1.522107842e-01	-1.862850263e-02	1.613964594e-11
2.350000000e+00	1.505539623e-01	-1.876587490e-02	1.646954832e-11
2.400000000e+00	1.489488526e-01	-1.890234179e-02	1.503692169e-11
2.450000000e+00	1.473928080e-01	-1.903791147e-02	8.912648931e-12
2.500000000e+00	1.458833674e-01	-1.917259279e-02	1.879366569e-11
2.550000000e+00	1.444182392e-01	-1.930639511e-02	9.202388470e-12
2.600000000e+00	1.429952867e-01	-1.943932822e-02	9.436502594e-12
2.650000000e+00	1.416125149e-01	-1.957140228e-02	9.726170983e-12
2.700000000e+00	1.402680584e-01	-1.970262771e-02	6.789712870e-12
2.750000000e+00	1.389601711e-01	-1.983301515e-02	1.825385265e-11
2.800000000e+00	1.376872162e-01	-1.996257536e-02	1.763322907e-11
2.850000000e+00	1.364476580e-01	-2.009131925e-02	2.648075034e-11
2.900000000e+00	1.352400535e-01	-2.021925776e-02	7.669951283e-12
2.950000000e+00	1.340630457e-01	-2.034640187e-02	5.985252459e-12
3.000000000e+00	1.329153571e-01	-2.047276256e-02	9.393754421e-12
3.050000000e+00	1.317957835e-01	-2.059835079e-02	1.074261290e-11
3.100000000e+00	1.307031891e-01	-2.072317746e-02	8.584615204e-12
3.150000000e+00	1.296365013e-01	-2.084725340e-02	6.554517562e-12
3.200000000e+00	1.285947062e-01	-2.097058937e-02	1.778821017e-11
3.250000000e+00	1.275768449e-01	-2.109319602e-02	9.093694851e-12
3.300000000e+00	1.265820092e-01	-2.121508391e-02	2.569203855e-11
3.350000000e+00	1.256093387e-01	-2.133626345e-02	1.843859767e-11
3.400000000e+00	1.246580173e-01	-2.145674497e-02	1.702584132e-11
3.450000000e+00	1.237272703e-01	-2.157653862e-02	1.108558915e-11
3.500000000e+00	1.228163621e-01	-2.169565445e-02	1.392208534e-11
3.550000000e+00	1.219245932e-01	-2.181410234e-02	1.633392098e-11
3.600000000e+00	1.210512983e-01	-2.193189206e-02	2.327875825e-11
3.650000000e+00	1.201958440e-01	-2.204903320e-02	2.030477966e-11
3.700000000e+00	1.193576270e-01	-2.216553521e-02	5.932790748e-12
3.750000000e+00	1.185360721e-01	-2.228140741e-02	1.178287747e-11
3.800000000e+00	1.177306309e-01	-2.239665894e-02	1.452313458e-11
3.850000000e+00	1.169407796e-01	-2.251129882e-02	1.060907930e-11
3.900000000e+00	1.161660182e-01	-2.262533590e-02	2.879686801e-11
3.950000000e+00	1.154058690e-01	-2.273877887e-02	1.107118045e-11
4.000000000e+00	1.146598749e-01	-2.285163631e-02	1.291775547e-11
4.050000000e+00	1.139275989e-01	-2.296391663e-02	5.534266425e-12
4.100000000e+00	1.132086225e-01	-2.307562809e-02	5.626766246e-12
4.150000000e+00	1.125025450e-01	-2.318677882e-02	1.251699493e-11
4.200000000e+00	1.118089823e-01	-2.329737678e-02	1.151211900e-11
4.250000000e+00	1.111275662e-01	-2.340742983e-02	1.198420073e-11
4.300000000e+00	1.104579436e-01	-2.351694567e-02	1.243878559e-11
4.350000000e+00	1.097997755e-01	-2.362593186e-02	9.495150961e-12
4.400000000e+00	1.091527365e-01	-2.373439584e-02	6.281523745e-12
4.450000000e+00	1.085165138e-01	-2.384234490e-02	1.796240721e-11
4.500000000e+00	1.078908072e-01	-2.394978620e-02	7.721106189e-12
4.550000000e+00	1.072753277e-01	-2.405672681e-02	1.459436244e-11
4.600000000e+00	1.066697973e-01	-2.416317363e-02	6.594449733e-12
4.650000000e+00	1.060739488e-01	-2.426913347e-02	7.347408629e-12
4.700000000e+00	1.054875247e-01	-2.437461298e-02	1.345764457e-11
4.750000000e+00	1.049102770e-01	-2.447961874e-02	1.137236468e-11
4.800000000e+00	1.043419669e-01	-2.458415718e-02	1.020674151e-11
4.850000000e+00	1.037823641e-01	-2.468823463e-02	3.186607013e-11
4.900000000e+00	1.032312465e-01	-2.479185730e-02	1.399341547e-11
4.950000000e+00	1.026884001e-01	-2.489503130e-02	1.380286155e-11
5.000000000e+00	1.021536181e-01	-2.499776263e-02	1.474693209e-11
5.050000000e+00	1.016267011e-01	-2.510005717e-02	1.376029494e-11
5.100000000e+00	1.011074563e-01	-2.520192073e-02	1.472096549e-11
5.150000000e+00	1.005956979e-01	-2.530335900e-02	7.613764205e-12
5.200000000e+00	1.000912458e-01	-2.540437756e-02	6.258540413e-12
5.250000000e+00	9.959392638e-02	-2.550498190e-02	2.695701175e-11
5.300000000e+00	9.910357146e-02	-2.560517744e-02	2.263095740e-11
5.350000000e+00	9.862001850e-02	-2.570496948e-02	1.125871230e-11
5.400000000e+00	9.814311020e-02	-2.580436322e-02	1.828067459e-11
5.450000000e+00	9.767269432e-02	-2.590336382e-02	7.529809766e-12
5.500000000e+00	9.720862346e-02	-2.600197629e-02	1.542597175e-11
5.550000000e+00	9.675075488e-02	-2.610020561e-02	9.939160613e-12
5.600000000e+00	9.629895031e-02	-2.619805663e-02	8.625188033e-12
5.650000000e+00	9.585307574e-02	-2.629553416e-02	1.047998952e-11
5.700000000e+00	9.541300131e-02	-2.639264290e-02	1.582835040e-11
5.750000000e+00	9.497860109e-02	-2.648938747e-02	2.206842778e-11
5.800000000e+00	9.454975296e-02	-2.658577245e-02	2.103865929e-11
5.850000000e+00	9.412633846e-02	-2.668180230e-02	1.700317030e-11
5.900000000e+00	9.370824263e-02	-2.677748144e-02	1.518801546e-11
5.950000000e+00	9.329535393e-02	-2.687281419e-02	1.155243060e-11
6.000000000e+00	9.288756402e-02	-2.696780482e-02	1.155047038e-11
6.050000000e+00	9.248476775e-02	-2.706245753e-02	1.992064062e-11
6.100000000e+00	9.208686295e-02	-2.715677643e-02	2.105302697e-11
6.150000000e+00	9.169375037e-02	-2.725076559e-02	1.044926345e-11
6.200000000e+00	9.130533357e-02	-2.734442900e-02	1.882162979e-11
6.250000000e+00	9.092151880e-02	-2.743777059e-02	1.112581230e-11
6.300000000e+00	9.054221492e-02	-2.753079423e-02	1.500943996e-11
6.350000000e+00	9.016733331e-02	-2.762350374e-02	7.455333044e-12
6.400000000e+00	8.979678777e-02	-2.771590284e-02	7.703093108e-12
6.450000000e+00	8.943049442e-02	-2.780799523e-02	5.399966743e-12
6.500000000e+00	8.906837167e-02	-2.789978454e-02	2.424363040e-11
6.550000000e+00	8.871034010e-02	-2.799127433e-02	9.033345195e-12
6.600000000e+00	8.835632237e-02	-2.808246814e-02	8.969852492e-12
6.650000000e+00	8.800624321e-02	-2.817336942e-02	6.558735668e-12
6.700000000e+00	8.766002931e-02	-2.826398158e-02	1.469835517e-11
6.750000000e+00	8.731760925e-02	-2.835430797e-02	1.703072124e-11
6.800000000e+00	8.697891345e-02	-2.844435190e-02	2.085759071e-11
6.850000000e+00	8.664387412e-02	-2.853411665e-02	1.508199918e-11
6.900000000e+00	8.631242517e-02	-2.862360539e-02	1.137466242e-11
6.950000000e+00	8.598450218e-02	-2.871282129e-02	1.105781987e-11
7.000000000e+00	8.566004236e-02	-2.880176747e-02	1.039379275e-11
7.050000000e+00	8.533898445e-02	-2.889044699e-02	7.925330605e-12
7.100000000e+00	8.502126873e-02	-2.897886285e-02	1.301110955e-11
7.150000000e+00	8.470683690e-02	-2.906701805e-02	8.376106978e-12
7.200000000e+00	8.439563213e-02	-2.915491550e-02	5.363350255e-12
7.250000000e+00	8.408759891e-02	-2.924255809e-02	1.356077398e-11
7.300000000e+00	8.378268310e-02	-2.932994866e-02	1.051672248e-11
7.350000000e+00	8.348083182e-02	-2.941709003e-02	1.648637190e-11
7.400000000e+00	8.318199347e-02	-2.950398493e-02	9.196115073e-12
7.450000000e+00	8.288611763e-02	-2.959063611e-02	7.010964340e-12
7.500000000e+00	8.259315507e-02	-2.967704624e-02	4.483484722e-11
7.550000000e+00	8.230305772e-02	-2.976321794e-02	1.695212324e-11
7.600000000e+00	8.201577858e-02	-2.984915385e-02	1.488866606e-11
7.650000000e+00	8.173127175e-02	-2.993485652e-02	1.803500308e-11
7.700000000e+00	8.144949237e-02	-3.002032848e-02	8.312212304e-12
7.750000000e+00	8.117039659e-02	-3.010557222e-02	2.098757030e-11
7.800000000e+00	8.089394153e-02	-3.019059021e-02	7.551207331e-12
7.850000000e+00	8.062008530e-02	-3.027538487e-02	1.150022514e-11
7.900000000e+00	8.034878689e-02	-3.035995858e-02	1.658236970e-11
7.950000000e+00	8.008000624e-02	-3.044431371e-02	9.480573572e-12
8.000000000e+00	7.981370413e-02	-3.052845258e-02	1.006928811e-11
8.050000000e+00	7.954984221e-02	-3.061237748e-02	9.816172850e-12
8.100000000e+00	7.928838296e-02	-3.069609066e-02	1.656578919e-11
8.150000000e+00	7.902928966e-02	-3.077959437e-02	1.711318672e-11
8.200000000e+00	7.877252636e-02	-3.086289078e-02	6.576259733e-12
8.250000000e+00	7.851805790e-02	-3.094598206e-02	8.100807500e-12
8.300000000e+00	7.826584984e-02	-3.102887037e-02	1.106638422e-11
8.350000000e+00	7.801586847e-02	-3.111155781e-02	1.682387042e-11
8.400000000e+00	7.776808077e-02	-3.119404644e-02	9.558330504e-12
8.450000000e+00	7.752245442e-02	-3.127633832e-02	8.767377401e-12
8.500000000e+00	7.727895776e-02	-3.135843548e-02	5.524368705e-12
8.550000000e+00	7.703755977e-02	-3.144033991e-02	1.205170820e-11
8.600000000e+00	7.679823007e-02	-3.152205359e-02	5.811886442e-12
8.650000000e+00	7.656093889e-02	-3.160357844e-02	8.842808891e-12
8.700000000e+00	7.632565706e-02	-3.168491639e-02	1.006949577e-11
8.750000000e+00	7.609235599e-02	-3.176606932e-02	2.533372539e-12
8.800000000e+00	7.586100766e-02	-3.184703911e-02	1.680027195e-11
8.850000000e+00	7.563158460e-02	-3.192782759e-02	1.173251616e-11
8.900000000e+00	7.540405988e-02	-3.200843658e-02	8.229653935e-12
8.950000000e+00	7.517840712e-02	-3.208886787e-02	1.201256849e-11
9.000000000e+00	7.495460041e-02	-3.216912323e-02	1.154326306e-11
9.050000000e+00	7.473261437e-02	-3.224920440e-02	1.131742629e-11
9.100000000e+00	7.451242410e-02	-3.232911310e-02	7.739864366e-12
9.150000000e+00	7.429400517e-02	-3.240885104e-02	1.022526318e-11
9.200000000e+00	7.407733363e-02	-3.248841988e-02	1.075664369e-11
9.250000000e+00	7.386238598e-02	-3.256782130e-02	5.608945233e-12
9.300000000e+00	7.364913913e-02	-3.264705691e-02	7.959819619e-12
9.350000000e+00	7.343757047e-02	-3.272612833e-02	8.578937609e-12
9.400000000e+00	7.322765777e-02	-3.280503716e-02	7.885261616e-12
9.450000000e+00	7.301937924e-02	-3.288378496e-02	2.517069052e-11
9.500000000e+00	7.281271347e-02	-3.296237329e-02	7.499758447e-12
9.550000000e+00	7.260763946e-02	-3.304080368e-02	6.590889315e-12
9.600000000e+00	7.240413658e-02	-3.311907763e-02	7.404843321e-12
9.650000000e+00	7.220218458e-02	-3.319719663e-02	1.250974016e-11
9.700000000e+00	7.200176356e-02	-3.327516218e-02	7.860704128e-12
9.750000000e+00	7.180285401e-02	-3.335297570e-02	8.119899389e-12
9.800000000e+00	7.160543673e-02	-3.343063865e-02	1.005524636e-11
9.850000000e+00	7.140949288e-02	-3.350815244e-02	6.385624992e-12
9.900000000e+00	7.121500395e-02	-3.358551846e-02	1.085434173e-11
9.950000000e+00	7.102195177e-02	-3.366273810e-02	1.065103592e-11
1.000000000e+01	7.083031845e-02	-3.373981273e-02	1.359456538e-11
1.005000000e+01	7.064008645e-02	-3.381674368e-02	9.992323202e-12
1.010000000e+01	7.045123852e-02	-3.389353229e-02	7.222543638e-12
1.015000000e+01	7.026375769e-02	-3.397017988e-02	1.272470602e-11
1.020000000e+01	7.007762731e-02	-3.404668773e-02	7.806319848e-12
1.025000000e+01	6.989283100e-02	-3.412305714e-02	6.385752825e-12
1.030000000e+01	6.970935264e-02	-3.419928936e-02	1.160008513e-11
1.035000000e+01	6.952717642e-02	-3.427538564e-02	5.022307716e-12
1.040000000e+01	6.934628676e-02	-3.435134722e-02	8.434083395e-12
1.045000000e+01	6.916666836e-02	-3.442717531e-02	1.444914114e-11
1.050000000e+01	6.898830618e-02	-3.450287112e-02	3.317321813e-11
1.055000000e+01	6.881118541e-02	-3.457843583e-02	6.218775927e-12
1.060000000e+01	6.863529150e-02	-3.465387062e-02	1.425649373e-11
1.065000000e+01	6.846061013e-02	-3.472917664e-02	1.456808018e-11
1.070000000e+01	6.828712721e-02	-3.480435505e-02	9.936091343e-12
1.075000000e+01	6.811482889e-02	-3.487940696e-02	3.244450456e-12
1.080000000e+01	6.794370154e-02	-3.495433350e-02	8.535559436e-12
1.085000000e+01	6.777373176e-02	-3.502913577e-02	1.244625720e-11
1.090000000e+01	6.760490633e-02	-3.510381485e-02	1.348336984e-11
1.095000000e+01	6.743721229e-02	-3.517837184e-02	1.065230906e-11
1.100000000e+01	6.727063684e-02	-3.525280777e-02	1.209463246e-11
1.105000000e+01	6.710516742e-02	-3.532712370e-02	3.348563986e-11
1.110000000e+01	6.694079164e-02	-3.540132068e-02	6.266550089e-12
1.115000000e+01	6.677749731e-02	-3.547539973e-02	5.194138040e-12
1.120000000e+01	6.661527245e-02	-3.554936185e-02	1.029354566e-11
1.125000000e+01	6.645410525e-02	-3.562320804e-02	2.450613526e-11
1.130000000e+01	6.629398407e-02	-3.569693929e-02	8.431192140e-12
1.135000000e+01	6.613489747e-02	-3.577055659e-02	1.398108790e-11
1.140000000e+01	6.597683418e-02	-3.584406088e-02	1.167767642e-11
1.145000000e+01	6.581978310e-02	-3.591745313e-02	1.863322196e-11
1.150000000e+01	6.566373330e-02	-3.599073426e-02	1.002837501e-11
1.155000000e+01	6.550867401e-02	-3.606390521e-02	1.285331517e-11
1.160000000e+01	6.535459463e-02	-3.613696691e-02	1.012362163e-11
1.165000000e+01	6.520148472e-02	-3.620992023e-02	1.342795017e-11
1.170000000e+01	6.504933397e-02	-3.628276610e-02	1.761046845e-11
1.175000000e+01	6.489813227e-02	-3.635550540e-02	1.465880202e-11
1.180000000e+01	6.474786962e-02	-3.642813898e-02	2.495001193e-11
1.185000000e+01	6.459853619e-02	-3.650066772e-02	5.338739386e-12
1.190000000e+01	6.445012227e-02	-3.657309248e-02	9.156274828e-12
1.195000000e+01	6.430261833e-02	-3.664541408e-02	1.198021790e-11
1.200000000e+01	6.415601493e-02	-3.671763337e-02	1.705515709e-11
1.205000000e+01	6.401030282e-02	-3.678975118e-02	6.982726474e-12
1.210000000e+01	6.386547284e-02	-3.686176829e-02	8.193374560e-12
1.215000000e+01	6.372151598e-02	-3.693368553e-02	1.039231666e-11
1.220000000e+01	6.357842337e-02	-3.700550369e-02	1.073549155e-11
1.225000000e+01	6.343618624e-02	-3.707722354e-02	6.658877504e-12
1.230000000e+01	6.329479596e-02	-3.714884587e-02	6.059666207e-12
1.235000000e+01	6.315424402e-02	-3.722037143e-02	1.452641896e-11
1.240000000e+01	6.301452204e-02	-3.729180098e-02	1.591865591e-11
1.245000000e+01	6.287562173e-02	-3.736313527e-02	5.052036345e-12
1.250000000e+01	6.273753496e-02	-3.743437504e-02	1.444836239e-11
1.255000000e+01	6.260025366e-02	-3.750552101e-02	2.650168249e-11
1.260000000e+01	6.246376991e-02	-3.757657390e-02	8.133114813e-12
1.265000000e+01	6.232807590e-02	-3.764753443e-02	9.749576308e-12
1.270000000e+01	6.219316389e-02	-3.771840330e-02	1.331532365e-11
1.275000000e+01	6.205902629e-02	-3.778918120e-02	1.481713983e-11
1.280000000e+01	6.192565559e-02	-3.785986882e-02	1.186944267e-11
1.285000000e+01	6.179304439e-02	-3.793046682e-02	1.306250995e-11
1.290000000e+01	6.166118538e-02	-3.800097590e-02	2.009815540e-11
1.295000000e+01	6.153007136e-02	-3.807139670e-02	1.802507661e-11
1.300000000e+01	6.139969522e-02	-3.814172988e-02	3.069406886e-12
1.305000000e+01	6.127004995e-02	-3.821197609e-02	1.908032993e-11
1.310000000e+01	6.114112862e-02	-3.828213596e-02	1.419545739e-11
1.315000000e+01	6.101292443e-02	-3.835221012e-02	7.796269945e-12
1.320000000e+01	6.088543062e-02	-3.842219919e-02	9.041792446e-12
1.325000000e+01	6.075864054e-02	-3.849210380e-02	1.949023972e-11
1.330000000e+01	6.063254764e-02	-3.856192455e-02	6.715812540e-12
1.335000000e+01	6.050714545e-02	-3.863166203e-02	8.481305663e-12
1.340000000e+01	6.038242756e-02	-3.870131685e-02	4.685693077e-12
1.345000000e+01	6.025838768e-02	-3.877088959e-02	1.107767473e-11
1.350000000e+01	6.013501958e-02	-3.884038083e-02	5.683437755e-12
1.355000000e+01	6.001231710e-02	-3.890979113e-02	9.965593027e-12
1.360000000e+01	5.989027420e-02	-3.897912107e-02	7.934199133e-12
1.365000000e+01	5.976888486e-02	-3.904837120e-02	1.586677546e-11
1.370000000e+01	5.964814319e-02	-3.911754209e-02	1.291947517e-11
1.375000000e+01	5.952804334e-02	-3.918663425e-02	1.091927346e-11
1.380000000e+01	5.940857955e-02	-3.925564825e-02	2.408742413e-11
1.385000000e+01	5.928974612e-02	-3.932458461e-02	5.054701027e-12
1.390000000e+01	5.917153745e-02	-3.939344385e-02	6.078186116e-12
1.395000000e+01	5.905394797e-02	-3.946222650e-02	6.976970741e-12
1.400000000e+01	5.893697220e-02	-3.953093307e-02	9.393807353e-12
1.405000000e+01	5.882060474e-02	-3.959956406e-02	8.135779085e-12
1.410000000e+01	5.870484024e-02	-3.966811998e-02	1.485818820e-11
1.415000000e+01	5.858967342e-02	-3.973660132e-02	7.074548199e-12
1.420000000e+01	5.847509907e-02	-3.980500857e-02	1.758113853e-11
1.425000000e+01	5.836111202e-02	-3.987334221e-02	6.846627414e-12
1.430000000e+01	5.824770720e-02	-3.994160271e-02	9.841328199e-12
1.435000000e+01	5.813487958e-02	-4.000979055e-02	7.809803955e-12
1.440000000e+01	5.802262420e-02	-4.007790620e-02	7.848772166e-12
1.445000000e+01	5.791093614e-02	-4.014595011e-02	1.445515620e-11
1.450000000e+01	5.779981057e-02	-4.021392274e-02	8.213161020e-12
1.455000000e+01	5.768924269e-02	-4.028182452e-02	1.062111108e-11
1.460000000e+01	5.757922777e-02	-4.034965593e-02	1.082484095e-11
1.465000000e+01	5.746976114e-02	-4.041741737e-02	1.157869189e-11
1.470000000e+01	5.736083818e-02	-4.048510929e-02	7.394618765e-12
1.475000000e+01	5.725245433e-02	-4.055273211e-02	6.267232422e-12
1.480000000e+01	5.714460507e-02	-4.062028626e-02	8.780397320e-12
1.485000000e+01	5.703728595e-02	-4.068777216e-02	1.249420399e-11
1.490000000e+01	5.693049257e-02	-4.075519020e-02	3.790527600e-12
1.495000000e+01	5.682422056e-02	-4.082254080e-02	7.202941065e-12
1.500000000e+01	5.671846562e-02	-4.088982436e-02	5.669246401e-12
1.505000000e+01	5.661322351e-02	-4.095704128e-02	1.473739720e-11
1.510000000e+01	5.650849001e-02	-4.102419195e-02	8.536433403e-12
1.515000000e+01	5.640426098e-02	-4.109127674e-02	9.367662785e-12
1.520000000e+01	5.630053230e-02	-4.115829605e-02	1.042128669e-11
1.525000000e+01	5.619729991e-02	-4.122525026e-02	1.941073459e-11
1.530000000e+01	5.609455980e-02	-4.129213972e-02	1.397671201e-11
1.535000000e+01	5.599230799e-02	-4.135896482e-02	7.099207782e-12
1.540000000e+01	5.589054057e-02	-4.142572591e-02	8.269482903e-12
1.545000000e+01	5.578925365e-02	-4.149242335e-02	1.246665149e-11
1.550000000e+01	5.568844340e-02	-4.155905751e-02	8.086395522e-12
1.555000000e+01	5.558810603e-02	-4.162562871e-02	1.012258448e-11
1.560000000e+01	5.548823778e-02	-4.169213731e-02	1.244198482e-11
1.565000000e+01	5.538883494e-02	-4.175858366e-02	1.711461431e-11
1.570000000e+01	5.528989385e-02	-4.182496808e-02	7.460960833e-12
