# R [micrones]     Omega/c [1/micrones]    Im(epsi1)     Eq(det).Opt det SIN kz, mu = 0.9 eV, Re(epsi1)=3.90, solve_det_sinkz_vs_R.py
1.000000000e-01	1.338401606e+00	-8.459049538e-03	1.790057545e-23
1.500000000e-01	1.096184756e+00	-7.140309054e-03	5.324354176e-23
2.000000000e-01	9.505297189e-01	-6.462571491e-03	1.939928281e-22
2.500000000e-01	8.506379745e-01	-6.059858088e-03	8.485161965e-23
3.000000000e-01	7.766574510e-01	-5.801880252e-03	7.494603568e-22
3.500000000e-01	7.190197531e-01	-5.629814832e-03	1.455948711e-21
4.000000000e-01	6.724700317e-01	-5.512978230e-03	1.159018525e-21
4.500000000e-01	6.338508429e-01	-5.433717187e-03	2.992440710e-21
5.000000000e-01	6.011355318e-01	-5.381126265e-03	4.486182238e-21
5.500000000e-01	5.729556871e-01	-5.348094063e-03	7.239246121e-21
6.000000000e-01	5.483495123e-01	-5.329781696e-03	9.238909616e-21
6.500000000e-01	5.266185887e-01	-5.322781552e-03	1.335694845e-20
7.000000000e-01	5.072418459e-01	-5.324625080e-03	1.557097520e-20
7.500000000e-01	4.898215614e-01	-5.333481116e-03	1.323640552e-20
8.000000000e-01	4.740481862e-01	-5.347963692e-03	1.591838853e-20
8.500000000e-01	4.596767025e-01	-5.367005503e-03	2.851121067e-20
9.000000000e-01	4.465102943e-01	-5.389772218e-03	6.756498111e-20
9.500000000e-01	4.343888012e-01	-5.415603019e-03	2.301971834e-20
1.000000000e+00	4.231803816e-01	-5.443968426e-03	2.790576515e-20
1.050000000e+00	4.127753829e-01	-5.474439834e-03	4.191020181e-20
1.100000000e+00	4.030817586e-01	-5.506667110e-03	7.086072257e-20
1.150000000e+00	3.940215923e-01	-5.540361884e-03	6.311948320e-20
1.200000000e+00	3.855284251e-01	-5.575284907e-03	5.668381174e-20
1.250000000e+00	3.775451758e-01	-5.611236363e-03	8.529945618e-20
1.300000000e+00	3.700225052e-01	-5.648048380e-03	1.160306412e-19
1.350000000e+00	3.629175160e-01	-5.685579150e-03	5.667842446e-20
1.400000000e+00	3.561927094e-01	-5.723708303e-03	1.355699966e-19
1.450000000e+00	3.498151423e-01	-5.762333206e-03	7.404074336e-20
1.500000000e+00	3.437557387e-01	-5.801366001e-03	1.085938967e-19
1.550000000e+00	3.379887250e-01	-5.840731202e-03	2.956410857e-19
1.600000000e+00	3.324911629e-01	-5.880363738e-03	1.885787841e-19
1.650000000e+00	3.272425600e-01	-5.920207351e-03	1.337691449e-19
1.700000000e+00	3.222245446e-01	-5.960213271e-03	3.019672251e-19
1.750000000e+00	3.174205914e-01	-6.000339119e-03	2.826562311e-19
1.800000000e+00	3.128157894e-01	-6.040547995e-03	6.608263179e-19
1.850000000e+00	3.083966446e-01	-6.080807705e-03	3.537820192e-19
1.900000000e+00	3.041509113e-01	-6.121090119e-03	2.557617234e-19
1.950000000e+00	3.000674475e-01	-6.161370625e-03	3.166963559e-19
2.000000000e+00	2.961360902e-01	-6.201627667e-03	4.081609700e-19
2.050000000e+00	2.923475470e-01	-6.241842347e-03	5.315752746e-19
2.100000000e+00	2.886933032e-01	-6.281998088e-03	3.287126163e-19
2.150000000e+00	2.851655391e-01	-6.322080346e-03	5.318731002e-19
2.200000000e+00	2.817570597e-01	-6.362076361e-03	3.907378895e-19
2.250000000e+00	2.784612311e-01	-6.401974938e-03	4.844095860e-19
2.300000000e+00	2.752719258e-01	-6.441766263e-03	7.187334805e-19
2.350000000e+00	2.721834739e-01	-6.481441738e-03	9.352518288e-19
2.400000000e+00	2.691906203e-01	-6.520993846e-03	8.110528884e-19
2.450000000e+00	2.662884862e-01	-6.560416021e-03	6.747725662e-19
2.500000000e+00	2.634725352e-01	-6.599702542e-03	5.894321071e-19
2.550000000e+00	2.607385428e-01	-6.638848441e-03	5.158901373e-19
2.600000000e+00	2.580825700e-01	-6.677849416e-03	8.324533368e-19
2.650000000e+00	2.555009379e-01	-6.716701762e-03	8.373975676e-19
2.700000000e+00	2.529902071e-01	-6.755402301e-03	9.267684573e-19
2.750000000e+00	2.505471572e-01	-6.793948329e-03	1.489497105e-18
2.800000000e+00	2.481687695e-01	-6.832337566e-03	1.524554220e-18
2.850000000e+00	2.458522111e-01	-6.870568106e-03	1.197245940e-18
2.900000000e+00	2.435948203e-01	-6.908638381e-03	1.563433223e-18
2.950000000e+00	2.413940934e-01	-6.946547127e-03	7.150002050e-19
3.000000000e+00	2.392476733e-01	-6.984293345e-03	3.215104779e-18
3.050000000e+00	2.371533380e-01	-7.021876283e-03	1.141889185e-18
3.100000000e+00	2.351089912e-01	-7.059295402e-03	1.566778319e-18
3.150000000e+00	2.331126534e-01	-7.096550359e-03	1.181465245e-18
3.200000000e+00	2.311624533e-01	-7.133640982e-03	1.639531896e-18
3.250000000e+00	2.292566204e-01	-7.170567256e-03	2.507973947e-18
3.300000000e+00	2.273934783e-01	-7.207329304e-03	1.174939427e-18
3.350000000e+00	2.255714382e-01	-7.243927375e-03	4.762757802e-18
3.400000000e+00	2.237889932e-01	-7.280361828e-03	3.826369140e-18
3.450000000e+00	2.220447128e-01	-7.316633121e-03	2.852415394e-18
3.500000000e+00	2.203372382e-01	-7.352741800e-03	3.650495644e-18
3.550000000e+00	2.186652775e-01	-7.388688493e-03	4.027741419e-18
3.600000000e+00	2.170276017e-01	-7.424473894e-03	2.679086488e-18
3.650000000e+00	2.154230406e-01	-7.460098763e-03	2.709439846e-18
3.700000000e+00	2.138504796e-01	-7.495563913e-03	2.870525331e-18
3.750000000e+00	2.123088560e-01	-7.530870205e-03	2.250049599e-18
3.800000000e+00	2.107971560e-01	-7.566018547e-03	2.000924231e-18
3.850000000e+00	2.093144119e-01	-7.601009880e-03	2.683601107e-18
3.900000000e+00	2.078596995e-01	-7.635845181e-03	4.843417069e-18
3.950000000e+00	2.064321356e-01	-7.670525454e-03	3.780413524e-18
4.000000000e+00	2.050308753e-01	-7.705051729e-03	4.236501276e-18
4.050000000e+00	2.036551106e-01	-7.739425057e-03	5.269102759e-18
4.100000000e+00	2.023040679e-01	-7.773646506e-03	2.926917117e-18
4.150000000e+00	2.009770059e-01	-7.807717161e-03	6.449446947e-18
4.200000000e+00	1.996732144e-01	-7.841638117e-03	3.367200537e-18
4.250000000e+00	1.983920126e-01	-7.875410481e-03	5.844681580e-18
4.300000000e+00	1.971327472e-01	-7.909035367e-03	9.381587071e-18
4.350000000e+00	1.958947910e-01	-7.942513895e-03	5.745582509e-18
4.400000000e+00	1.946775420e-01	-7.975847190e-03	5.790768249e-18
4.450000000e+00	1.934804217e-01	-8.009036380e-03	4.424699055e-18
4.500000000e+00	1.923028742e-01	-8.042082591e-03	5.278366874e-18
4.550000000e+00	1.911443650e-01	-8.074986954e-03	6.905749453e-18
4.600000000e+00	1.900043796e-01	-8.107750593e-03	5.541850419e-18
4.650000000e+00	1.888824231e-01	-8.140374635e-03	7.358523057e-18
4.700000000e+00	1.877780191e-01	-8.172860199e-03	6.978155091e-18
4.750000000e+00	1.866907084e-01	-8.205208403e-03	1.387064412e-17
4.800000000e+00	1.856200489e-01	-8.237420359e-03	9.799088601e-18
4.850000000e+00	1.845656141e-01	-8.269497173e-03	1.130957923e-17
4.900000000e+00	1.835269928e-01	-8.301439945e-03	4.031249068e-18
4.950000000e+00	1.825037885e-01	-8.333249768e-03	7.221304368e-18
5.000000000e+00	1.814956184e-01	-8.364927728e-03	7.236262515e-18
5.050000000e+00	1.805021130e-01	-8.396474903e-03	5.394043226e-18
5.100000000e+00	1.795229153e-01	-8.427892362e-03	7.792271530e-18
5.150000000e+00	1.785576806e-01	-8.459181167e-03	5.637529578e-18
5.200000000e+00	1.776060757e-01	-8.490342371e-03	1.200996881e-17
5.250000000e+00	1.766677786e-01	-8.521377016e-03	6.170769603e-18
5.300000000e+00	1.757424776e-01	-8.552286137e-03	5.863784637e-18
5.350000000e+00	1.748298716e-01	-8.583070759e-03	5.301130645e-18
5.400000000e+00	1.739296689e-01	-8.613731896e-03	8.691981202e-18
5.450000000e+00	1.730415874e-01	-8.644270553e-03	1.378137765e-17
5.500000000e+00	1.721653537e-01	-8.674687726e-03	1.067291751e-17
5.550000000e+00	1.713007031e-01	-8.704984400e-03	1.008903728e-17
5.600000000e+00	1.704473793e-01	-8.735161550e-03	4.349248272e-18
5.650000000e+00	1.696051338e-01	-8.765220141e-03	1.325863097e-17
5.700000000e+00	1.687737257e-01	-8.795161128e-03	1.256435081e-17
5.750000000e+00	1.679529214e-01	-8.824985455e-03	1.012561764e-17
5.800000000e+00	1.671424943e-01	-8.854694058e-03	6.723688046e-18
5.850000000e+00	1.663422247e-01	-8.884287859e-03	7.490667134e-18
5.900000000e+00	1.655518993e-01	-8.913767773e-03	2.068205787e-17
5.950000000e+00	1.647713112e-01	-8.943134705e-03	1.408127812e-17
6.000000000e+00	1.640002591e-01	-8.972389548e-03	9.749689943e-18
6.050000000e+00	1.632385481e-01	-9.001533186e-03	6.228858511e-18
6.100000000e+00	1.624859884e-01	-9.030566492e-03	1.051846496e-17
6.150000000e+00	1.617423958e-01	-9.059490330e-03	4.430928040e-18
6.200000000e+00	1.610075913e-01	-9.088305555e-03	2.527526836e-17
6.250000000e+00	1.602814008e-01	-9.117013011e-03	6.055404121e-18
6.300000000e+00	1.595636550e-01	-9.145613531e-03	1.733922349e-17
6.350000000e+00	1.588541894e-01	-9.174107941e-03	3.190928650e-17
6.400000000e+00	1.581528439e-01	-9.202497055e-03	1.612802462e-17
6.450000000e+00	1.574594627e-01	-9.230781680e-03	1.116096485e-17
6.500000000e+00	1.567738941e-01	-9.258962612e-03	1.955369150e-17
6.550000000e+00	1.560959907e-01	-9.287040638e-03	1.488975036e-17
6.600000000e+00	1.554256088e-01	-9.315016535e-03	2.473478503e-17
6.650000000e+00	1.547626085e-01	-9.342891073e-03	1.154097805e-17
6.700000000e+00	1.541068535e-01	-9.370665010e-03	1.195021424e-17
6.750000000e+00	1.534582111e-01	-9.398339099e-03	1.695026767e-17
6.800000000e+00	1.528165520e-01	-9.425914080e-03	2.245693647e-17
6.850000000e+00	1.521817502e-01	-9.453390688e-03	2.158536005e-17
6.900000000e+00	1.515536828e-01	-9.480769647e-03	4.481745132e-17
6.950000000e+00	1.509322299e-01	-9.508051673e-03	3.514851711e-17
7.000000000e+00	1.503172749e-01	-9.535237474e-03	1.366884443e-17
7.050000000e+00	1.497087039e-01	-9.562327749e-03	2.821802484e-17
7.100000000e+00	1.491064057e-01	-9.589323191e-03	2.764365208e-17
7.150000000e+00	1.485102719e-01	-9.616224483e-03	2.008665697e-17
7.200000000e+00	1.479201968e-01	-9.643032299e-03	2.260255627e-17
7.250000000e+00	1.473360771e-01	-9.669747307e-03	3.401565666e-17
7.300000000e+00	1.467578120e-01	-9.696370168e-03	2.556383857e-17
7.350000000e+00	1.461853033e-01	-9.722901533e-03	5.830931025e-17
7.400000000e+00	1.456184548e-01	-9.749342047e-03	2.091345967e-17
7.450000000e+00	1.450571727e-01	-9.775692347e-03	2.821833056e-17
7.500000000e+00	1.445013653e-01	-9.801953063e-03	6.327658756e-17
7.550000000e+00	1.439509433e-01	-9.828124818e-03	2.130410990e-17
7.600000000e+00	1.434058190e-01	-9.854208226e-03	7.187576620e-18
7.650000000e+00	1.428659070e-01	-9.880203897e-03	2.714690952e-17
7.700000000e+00	1.423311237e-01	-9.906112431e-03	3.257557345e-17
7.750000000e+00	1.418013876e-01	-9.931934423e-03	2.546028986e-17
7.800000000e+00	1.412766187e-01	-9.957670461e-03	3.656536123e-17
7.850000000e+00	1.407567390e-01	-9.983321126e-03	1.821364640e-17
7.900000000e+00	1.402416722e-01	-1.000888699e-02	3.258888933e-17
7.950000000e+00	1.397313434e-01	-1.003436863e-02	3.100740511e-17
8.000000000e+00	1.392256798e-01	-1.005976660e-02	2.573012352e-17
8.050000000e+00	1.387246098e-01	-1.008508145e-02	2.928068578e-17
8.100000000e+00	1.382280634e-01	-1.011031374e-02	3.773286484e-17
8.150000000e+00	1.377359723e-01	-1.013546401e-02	2.770855524e-17
8.200000000e+00	1.372482695e-01	-1.016053280e-02	4.057790277e-17
8.250000000e+00	1.367648893e-01	-1.018552063e-02	4.411208952e-17
8.300000000e+00	1.362857676e-01	-1.021042804e-02	2.881234842e-17
8.350000000e+00	1.358108415e-01	-1.023525554e-02	1.992205934e-17
8.400000000e+00	1.353400494e-01	-1.026000364e-02	3.496094201e-17
8.450000000e+00	1.348733311e-01	-1.028467286e-02	4.630517770e-17
8.500000000e+00	1.344106274e-01	-1.030926369e-02	3.352632419e-17
8.550000000e+00	1.339518806e-01	-1.033377664e-02	4.636032565e-17
8.600000000e+00	1.334970339e-01	-1.035821219e-02	3.867742201e-17
8.650000000e+00	1.330460318e-01	-1.038257084e-02	2.685906617e-17
8.700000000e+00	1.325988199e-01	-1.040685306e-02	4.604836028e-17
8.750000000e+00	1.321553448e-01	-1.043105933e-02	5.919712146e-17
8.800000000e+00	1.317155542e-01	-1.045519012e-02	2.963775095e-17
8.850000000e+00	1.312793968e-01	-1.047924589e-02	4.041589069e-17
8.900000000e+00	1.308468223e-01	-1.050322712e-02	4.792385560e-17
8.950000000e+00	1.304177816e-01	-1.052713424e-02	5.084506510e-17
9.000000000e+00	1.299922262e-01	-1.055096772e-02	3.098356120e-17
9.050000000e+00	1.295701087e-01	-1.057472801e-02	4.292201157e-17
9.100000000e+00	1.291513826e-01	-1.059841554e-02	2.538104680e-17
9.150000000e+00	1.287360023e-01	-1.062203075e-02	3.885079954e-17
9.200000000e+00	1.283239230e-01	-1.064557407e-02	5.394829378e-17
9.250000000e+00	1.279151008e-01	-1.066904593e-02	6.114957360e-17
9.300000000e+00	1.275094927e-01	-1.069244677e-02	1.880766116e-17
9.350000000e+00	1.271070563e-01	-1.071577699e-02	8.495275791e-17
9.400000000e+00	1.267077501e-01	-1.073903701e-02	5.447365598e-17
9.450000000e+00	1.263115333e-01	-1.076222724e-02	7.530790650e-17
9.500000000e+00	1.259183661e-01	-1.078534810e-02	9.430552783e-17
9.550000000e+00	1.255282090e-01	-1.080839997e-02	7.029399180e-17
9.600000000e+00	1.251410235e-01	-1.083138327e-02	3.324036337e-17
9.650000000e+00	1.247567717e-01	-1.085429839e-02	5.799883217e-17
9.700000000e+00	1.243754165e-01	-1.087714571e-02	3.905871479e-17
9.750000000e+00	1.239969213e-01	-1.089992562e-02	4.524560463e-17
9.800000000e+00	1.236212503e-01	-1.092263852e-02	2.636095870e-17
9.850000000e+00	1.232483682e-01	-1.094528477e-02	6.321062694e-17
9.900000000e+00	1.228782403e-01	-1.096786475e-02	6.758568529e-17
9.950000000e+00	1.225108326e-01	-1.099037884e-02	3.381648834e-17
1.000000000e+01	1.221461118e-01	-1.101282741e-02	5.678139649e-17
1.005000000e+01	1.217840449e-01	-1.103521080e-02	5.949377519e-17
1.010000000e+01	1.214245997e-01	-1.105752940e-02	1.108580816e-16
1.015000000e+01	1.210677443e-01	-1.107978356e-02	1.002074355e-16
1.020000000e+01	1.207134477e-01	-1.110197363e-02	4.755954867e-17
1.025000000e+01	1.203616792e-01	-1.112409996e-02	8.262054508e-17
1.030000000e+01	1.200124085e-01	-1.114616289e-02	5.443262532e-17
1.035000000e+01	1.196656061e-01	-1.116816279e-02	5.421958144e-17
1.040000000e+01	1.193212427e-01	-1.119009998e-02	5.654178161e-17
1.045000000e+01	1.189792899e-01	-1.121197480e-02	7.914171336e-17
1.050000000e+01	1.186397192e-01	-1.123378758e-02	5.141816658e-17
1.055000000e+01	1.183025030e-01	-1.125553867e-02	6.506527533e-17
1.060000000e+01	1.179676141e-01	-1.127722839e-02	2.558978761e-17
1.065000000e+01	1.176350256e-01	-1.129885706e-02	5.532557906e-17
1.070000000e+01	1.173047111e-01	-1.132042500e-02	5.994454348e-17
1.075000000e+01	1.169766446e-01	-1.134193254e-02	4.781171775e-17
1.080000000e+01	1.166508006e-01	-1.136337999e-02	5.561873968e-17
1.085000000e+01	1.163271540e-01	-1.138476766e-02	6.092893703e-17
1.090000000e+01	1.160056799e-01	-1.140609587e-02	4.439502633e-17
1.095000000e+01	1.156863541e-01	-1.142736493e-02	6.743927922e-17
1.100000000e+01	1.153691525e-01	-1.144857513e-02	1.365920737e-16
1.105000000e+01	1.150540517e-01	-1.146972679e-02	1.028421825e-16
1.110000000e+01	1.147410283e-01	-1.149082019e-02	5.225361737e-17
1.115000000e+01	1.144300596e-01	-1.151185564e-02	1.124981394e-16
1.120000000e+01	1.141211229e-01	-1.153283344e-02	2.220383986e-16
1.125000000e+01	1.138141962e-01	-1.155375387e-02	1.080980567e-16
1.130000000e+01	1.135092576e-01	-1.157461722e-02	4.863131379e-17
1.135000000e+01	1.132062856e-01	-1.159542379e-02	7.660058862e-17
1.140000000e+01	1.129052591e-01	-1.161617384e-02	5.690187622e-17
1.145000000e+01	1.126061573e-01	-1.163686768e-02	1.113788610e-16
1.150000000e+01	1.123089596e-01	-1.165750557e-02	1.222727747e-16
1.155000000e+01	1.120136458e-01	-1.167808779e-02	8.782927669e-17
1.160000000e+01	1.117201960e-01	-1.169861461e-02	1.353510206e-16
1.165000000e+01	1.114285905e-01	-1.171908632e-02	7.492007765e-17
1.170000000e+01	1.111388101e-01	-1.173950317e-02	1.205124519e-16
1.175000000e+01	1.108508357e-01	-1.175986544e-02	9.116673809e-17
1.180000000e+01	1.105646486e-01	-1.178017339e-02	8.938204009e-17
1.185000000e+01	1.102802302e-01	-1.180042729e-02	2.021664569e-16
1.190000000e+01	1.099975623e-01	-1.182062739e-02	9.097987825e-17
1.195000000e+01	1.097166270e-01	-1.184077395e-02	7.617647576e-17
1.200000000e+01	1.094374067e-01	-1.186086723e-02	8.858870693e-17
1.205000000e+01	1.091598837e-01	-1.188090749e-02	1.419081100e-16
1.210000000e+01	1.088840411e-01	-1.190089497e-02	5.488150423e-17
1.215000000e+01	1.086098617e-01	-1.192082993e-02	4.017801364e-17
1.220000000e+01	1.083373290e-01	-1.194071261e-02	5.635325962e-17
1.225000000e+01	1.080664264e-01	-1.196054326e-02	1.208073687e-16
1.230000000e+01	1.077971378e-01	-1.198032213e-02	6.237978754e-17
1.235000000e+01	1.075294470e-01	-1.200004945e-02	9.733081773e-17
1.240000000e+01	1.072633384e-01	-1.201972547e-02	8.583572675e-17
1.245000000e+01	1.069987963e-01	-1.203935042e-02	1.385388944e-16
1.250000000e+01	1.067358054e-01	-1.205892454e-02	8.269804514e-17
1.255000000e+01	1.064743506e-01	-1.207844807e-02	1.034454020e-16
1.260000000e+01	1.062144169e-01	-1.209792124e-02	6.541561150e-17
1.265000000e+01	1.059559897e-01	-1.211734427e-02	7.407981926e-17
1.270000000e+01	1.056990543e-01	-1.213671739e-02	1.410109679e-16
1.275000000e+01	1.054435965e-01	-1.215604085e-02	2.101628671e-16
1.280000000e+01	1.051896022e-01	-1.217531484e-02	1.044347938e-16
1.285000000e+01	1.049370573e-01	-1.219453961e-02	6.214458719e-17
1.290000000e+01	1.046859482e-01	-1.221371538e-02	1.394714847e-16
1.295000000e+01	1.044362613e-01	-1.223284235e-02	2.592419048e-16
1.300000000e+01	1.041879831e-01	-1.225192076e-02	1.142692585e-16
1.305000000e+01	1.039411005e-01	-1.227095082e-02	1.392218839e-16
1.310000000e+01	1.036956004e-01	-1.228993274e-02	1.132476684e-16
1.315000000e+01	1.034514700e-01	-1.230886673e-02	1.299788523e-16
1.320000000e+01	1.032086966e-01	-1.232775301e-02	1.169644879e-16
1.325000000e+01	1.029672675e-01	-1.234659179e-02	7.466997258e-17
1.330000000e+01	1.027271706e-01	-1.236538327e-02	1.482072799e-16
1.335000000e+01	1.024883935e-01	-1.238412767e-02	8.752703435e-17
1.340000000e+01	1.022509242e-01	-1.240282518e-02	1.088181616e-16
1.345000000e+01	1.020147508e-01	-1.242147602e-02	1.009472137e-16
1.350000000e+01	1.017798616e-01	-1.244008038e-02	1.141625705e-16
1.355000000e+01	1.015462450e-01	-1.245863846e-02	2.173187989e-16
1.360000000e+01	1.013138895e-01	-1.247715047e-02	1.447903012e-16
1.365000000e+01	1.010827838e-01	-1.249561659e-02	1.006002484e-16
1.370000000e+01	1.008529168e-01	-1.251403704e-02	1.154312146e-16
1.375000000e+01	1.006242774e-01	-1.253241199e-02	1.113318981e-16
1.380000000e+01	1.003968549e-01	-1.255074166e-02	1.508494540e-16
1.385000000e+01	1.001706383e-01	-1.256902621e-02	9.468034956e-17
1.390000000e+01	9.994561720e-02	-1.258726586e-02	1.043689619e-16
1.395000000e+01	9.972178102e-02	-1.260546078e-02	1.101545014e-16
1.400000000e+01	9.949911944e-02	-1.262361117e-02	2.311021136e-16
1.405000000e+01	9.927762224e-02	-1.264171721e-02	1.461365082e-16
1.410000000e+01	9.905727931e-02	-1.265977909e-02	1.010132254e-16
1.415000000e+01	9.883808069e-02	-1.267779699e-02	1.339466522e-16
1.420000000e+01	9.862001653e-02	-1.269577108e-02	1.562186067e-16
1.425000000e+01	9.840307709e-02	-1.271370157e-02	2.455499160e-16
1.430000000e+01	9.818725277e-02	-1.273158862e-02	2.030952328e-16
1.435000000e+01	9.797253405e-02	-1.274943241e-02	9.913361614e-17
1.440000000e+01	9.775891157e-02	-1.276723311e-02	1.552179425e-16
1.445000000e+01	9.754637604e-02	-1.278499092e-02	1.061458983e-16
1.450000000e+01	9.733491831e-02	-1.280270600e-02	1.432520821e-16
1.455000000e+01	9.712452933e-02	-1.282037852e-02	1.318903757e-16
1.460000000e+01	9.691520014e-02	-1.283800866e-02	1.928383408e-16
1.465000000e+01	9.670692192e-02	-1.285559659e-02	1.483649718e-16
1.470000000e+01	9.649968592e-02	-1.287314247e-02	2.367833198e-16
1.475000000e+01	9.629348351e-02	-1.289064649e-02	3.837857705e-17
1.480000000e+01	9.608830616e-02	-1.290810880e-02	2.217760406e-16
1.485000000e+01	9.588414543e-02	-1.292552957e-02	5.767183623e-17
1.490000000e+01	9.568099300e-02	-1.294290897e-02	1.640409358e-16
1.495000000e+01	9.547884062e-02	-1.296024717e-02	1.674272886e-16
1.500000000e+01	9.527768015e-02	-1.297754432e-02	1.753405411e-16
1.505000000e+01	9.507750353e-02	-1.299480058e-02	2.211525388e-16
1.510000000e+01	9.487830282e-02	-1.301201613e-02	1.149406471e-16
1.515000000e+01	9.468007013e-02	-1.302919112e-02	3.839278349e-16
1.520000000e+01	9.448279770e-02	-1.304632570e-02	2.038766314e-16
1.525000000e+01	9.428647783e-02	-1.306342004e-02	2.121900030e-16
1.530000000e+01	9.409110292e-02	-1.308047429e-02	2.633698978e-16
