# kz [1/micrometros]     Im(epsi1)     Im(omega/c)      Re(omega/c).Opt det con kz, Re(epsi1)=3.90, R=0.5 \mumcritical_values_vs_mu.py
0.00000000000e+00	-2.82580420841e-02	3.43048343638e-20	2.32135025067e-01
1.00000000000e-03	-2.82580422089e-02	-2.56227466544e-20	2.32135026825e-01
2.00000000000e-03	-2.82580425832e-02	-4.87043944671e-21	2.32135032125e-01
3.00000000000e-03	-2.82580432073e-02	-2.83756037330e-20	2.32135040925e-01
4.00000000000e-03	-2.82580440807e-02	-3.72694496792e-20	2.32135053225e-01
5.00000000000e-03	-2.82580452038e-02	-3.62106584951e-20	2.32135069125e-01
6.00000000000e-03	-2.82580465765e-02	4.02340649946e-21	2.32135088425e-01
7.00000000000e-03	-2.82580481987e-02	-2.01170324973e-20	2.32135111324e-01
8.00000000000e-03	-2.82580500704e-02	-6.14098886759e-21	2.32135137724e-01
9.00000000000e-03	-2.82580521919e-02	-2.83756037330e-20	2.32135167624e-01
1.00000000000e-02	-2.82580545628e-02	-3.36695596534e-20	2.32135201124e-01
1.10000000000e-02	-2.82580571834e-02	3.07049443380e-20	2.32135238023e-01
1.20000000000e-02	-2.82580600534e-02	3.74812079160e-20	2.32135278523e-01
1.30000000000e-02	-2.82580631730e-02	2.11758236814e-20	2.32135322523e-01
1.40000000000e-02	-2.82580665422e-02	3.45165926006e-20	2.32135370064e-01
1.50000000000e-02	-2.82580701609e-02	-3.23990102325e-20	2.32135421122e-01
1.60000000000e-02	-2.82580740292e-02	-2.22346148654e-20	2.32135475663e-01
1.70000000000e-02	-2.82580781470e-02	-2.22346148654e-20	2.32135533721e-01
1.80000000000e-02	-2.82580825144e-02	-4.65868120990e-21	2.32135595321e-01
1.90000000000e-02	-2.82580871313e-02	-3.55753837847e-20	2.32135660462e-01
2.00000000000e-02	-2.82580919977e-02	-9.74087889342e-21	2.32135729119e-01
2.10000000000e-02	-2.82580971136e-02	3.28225267061e-20	2.32135801319e-01
2.20000000000e-02	-2.82581024791e-02	1.46113183401e-20	2.32135876960e-01
2.30000000000e-02	-2.82581080941e-02	1.90582413132e-21	2.32135956159e-01
2.40000000000e-02	-2.82581139586e-02	3.19754937588e-20	2.32136038917e-01
2.50000000000e-02	-2.82581200726e-02	4.02340649946e-21	2.32136125116e-01
2.60000000000e-02	-2.82581264361e-02	-3.91752738105e-20	2.32136214915e-01
2.70000000000e-02	-2.82581330486e-02	1.96935160237e-20	2.32136308215e-01
2.80000000000e-02	-2.82581399116e-02	-7.19978005166e-21	2.32136405014e-01
2.90000000000e-02	-2.82581470235e-02	5.29395592034e-21	2.32136505313e-01
3.00000000000e-02	-2.82581543849e-02	1.46113183401e-20	2.32136609154e-01
3.10000000000e-02	-2.82581619958e-02	1.54583512874e-20	2.32136716511e-01
3.20000000000e-02	-2.82581698561e-02	-1.29172524456e-20	2.32136827410e-01
3.30000000000e-02	-2.82581779659e-02	3.36695596534e-20	2.32136941810e-01
3.40000000000e-02	-2.82581863251e-02	-1.75759336555e-20	2.32137059709e-01
3.50000000000e-02	-2.82581949339e-02	-2.98579113907e-20	2.32137181208e-01
3.60000000000e-02	-2.82582037919e-02	0.00000000000e+00	2.32137306148e-01
3.70000000000e-02	-2.82582128994e-02	2.05405489709e-20	2.32137434606e-01
3.80000000000e-02	-2.82582222566e-02	-4.23516473627e-21	2.32137566604e-01
3.90000000000e-02	-2.82582318627e-02	7.83505476210e-21	2.32137702145e-01
4.00000000000e-02	-2.82582417183e-02	-2.39286807599e-20	2.32137841202e-01
4.10000000000e-02	-2.82582518235e-02	-3.62106584951e-20	2.32137983801e-01
4.20000000000e-02	-2.82582621779e-02	1.01643953671e-20	2.32138129842e-01
4.30000000000e-02	-2.82582727818e-02	-8.68208770936e-21	2.32138279499e-01
4.40000000000e-02	-2.82582836350e-02	1.73641754187e-20	2.32138432597e-01
4.50000000000e-02	-2.82582947376e-02	-3.26107684693e-20	2.32138589196e-01
4.60000000000e-02	-2.82583060895e-02	-3.72694496792e-20	2.32138749395e-01
4.70000000000e-02	-2.82583176907e-02	-3.19754937588e-20	2.32138913093e-01
4.80000000000e-02	-2.82583295411e-02	-3.93870320473e-20	2.32139080292e-01
4.90000000000e-02	-2.82583416409e-02	2.85873619698e-20	2.32139250991e-01
5.00000000000e-02	-2.82583539901e-02	0.00000000000e+00	2.32139425289e-01
5.10000000000e-02	-2.82583665884e-02	8.68208770936e-21	2.32139602988e-01
5.20000000000e-02	-2.82583794361e-02	3.87517573369e-20	2.32139784286e-01
5.30000000000e-02	-2.82583925329e-02	3.34578014165e-20	2.32139969085e-01
5.40000000000e-02	-2.82584058792e-02	3.30342849429e-20	2.32140157425e-01
5.50000000000e-02	-2.82584194747e-02	1.71524171819e-20	2.32140349282e-01
5.60000000000e-02	-2.82584333193e-02	2.54109884176e-21	2.32140544622e-01
5.70000000000e-02	-2.82584474131e-02	1.52465930506e-20	2.32140743479e-01
5.80000000000e-02	-2.82584617563e-02	2.94343949171e-20	2.32140945918e-01
5.90000000000e-02	-2.82584763484e-02	1.29172524456e-20	2.32141151875e-01
6.00000000000e-02	-2.82584911899e-02	1.77876918923e-20	2.32141361274e-01
6.10000000000e-02	-2.82585062805e-02	-4.06575814682e-20	2.32141574272e-01
6.20000000000e-02	-2.82585216202e-02	4.44692297309e-21	2.32141790711e-01
6.30000000000e-02	-2.82585372091e-02	2.30816478127e-20	2.32142010710e-01
6.40000000000e-02	-2.82585530472e-02	-2.51992301808e-20	2.32142234266e-01
6.50000000000e-02	-2.82585691343e-02	-1.20702194984e-20	2.32142461265e-01
6.60000000000e-02	-2.82585854706e-02	-2.07523072077e-20	2.32142691863e-01
6.70000000000e-02	-2.82586020560e-02	-2.09640654445e-20	2.32142925961e-01
6.80000000000e-02	-2.82586188904e-02	-1.71524171819e-20	2.32143163559e-01
6.90000000000e-02	-2.82586359739e-02	2.96461531539e-21	2.32143404657e-01
7.00000000000e-02	-2.82586533064e-02	-2.96461531539e-20	2.32143649255e-01
7.10000000000e-02	-2.82586708881e-02	-3.51518673111e-20	2.32143897453e-01
7.20000000000e-02	-2.82586887187e-02	-1.48230765770e-21	2.32144149151e-01
7.30000000000e-02	-2.82587067985e-02	-2.09640654445e-20	2.32144404349e-01
7.40000000000e-02	-2.82587251271e-02	-1.69406589451e-20	2.32144663047e-01
7.50000000000e-02	-2.82587437047e-02	-1.71524171819e-20	2.32144925244e-01
7.60000000000e-02	-2.82587625314e-02	2.43521972336e-20	2.32145191042e-01
7.70000000000e-02	-2.82587816071e-02	4.02340649946e-21	2.32145460340e-01
7.80000000000e-02	-2.82588009317e-02	1.79994501292e-20	2.32145733138e-01
7.90000000000e-02	-2.82588205052e-02	-8.89384594617e-21	2.32146009436e-01
8.00000000000e-02	-2.82588403277e-02	-2.11758236814e-22	2.32146289233e-01
8.10000000000e-02	-2.82588603991e-02	3.38813178902e-20	2.32146572631e-01
8.20000000000e-02	-2.82588807193e-02	1.90582413132e-20	2.32146859470e-01
8.30000000000e-02	-2.82589012885e-02	-3.95987902841e-20	2.32147149867e-01
8.40000000000e-02	-2.82589221069e-02	-3.95987902841e-20	2.32147443765e-01
8.50000000000e-02	-2.82589431736e-02	3.17637355220e-21	2.32147741222e-01
8.60000000000e-02	-2.82589644894e-02	-2.39286807599e-20	2.32148042160e-01
8.70000000000e-02	-2.82589860540e-02	-1.90582413132e-21	2.32148346617e-01
8.80000000000e-02	-2.82590078675e-02	-3.81164826264e-21	2.32148654614e-01
8.90000000000e-02	-2.82590299298e-02	-1.75759336555e-20	2.32148966112e-01
9.00000000000e-02	-2.82590522409e-02	-7.83505476210e-21	2.32149281150e-01
9.10000000000e-02	-2.82590748008e-02	2.07523072077e-20	2.32149599706e-01
9.20000000000e-02	-2.82590976095e-02	2.96461531539e-21	2.32149921745e-01
9.30000000000e-02	-2.82591206670e-02	1.27054942088e-20	2.32150247342e-01
9.40000000000e-02	-2.82591439734e-02	-8.89384594617e-21	2.32150576439e-01
9.50000000000e-02	-2.82591675281e-02	2.68932960753e-20	2.32150909096e-01
9.60000000000e-02	-2.82591913320e-02	-1.12231865511e-20	2.32151245193e-01
9.70000000000e-02	-2.82592153844e-02	2.28698895759e-20	2.32151584890e-01
9.80000000000e-02	-2.82592396856e-02	-2.90108784435e-20	2.32151928087e-01
9.90000000000e-02	-2.82592642354e-02	1.84229666028e-20	2.32152274785e-01
1.00000000000e-01	-2.82592890341e-02	7.62329652529e-21	2.32152624982e-01
1.01000000000e-01	-2.82593140814e-02	4.44692297309e-21	2.32152978679e-01
1.02000000000e-01	-2.82593393773e-02	-5.92923063078e-21	2.32153335976e-01
1.03000000000e-01	-2.82593649219e-02	3.02814278643e-20	2.32153696773e-01
1.04000000000e-01	-2.82593907152e-02	-3.30342849429e-20	2.32154061011e-01
1.05000000000e-01	-2.82594167572e-02	2.32934060495e-21	2.32154428867e-01
1.06000000000e-01	-2.82594430478e-02	2.73168125490e-20	2.32154800164e-01
1.07000000000e-01	-2.82594695869e-02	-3.83282408633e-20	2.32155175002e-01
1.08000000000e-01	-2.82594963748e-02	3.34578014165e-20	2.32155553358e-01
1.09000000000e-01	-2.82595234112e-02	-1.31290106824e-20	2.32155935255e-01
1.10000000000e-01	-2.82595506963e-02	-2.61521422465e-20	2.32156320652e-01
1.11000000000e-01	-2.82595782300e-02	-3.28225267061e-21	2.32156709589e-01
1.12000000000e-01	-2.82596060122e-02	1.48230765770e-20	2.32157102045e-01
1.13000000000e-01	-2.82596340430e-02	-1.89523621948e-20	2.32157498042e-01
1.14000000000e-01	-2.82596623224e-02	-3.16578564036e-20	2.32157897479e-01
1.15000000000e-01	-2.82596908504e-02	-1.91641204316e-20	2.32158300476e-01
1.16000000000e-01	-2.82597196269e-02	-2.25522522206e-20	2.32158707032e-01
1.17000000000e-01	-2.82597486520e-02	3.81164826264e-20	2.32159117029e-01
1.18000000000e-01	-2.82597779257e-02	3.36695596534e-20	2.32159530626e-01
1.19000000000e-01	-2.82598074479e-02	-2.01170324973e-20	2.32159947662e-01
1.20000000000e-01	-2.82598372186e-02	3.66341749687e-20	2.32160368219e-01
1.21000000000e-01	-2.82598672379e-02	-2.54109884176e-21	2.32160792355e-01
1.22000000000e-01	-2.82598975057e-02	2.85873619698e-20	2.32161220012e-01
1.23000000000e-01	-2.82599280221e-02	-3.35636805350e-20	2.32161651108e-01
1.24000000000e-01	-2.82599587870e-02	-3.48342299558e-20	2.32162085805e-01
1.25000000000e-01	-2.82599898004e-02	-3.14460981668e-20	2.32162524001e-01
1.26000000000e-01	-2.82600210623e-02	-1.47171974585e-20	2.32162965698e-01
1.27000000000e-01	-2.82600525728e-02	-2.31875269311e-20	2.32163410894e-01
1.28000000000e-01	-2.82600843317e-02	-9.31736241980e-21	2.32163859630e-01
1.29000000000e-01	-2.82601163393e-02	3.53636255479e-20	2.32164311887e-01
1.30000000000e-01	-2.82601485953e-02	1.55642304058e-20	2.32164767683e-01
1.31000000000e-01	-2.82601810998e-02	-1.79994501292e-20	2.32165226979e-01
1.32000000000e-01	-2.82602138529e-02	-3.65282958503e-20	2.32165689775e-01
1.33000000000e-01	-2.82602468545e-02	9.95263713024e-21	2.32166156072e-01
