# kz [1/micrometros]     Im(epsi1)     Im(omega/c)      Re(omega/c).Opt det con kz, Re(epsi1)=3.90, R=0.5 \mumcritical_values_vs_mu.py
0.00000000000e+00	-2.71856924414e-02	8.99972506458e-21	1.89641711274e-01
1.00000000000e-03	-2.71856927055e-02	-2.00111533789e-20	1.89641714459e-01
2.00000000000e-03	-2.71856934982e-02	-6.88214269644e-22	1.89641723859e-01
3.00000000000e-03	-2.71856948182e-02	2.44051367928e-20	1.89641739559e-01
4.00000000000e-03	-2.71856966655e-02	2.21816753062e-20	1.89641761459e-01
5.00000000000e-03	-2.71856990390e-02	3.34578014165e-20	1.89641789673e-01
6.00000000000e-03	-2.71857019371e-02	1.03761536039e-20	1.89641824173e-01
7.00000000000e-03	-2.71857053582e-02	-2.46698345888e-20	1.89641864958e-01
8.00000000000e-03	-2.71857093006e-02	2.54109884176e-21	1.89641911972e-01
9.00000000000e-03	-2.71857137622e-02	-2.78462081410e-20	1.89641965357e-01
1.00000000000e-02	-2.71857187400e-02	-1.70465380635e-20	1.89642024871e-01
1.10000000000e-02	-2.71857242320e-02	-2.59403840097e-20	1.89642090756e-01
1.20000000000e-02	-2.71857302346e-02	1.11173074327e-20	1.89642162870e-01
1.30000000000e-02	-2.71857367449e-02	-2.83226641738e-20	1.89642241269e-01
1.40000000000e-02	-2.71857437579e-02	5.55865371636e-21	1.89642325954e-01
1.50000000000e-02	-2.71857512716e-02	1.18584612616e-20	1.89642416953e-01
1.60000000000e-02	-2.71857592803e-02	7.62329652529e-21	1.89642514153e-01
1.70000000000e-02	-2.71857677801e-02	3.17107959628e-20	1.89642617652e-01
1.80000000000e-02	-2.71857767663e-02	-2.49345323848e-20	1.89642727365e-01
1.90000000000e-02	-2.71857862342e-02	1.09584887551e-20	1.89642843450e-01
2.00000000000e-02	-2.71857961758e-02	8.25857123573e-21	1.89642965749e-01
2.10000000000e-02	-2.71858065888e-02	-2.70521147529e-20	1.89643094348e-01
2.20000000000e-02	-2.71858174658e-02	2.90108784435e-20	1.89643229247e-01
2.30000000000e-02	-2.71858288000e-02	-2.54109884176e-21	1.89643370345e-01
2.40000000000e-02	-2.71858405858e-02	-1.57759886426e-20	1.89643517744e-01
2.50000000000e-02	-2.71858528157e-02	-2.19699170694e-20	1.89643671443e-01
2.60000000000e-02	-2.71858654825e-02	4.65868120990e-21	1.89643831356e-01
2.70000000000e-02	-2.71858785791e-02	1.15937634655e-20	1.89643997640e-01
2.80000000000e-02	-2.71858920976e-02	1.29701920048e-20	1.89644170139e-01
2.90000000000e-02	-2.71859060301e-02	-2.78991477002e-20	1.89644348852e-01
3.00000000000e-02	-2.71859203679e-02	-2.48815928256e-21	1.89644533936e-01
3.10000000000e-02	-2.71859351029e-02	1.00585162486e-20	1.89644725249e-01
3.20000000000e-02	-2.71859502258e-02	1.74700545371e-21	1.89644922847e-01
3.30000000000e-02	-2.71859657277e-02	-3.13931586076e-20	1.89645126731e-01
3.40000000000e-02	-2.71859815986e-02	-5.50571415715e-21	1.89645336930e-01
3.50000000000e-02	-2.71859978292e-02	-2.33463456087e-20	1.89645553328e-01
3.60000000000e-02	-2.71860144092e-02	-1.45583787809e-20	1.89645776027e-01
3.70000000000e-02	-2.71860313284e-02	-1.28113733272e-20	1.89646005025e-01
3.80000000000e-02	-2.71860485762e-02	-6.19392842680e-21	1.89646240223e-01
3.90000000000e-02	-2.71860661408e-02	-1.32348898008e-20	1.89646481821e-01
4.00000000000e-02	-2.71860840119e-02	8.94678550537e-21	1.89646729619e-01
4.10000000000e-02	-2.71861021777e-02	2.00640929381e-20	1.89646983631e-01
4.20000000000e-02	-2.71861206261e-02	-2.22875544246e-20	1.89647244016e-01
4.30000000000e-02	-2.71861393453e-02	-1.31290106824e-20	1.89647510628e-01
4.40000000000e-02	-2.71861583230e-02	-6.88214269644e-22	1.89647783612e-01
4.50000000000e-02	-2.71861775456e-02	5.08219768353e-21	1.89648062724e-01
4.60000000000e-02	-2.71861970013e-02	-3.06520047788e-20	1.89648348208e-01
4.70000000000e-02	-2.71862166756e-02	6.88214269644e-21	1.89648640006e-01
4.80000000000e-02	-2.71862365561e-02	-6.35274710441e-21	1.89648938004e-01
4.90000000000e-02	-2.71862566280e-02	-2.26581313391e-20	1.89649242302e-01
5.00000000000e-02	-2.71862768773e-02	-2.05934885301e-20	1.89649552900e-01
5.10000000000e-02	-2.71862972900e-02	-3.05990652196e-20	1.89649869711e-01
5.20000000000e-02	-2.71863178507e-02	-1.19114008208e-20	1.89650192896e-01
5.30000000000e-02	-2.71863385447e-02	3.15519772852e-20	1.89650522293e-01
5.40000000000e-02	-2.71863593566e-02	4.44692297309e-21	1.89650857991e-01
5.50000000000e-02	-2.71863802705e-02	1.61465655570e-20	1.89651199989e-01
5.60000000000e-02	-2.71864012708e-02	-2.32404664903e-20	1.89651548201e-01
5.70000000000e-02	-2.71864223410e-02	8.36445035414e-21	1.89651902785e-01
5.80000000000e-02	-2.71864434645e-02	-3.31931036205e-20	1.89652263583e-01
5.90000000000e-02	-2.71864646249e-02	-2.98579113907e-20	1.89652630681e-01
6.00000000000e-02	-2.71864858046e-02	-1.98523347013e-20	1.89653004078e-01
6.10000000000e-02	-2.71865069871e-02	-7.78211520290e-21	1.89653383776e-01
6.20000000000e-02	-2.71865281526e-02	-2.18640379510e-20	1.89653769674e-01
6.30000000000e-02	-2.71865492847e-02	2.16522797142e-20	1.89654161885e-01
6.40000000000e-02	-2.71865703659e-02	-9.05266462378e-21	1.89654560470e-01
6.50000000000e-02	-2.71865913754e-02	-2.40874994375e-20	1.89654965268e-01
6.60000000000e-02	-2.71866122981e-02	1.30760711232e-20	1.89655376366e-01
6.70000000000e-02	-2.71866331089e-02	-6.72332401883e-21	1.89655793677e-01
6.80000000000e-02	-2.71866537929e-02	4.28810429547e-21	1.89656217361e-01
6.90000000000e-02	-2.71866743288e-02	-2.90638180027e-20	1.89656647259e-01
7.00000000000e-02	-2.71866946971e-02	7.04096137405e-21	1.89657083470e-01
7.10000000000e-02	-2.71867148769e-02	1.05349722815e-20	1.89657526055e-01
7.20000000000e-02	-2.71867348480e-02	-1.79465105700e-20	1.89657974853e-01
7.30000000000e-02	-2.71867545889e-02	-2.85344224106e-20	1.89658429864e-01
7.40000000000e-02	-2.71867740787e-02	-2.32404664903e-20	1.89658891249e-01
7.50000000000e-02	-2.71867932958e-02	-3.29284058245e-20	1.89659358947e-01
7.60000000000e-02	-2.71868122183e-02	-8.47032947254e-21	1.89659832845e-01
7.70000000000e-02	-2.71868308242e-02	3.13402190484e-20	1.89660313143e-01
7.80000000000e-02	-2.71868490908e-02	1.57759886426e-20	1.89660799641e-01
7.90000000000e-02	-2.71868669957e-02	9.52912065661e-21	1.89661292440e-01
8.00000000000e-02	-2.71868845156e-02	-1.75229940963e-20	1.89661791538e-01
8.10000000000e-02	-2.71869016275e-02	2.12287632406e-20	1.89662296936e-01
8.20000000000e-02	-2.71869183073e-02	2.96990927131e-20	1.89662808634e-01
8.30000000000e-02	-2.71869345316e-02	-2.87461806474e-20	1.89663326633e-01
8.40000000000e-02	-2.71869502756e-02	2.74226916674e-20	1.89663850931e-01
8.50000000000e-02	-2.71869655156e-02	2.52521697400e-20	1.89664381443e-01
8.60000000000e-02	-2.71869802260e-02	2.66815378385e-20	1.89664918328e-01
8.70000000000e-02	-2.71869943822e-02	2.18640379510e-20	1.89665461440e-01
8.80000000000e-02	-2.71870079586e-02	-1.20172799392e-20	1.89666010925e-01
8.90000000000e-02	-2.71870209296e-02	-1.65171424715e-20	1.89666566637e-01
9.00000000000e-02	-2.71870332691e-02	1.13820052287e-20	1.89667128723e-01
9.10000000000e-02	-2.71870449507e-02	4.39398341388e-21	1.89667697034e-01
9.20000000000e-02	-2.71870559482e-02	2.00111533789e-20	1.89668271720e-01
9.30000000000e-02	-2.71870662344e-02	1.64642029123e-20	1.89668852619e-01
9.40000000000e-02	-2.71870757823e-02	5.29395592034e-21	1.89669439831e-01
9.50000000000e-02	-2.71870845643e-02	-1.23349172944e-20	1.89670033417e-01
9.60000000000e-02	-2.71870925526e-02	2.38228016415e-21	1.89670633217e-01
9.70000000000e-02	-2.71870997192e-02	-5.82335151237e-22	1.89671239329e-01
9.80000000000e-02	-2.71871060357e-02	-2.49874719440e-20	1.89671851815e-01
9.90000000000e-02	-2.71871114733e-02	-6.61744490042e-21	1.89672470515e-01
1.00000000000e-01	-2.71871160033e-02	-9.74087889342e-21	1.89673095527e-01
1.01000000000e-01	-2.71871195963e-02	2.70521147529e-20	1.89673726914e-01
1.02000000000e-01	-2.71871222227e-02	-1.33937084785e-20	1.89674364526e-01
1.03000000000e-01	-2.71871238526e-02	-3.17637355220e-20	1.89675008513e-01
1.04000000000e-01	-2.71871244558e-02	3.31401640613e-20	1.89675658726e-01
1.05000000000e-01	-2.71871240020e-02	-1.78406314515e-20	1.89676315313e-01
1.06000000000e-01	-2.71871224603e-02	6.03510974919e-21	1.89676978214e-01
1.07000000000e-01	-2.71871197996e-02	1.72582963003e-20	1.89677647414e-01
1.08000000000e-01	-2.71871159890e-02	6.29980754520e-21	1.89678322914e-01
1.09000000000e-01	-2.71871109958e-02	-2.59933235689e-20	1.89679004715e-01
1.10000000000e-01	-2.71871047889e-02	-4.18222517707e-21	1.89679692815e-01
1.11000000000e-01	-2.71870973358e-02	-2.63109609241e-20	1.89680387216e-01
1.12000000000e-01	-2.71870886038e-02	-9.37030197900e-21	1.89681087930e-01
1.13000000000e-01	-2.71870785602e-02	-3.28754662653e-20	1.89681795018e-01
1.14000000000e-01	-2.71870671718e-02	-1.92170599908e-20	1.89682508419e-01
1.15000000000e-01	-2.71870544051e-02	1.58818677610e-20	1.89683228033e-01
1.16000000000e-01	-2.71870402262e-02	-3.17107959628e-20	1.89683954035e-01
1.17000000000e-01	-2.71870246011e-02	-2.64697796017e-20	1.89684686423e-01
1.18000000000e-01	-2.71870074954e-02	-7.83505476210e-21	1.89685425025e-01
1.19000000000e-01	-2.71869888746e-02	-1.25996150904e-20	1.89686170027e-01
1.20000000000e-01	-2.71869687034e-02	-2.51992301808e-20	1.89686921242e-01
1.21000000000e-01	-2.71869469467e-02	2.42463181152e-20	1.89687678844e-01
1.22000000000e-01	-2.71869235687e-02	2.16522797142e-20	1.89688442834e-01
1.23000000000e-01	-2.71868985338e-02	-2.94873344763e-20	1.89689213036e-01
1.24000000000e-01	-2.71868718055e-02	-1.83170874844e-20	1.89689989639e-01
1.25000000000e-01	-2.71868433475e-02	-2.01170324973e-21	1.89690772542e-01
1.26000000000e-01	-2.71868131228e-02	1.58818677610e-22	1.89691561758e-01
1.27000000000e-01	-2.71867810943e-02	1.00585162486e-20	1.89692357348e-01
1.28000000000e-01	-2.71867472250e-02	-2.85873619698e-20	1.89693159252e-01
1.29000000000e-01	-2.71867114765e-02	3.32460431797e-20	1.89693967455e-01
1.30000000000e-01	-2.71866738112e-02	3.18166750812e-20	1.89694782059e-01
1.31000000000e-01	-2.71866341905e-02	1.58289282018e-20	1.89695602963e-01
1.32000000000e-01	-2.71865925758e-02	-3.16578564036e-20	1.89696430168e-01
1.33000000000e-01	-2.71865489282e-02	7.41153828848e-22	1.89697263772e-01
