# Re(epsi1)     Omega/c [1/micrones]    Im(epsi1)     Eq(det).Opt det SIN kz, mu = 0.6 eV, R = 0.5 micrones, solve_det_sinkz_vs_re_epsi1.py
1.000000000e+00	2.938826947e-01	-4.039353871e-02	7.642259222e-14
1.010000000e+00	2.931750178e-01	-4.025156926e-02	5.704916014e-14
1.020000000e+00	2.924723252e-01	-4.011132011e-02	5.265808404e-14
1.030000000e+00	2.917745596e-01	-3.997276746e-02	5.804317352e-14
1.040000000e+00	2.910816648e-01	-3.983588796e-02	1.154491057e-13
1.050000000e+00	2.903935854e-01	-3.970065870e-02	9.924487629e-14
1.060000000e+00	2.897102667e-01	-3.956705717e-02	1.003912724e-13
1.070000000e+00	2.890316551e-01	-3.943506131e-02	5.134749232e-14
1.080000000e+00	2.883576977e-01	-3.930464942e-02	6.033355441e-14
1.090000000e+00	2.876883423e-01	-3.917580022e-02	6.195166342e-14
1.100000000e+00	2.870235378e-01	-3.904849279e-02	1.306389696e-13
1.110000000e+00	2.863632336e-01	-3.892270663e-02	3.814327083e-14
1.120000000e+00	2.857073800e-01	-3.879842155e-02	6.678305264e-14
1.130000000e+00	2.850559281e-01	-3.867561777e-02	6.821993577e-14
1.140000000e+00	2.844088296e-01	-3.855427584e-02	3.506952950e-14
1.150000000e+00	2.837660371e-01	-3.843437664e-02	8.382125016e-14
1.160000000e+00	2.831275037e-01	-3.831590141e-02	1.502154728e-13
1.170000000e+00	2.824931833e-01	-3.819883171e-02	9.918145327e-14
1.180000000e+00	2.818630306e-01	-3.808314943e-02	7.917198034e-14
1.190000000e+00	2.812370009e-01	-3.796883675e-02	1.135275415e-13
1.200000000e+00	2.806150500e-01	-3.785587619e-02	1.594144210e-13
1.210000000e+00	2.799971346e-01	-3.774425055e-02	1.822878781e-13
1.220000000e+00	2.793832118e-01	-3.763394293e-02	6.306088769e-14
1.230000000e+00	2.787732395e-01	-3.752493673e-02	8.205036865e-14
1.240000000e+00	2.781671762e-01	-3.741721562e-02	9.187835508e-14
1.250000000e+00	2.775649809e-01	-3.731076355e-02	7.839283126e-14
1.260000000e+00	2.769666132e-01	-3.720556475e-02	1.105825639e-13
1.270000000e+00	2.763720333e-01	-3.710160370e-02	9.933015935e-14
1.280000000e+00	2.757812021e-01	-3.699886516e-02	8.033198679e-14
1.290000000e+00	2.751940809e-01	-3.689733411e-02	1.967603699e-13
1.300000000e+00	2.746106316e-01	-3.679699583e-02	5.401129468e-14
1.310000000e+00	2.740308166e-01	-3.669783580e-02	1.029869090e-13
1.320000000e+00	2.734545989e-01	-3.659983976e-02	1.151995659e-13
1.330000000e+00	2.728819420e-01	-3.650299368e-02	6.789056915e-14
1.340000000e+00	2.723128098e-01	-3.640728376e-02	6.463515571e-14
1.350000000e+00	2.717471669e-01	-3.631269642e-02	6.806758826e-14
1.360000000e+00	2.711849783e-01	-3.621921832e-02	7.697433824e-14
1.370000000e+00	2.706262094e-01	-3.612683631e-02	1.085975336e-13
1.380000000e+00	2.700708261e-01	-3.603553746e-02	1.000815563e-13
1.390000000e+00	2.695187949e-01	-3.594530906e-02	1.253613657e-13
1.400000000e+00	2.689700826e-01	-3.585613859e-02	1.123173222e-13
1.410000000e+00	2.684246567e-01	-3.576801374e-02	4.602088709e-14
1.420000000e+00	2.678824847e-01	-3.568092238e-02	7.751810286e-14
1.430000000e+00	2.673435350e-01	-3.559485258e-02	8.953173035e-14
1.440000000e+00	2.668077762e-01	-3.550979260e-02	8.272899334e-14
1.450000000e+00	2.662751773e-01	-3.542573089e-02	6.155926379e-14
1.460000000e+00	2.657457078e-01	-3.534265607e-02	5.876604593e-14
1.470000000e+00	2.652193375e-01	-3.526055694e-02	1.191880942e-13
1.480000000e+00	2.646960368e-01	-3.517942247e-02	8.829477448e-14
1.490000000e+00	2.641757762e-01	-3.509924181e-02	1.118455097e-13
1.500000000e+00	2.636585269e-01	-3.502000426e-02	6.234048103e-14
1.510000000e+00	2.631442603e-01	-3.494169931e-02	9.644449089e-14
1.520000000e+00	2.626329481e-01	-3.486431660e-02	7.126270389e-14
1.530000000e+00	2.621245626e-01	-3.478784591e-02	7.428085373e-14
1.540000000e+00	2.616190763e-01	-3.471227719e-02	1.410556594e-13
1.550000000e+00	2.611164620e-01	-3.463760055e-02	1.160127316e-13
1.560000000e+00	2.606166931e-01	-3.456380624e-02	9.547686040e-14
1.570000000e+00	2.601197430e-01	-3.449088464e-02	6.164367754e-14
1.580000000e+00	2.596255858e-01	-3.441882631e-02	2.097688844e-13
1.590000000e+00	2.591341956e-01	-3.434762193e-02	5.300958177e-14
1.600000000e+00	2.586455471e-01	-3.427726231e-02	8.795496234e-14
1.610000000e+00	2.581596151e-01	-3.420773840e-02	9.013319232e-14
1.620000000e+00	2.576763749e-01	-3.413904130e-02	9.857908761e-14
1.630000000e+00	2.571958020e-01	-3.407116222e-02	6.267059623e-14
1.640000000e+00	2.567178723e-01	-3.400409252e-02	1.237595969e-13
1.650000000e+00	2.562425618e-01	-3.393782366e-02	1.719993314e-13
1.660000000e+00	2.557698470e-01	-3.387234725e-02	6.258596123e-14
1.670000000e+00	2.552997047e-01	-3.380765500e-02	1.181937091e-13
1.680000000e+00	2.548321119e-01	-3.374373875e-02	1.048936964e-13
1.690000000e+00	2.543670458e-01	-3.368059046e-02	9.492822374e-14
1.700000000e+00	2.539044841e-01	-3.361820220e-02	1.504688326e-13
1.710000000e+00	2.534444046e-01	-3.355656615e-02	9.582437525e-14
1.720000000e+00	2.529867855e-01	-3.349567461e-02	8.021313333e-14
1.730000000e+00	2.525316051e-01	-3.343551998e-02	2.538024228e-13
1.740000000e+00	2.520788420e-01	-3.337609478e-02	7.461017268e-14
1.750000000e+00	2.516284753e-01	-3.331739162e-02	9.588989017e-14
1.760000000e+00	2.511804840e-01	-3.325940323e-02	1.599599865e-13
1.770000000e+00	2.507348476e-01	-3.320212242e-02	1.262864203e-13
1.780000000e+00	2.502915458e-01	-3.314554212e-02	1.493568143e-13
1.790000000e+00	2.498505584e-01	-3.308965535e-02	1.092547211e-13
1.800000000e+00	2.494118656e-01	-3.303445523e-02	6.509659476e-14
1.810000000e+00	2.489754478e-01	-3.297993497e-02	7.687214708e-14
1.820000000e+00	2.485412856e-01	-3.292608788e-02	1.207402122e-13
1.830000000e+00	2.481093598e-01	-3.287290735e-02	6.883617776e-14
1.840000000e+00	2.476796515e-01	-3.282038687e-02	6.035716522e-14
1.850000000e+00	2.472521420e-01	-3.276852003e-02	1.156679772e-13
1.860000000e+00	2.468268127e-01	-3.271730047e-02	1.164777703e-13
1.870000000e+00	2.464036455e-01	-3.266672195e-02	2.209524171e-13
1.880000000e+00	2.459826222e-01	-3.261677831e-02	1.873393454e-13
1.890000000e+00	2.455637250e-01	-3.256746345e-02	6.864681090e-14
1.900000000e+00	2.451469362e-01	-3.251877139e-02	1.488672879e-13
1.910000000e+00	2.447322385e-01	-3.247069618e-02	6.679013503e-14
1.920000000e+00	2.443196144e-01	-3.242323200e-02	1.623511310e-13
1.930000000e+00	2.439090470e-01	-3.237637308e-02	6.898694523e-14
1.940000000e+00	2.435005194e-01	-3.233011371e-02	1.322789618e-13
1.950000000e+00	2.430940149e-01	-3.228444830e-02	1.173303560e-13
1.960000000e+00	2.426895171e-01	-3.223937130e-02	9.878553668e-14
1.970000000e+00	2.422870097e-01	-3.219487723e-02	1.642799320e-13
1.980000000e+00	2.418864766e-01	-3.215096071e-02	1.332482284e-13
1.990000000e+00	2.414879017e-01	-3.210761640e-02	2.021376375e-13
2.000000000e+00	2.410912694e-01	-3.206483904e-02	8.514010492e-14
2.010000000e+00	2.406965641e-01	-3.202262345e-02	8.734609088e-14
2.020000000e+00	2.403037704e-01	-3.198096450e-02	8.234263042e-14
2.030000000e+00	2.399128731e-01	-3.193985713e-02	1.120048459e-13
2.040000000e+00	2.395238570e-01	-3.189929635e-02	1.248602763e-13
2.050000000e+00	2.391367073e-01	-3.185927722e-02	1.475686460e-13
2.060000000e+00	2.387514092e-01	-3.181979489e-02	1.282188395e-13
2.070000000e+00	2.383679483e-01	-3.178084455e-02	1.423588317e-13
2.080000000e+00	2.379863099e-01	-3.174242145e-02	9.560936506e-14
2.090000000e+00	2.376064799e-01	-3.170452090e-02	2.280713260e-13
2.100000000e+00	2.372284443e-01	-3.166713829e-02	1.320372145e-13
2.110000000e+00	2.368521889e-01	-3.163026904e-02	1.447138556e-13
2.120000000e+00	2.364777000e-01	-3.159390863e-02	1.164981228e-13
2.130000000e+00	2.361049641e-01	-3.155805263e-02	1.700133296e-13
2.140000000e+00	2.357339674e-01	-3.152269662e-02	1.755644573e-13
2.150000000e+00	2.353646968e-01	-3.148783626e-02	1.316000815e-13
2.160000000e+00	2.349971389e-01	-3.145346725e-02	1.913117555e-13
2.170000000e+00	2.346312807e-01	-3.141958536e-02	7.136206246e-14
2.180000000e+00	2.342671092e-01	-3.138618641e-02	9.133998540e-14
2.190000000e+00	2.339046116e-01	-3.135326625e-02	1.533259399e-13
2.200000000e+00	2.335437753e-01	-3.132082079e-02	8.945504470e-14
2.210000000e+00	2.331845877e-01	-3.128884601e-02	9.256399162e-14
2.220000000e+00	2.328270363e-01	-3.125733791e-02	2.067559608e-13
2.230000000e+00	2.324711090e-01	-3.122629256e-02	1.168539137e-13
2.240000000e+00	2.321167936e-01	-3.119570606e-02	1.107230827e-13
2.250000000e+00	2.317640780e-01	-3.116557456e-02	1.754121549e-13
2.260000000e+00	2.314129503e-01	-3.113589427e-02	8.654108361e-14
2.270000000e+00	2.310633988e-01	-3.110666144e-02	1.270090409e-13
2.280000000e+00	2.307154117e-01	-3.107787235e-02	8.803559310e-14
2.290000000e+00	2.303689777e-01	-3.104952333e-02	9.127194736e-14
2.300000000e+00	2.300240851e-01	-3.102161077e-02	1.005055416e-13
2.310000000e+00	2.296807228e-01	-3.099413108e-02	2.179542836e-13
2.320000000e+00	2.293388795e-01	-3.096708073e-02	1.376558472e-13
2.330000000e+00	2.289985442e-01	-3.094045622e-02	2.044371623e-13
2.340000000e+00	2.286597058e-01	-3.091425410e-02	1.052641320e-13
2.350000000e+00	2.283223536e-01	-3.088847094e-02	8.349277598e-14
2.360000000e+00	2.279864768e-01	-3.086310338e-02	3.155984704e-13
2.370000000e+00	2.276520647e-01	-3.083814807e-02	9.412281966e-14
2.380000000e+00	2.273191069e-01	-3.081360173e-02	2.075528020e-13
2.390000000e+00	2.269875929e-01	-3.078946108e-02	1.188532120e-13
2.400000000e+00	2.266575123e-01	-3.076572291e-02	5.514858963e-14
2.410000000e+00	2.263288550e-01	-3.074238402e-02	1.072475585e-13
2.420000000e+00	2.260016108e-01	-3.071944128e-02	2.259882420e-13
2.430000000e+00	2.256757698e-01	-3.069689156e-02	1.726939781e-13
2.440000000e+00	2.253513219e-01	-3.067473179e-02	1.988668224e-13
2.450000000e+00	2.250282574e-01	-3.065295893e-02	1.203756723e-13
2.460000000e+00	2.247065665e-01	-3.063156995e-02	1.071389954e-13
2.470000000e+00	2.243862396e-01	-3.061056190e-02	6.539074600e-14
2.480000000e+00	2.240672673e-01	-3.058993182e-02	1.399733794e-13
2.490000000e+00	2.237496399e-01	-3.056967681e-02	1.158042978e-13
2.500000000e+00	2.234333482e-01	-3.054979399e-02	9.770473558e-14
2.510000000e+00	2.231183828e-01	-3.053028051e-02	1.576785627e-13
2.520000000e+00	2.228047347e-01	-3.051113357e-02	9.022288734e-14
2.530000000e+00	2.224923948e-01	-3.049235037e-02	1.053161681e-13
2.540000000e+00	2.221813539e-01	-3.047392817e-02	1.435040565e-13
2.550000000e+00	2.218716033e-01	-3.045586424e-02	1.335679509e-13
2.560000000e+00	2.215631341e-01	-3.043815590e-02	1.296392551e-13
2.570000000e+00	2.212559375e-01	-3.042080048e-02	1.517600662e-13
2.580000000e+00	2.209500048e-01	-3.040379535e-02	1.727910202e-13
2.590000000e+00	2.206453276e-01	-3.038713791e-02	8.466191286e-14
2.600000000e+00	2.203418973e-01	-3.037082557e-02	5.889356432e-14
2.610000000e+00	2.200397054e-01	-3.035485579e-02	6.166729268e-14
2.620000000e+00	2.197387436e-01	-3.033922604e-02	9.571167274e-14
2.630000000e+00	2.194390037e-01	-3.032393385e-02	6.912939419e-14
2.640000000e+00	2.191404775e-01	-3.030897672e-02	1.955516042e-13
2.650000000e+00	2.188431569e-01	-3.029435224e-02	1.347055149e-13
2.660000000e+00	2.185470337e-01	-3.028005797e-02	2.153859636e-13
2.670000000e+00	2.182521002e-01	-3.026609154e-02	1.207504331e-13
2.680000000e+00	2.179583483e-01	-3.025245057e-02	1.382910128e-13
2.690000000e+00	2.176657702e-01	-3.023913274e-02	2.139494253e-13
2.700000000e+00	2.173743583e-01	-3.022613572e-02	8.504136253e-14
2.710000000e+00	2.170841048e-01	-3.021345722e-02	1.577593810e-13
2.720000000e+00	2.167950022e-01	-3.020109498e-02	2.386516327e-13
2.730000000e+00	2.165070428e-01	-3.018904677e-02	1.362768350e-13
2.740000000e+00	2.162202193e-01	-3.017731035e-02	7.910822080e-14
2.750000000e+00	2.159345243e-01	-3.016588353e-02	9.043977886e-14
2.760000000e+00	2.156499503e-01	-3.015476414e-02	1.477373679e-13
2.770000000e+00	2.153664902e-01	-3.014395004e-02	1.756170085e-13
2.780000000e+00	2.150841368e-01	-3.013343908e-02	1.748989975e-13
2.790000000e+00	2.148028828e-01	-3.012322917e-02	1.447547868e-13
2.800000000e+00	2.145227213e-01	-3.011331823e-02	1.321926476e-13
2.810000000e+00	2.142436452e-01	-3.010370418e-02	1.938722248e-13
2.820000000e+00	2.139656476e-01	-3.009438498e-02	1.043453876e-13
2.830000000e+00	2.136887216e-01	-3.008535862e-02	1.030589751e-13
2.840000000e+00	2.134128604e-01	-3.007662310e-02	1.737385525e-13
2.850000000e+00	2.131380572e-01	-3.006817643e-02	1.010593429e-13
2.860000000e+00	2.128643053e-01	-3.006001665e-02	9.552177220e-14
2.870000000e+00	2.125915981e-01	-3.005214182e-02	1.454648508e-13
2.880000000e+00	2.123199289e-01	-3.004455002e-02	5.036363727e-14
2.890000000e+00	2.120492913e-01	-3.003723935e-02	1.551612941e-13
2.900000000e+00	2.117796788e-01	-3.003020793e-02	1.068853631e-13
2.910000000e+00	2.115110850e-01	-3.002345389e-02	1.440684962e-13
2.920000000e+00	2.112435035e-01	-3.001697538e-02	1.226490590e-13
2.930000000e+00	2.109769279e-01	-3.001077059e-02	1.824916327e-13
2.940000000e+00	2.107113522e-01	-3.000483769e-02	1.306698542e-13
2.950000000e+00	2.104467700e-01	-2.999917490e-02	1.727564463e-13
2.960000000e+00	2.101831752e-01	-2.999378045e-02	2.136148729e-13
2.970000000e+00	2.099205617e-01	-2.998865258e-02	1.351464893e-13
2.980000000e+00	2.096589236e-01	-2.998378954e-02	1.077230470e-13
2.990000000e+00	2.093982547e-01	-2.997918962e-02	1.281504353e-13
3.000000000e+00	2.091385492e-01	-2.997485112e-02	8.722186877e-14
3.010000000e+00	2.088798012e-01	-2.997077234e-02	3.138328176e-13
3.020000000e+00	2.086220049e-01	-2.996695161e-02	7.795507081e-14
3.030000000e+00	2.083651544e-01	-2.996338728e-02	1.099694820e-13
3.040000000e+00	2.081092441e-01	-2.996007770e-02	2.014559640e-13
3.050000000e+00	2.078542682e-01	-2.995702125e-02	1.286763812e-13
3.060000000e+00	2.076002211e-01	-2.995421633e-02	6.818127632e-14
3.070000000e+00	2.073470972e-01	-2.995166133e-02	1.846771239e-13
3.080000000e+00	2.070948910e-01	-2.994935469e-02	1.084332867e-13
3.090000000e+00	2.068435969e-01	-2.994729483e-02	9.881173593e-14
3.100000000e+00	2.065932096e-01	-2.994548021e-02	8.117182507e-14
3.110000000e+00	2.063437236e-01	-2.994390931e-02	1.169865476e-13
3.120000000e+00	2.060951335e-01	-2.994258059e-02	8.867846902e-14
3.130000000e+00	2.058474340e-01	-2.994149255e-02	2.848277170e-13
3.140000000e+00	2.056006199e-01	-2.994064370e-02	8.679901186e-14
3.150000000e+00	2.053546859e-01	-2.994003258e-02	9.240897845e-14
3.160000000e+00	2.051096268e-01	-2.993965770e-02	1.059624127e-13
3.170000000e+00	2.048654375e-01	-2.993951763e-02	1.364684046e-13
3.180000000e+00	2.046221129e-01	-2.993961093e-02	8.943397768e-14
3.190000000e+00	2.043796479e-01	-2.993993618e-02	1.243735241e-13
3.200000000e+00	2.041380375e-01	-2.994049197e-02	1.343619407e-13
3.210000000e+00	2.038972766e-01	-2.994127690e-02	2.747741708e-13
3.220000000e+00	2.036573605e-01	-2.994228959e-02	7.813067835e-14
3.230000000e+00	2.034182841e-01	-2.994352867e-02	1.444451889e-13
3.240000000e+00	2.031800426e-01	-2.994499279e-02	9.984016589e-14
3.250000000e+00	2.029426313e-01	-2.994668059e-02	1.528571897e-13
3.260000000e+00	2.027060452e-01	-2.994859074e-02	8.134473107e-14
3.270000000e+00	2.024702796e-01	-2.995072193e-02	1.847017506e-13
3.280000000e+00	2.022353300e-01	-2.995307285e-02	9.524498763e-14
3.290000000e+00	2.020011915e-01	-2.995564219e-02	1.658399708e-13
3.300000000e+00	2.017678595e-01	-2.995842868e-02	2.158419757e-13
3.310000000e+00	2.015353295e-01	-2.996143104e-02	9.673050259e-14
3.320000000e+00	2.013035969e-01	-2.996464800e-02	8.602509214e-14
3.330000000e+00	2.010726572e-01	-2.996807833e-02	2.289822540e-13
3.340000000e+00	2.008425058e-01	-2.997172077e-02	2.889005110e-13
3.350000000e+00	2.006131384e-01	-2.997557410e-02	1.518324464e-13
3.360000000e+00	2.003845505e-01	-2.997963711e-02	1.655916995e-13
3.370000000e+00	2.001567377e-01	-2.998390858e-02	9.069000013e-14
3.380000000e+00	1.999296957e-01	-2.998838732e-02	8.439097258e-14
3.390000000e+00	1.997034201e-01	-2.999307215e-02	1.564111970e-13
3.400000000e+00	1.994779068e-01	-2.999796189e-02	8.023925213e-14
3.410000000e+00	1.992531514e-01	-3.000305538e-02	9.770922975e-14
3.420000000e+00	1.990291497e-01	-3.000835146e-02	5.894481856e-14
3.430000000e+00	1.988058976e-01	-3.001384899e-02	7.225498709e-14
3.440000000e+00	1.985833908e-01	-3.001954683e-02	5.739584602e-14
3.450000000e+00	1.983616253e-01	-3.002544387e-02	1.404180658e-13
3.460000000e+00	1.981405970e-01	-3.003153898e-02	2.833187412e-13
3.470000000e+00	1.979203019e-01	-3.003783107e-02	4.176508655e-14
3.480000000e+00	1.977007358e-01	-3.004431903e-02	1.708281159e-13
3.490000000e+00	1.974818949e-01	-3.005100179e-02	2.439484200e-13
3.500000000e+00	1.972637751e-01	-3.005787826e-02	9.930955815e-14
3.510000000e+00	1.970463726e-01	-3.006494739e-02	1.496828111e-13
3.520000000e+00	1.968296833e-01	-3.007220811e-02	2.728756608e-13
3.530000000e+00	1.966137035e-01	-3.007965937e-02	1.135745809e-13
3.540000000e+00	1.963984293e-01	-3.008730014e-02	9.072283417e-14
3.550000000e+00	1.961838569e-01	-3.009512938e-02	7.323166481e-14
3.560000000e+00	1.959699825e-01	-3.010314607e-02	1.543668802e-13
3.570000000e+00	1.957568023e-01	-3.011134921e-02	1.437037040e-13
3.580000000e+00	1.955443126e-01	-3.011973778e-02	1.351082579e-13
3.590000000e+00	1.953325098e-01	-3.012831078e-02	1.484755611e-13
3.600000000e+00	1.951213901e-01	-3.013706724e-02	9.550372128e-14
3.610000000e+00	1.949109498e-01	-3.014600618e-02	2.460797501e-13
3.620000000e+00	1.947011855e-01	-3.015512661e-02	1.337276537e-13
3.630000000e+00	1.944920934e-01	-3.016442759e-02	1.098585178e-13
3.640000000e+00	1.942836700e-01	-3.017390814e-02	9.339742534e-14
3.650000000e+00	1.940759117e-01	-3.018356734e-02	1.280798172e-13
3.660000000e+00	1.938688152e-01	-3.019340423e-02	8.537268559e-14
3.670000000e+00	1.936623768e-01	-3.020341789e-02	1.174072397e-13
3.680000000e+00	1.934565931e-01	-3.021360740e-02	1.408113417e-13
3.690000000e+00	1.932514606e-01	-3.022397183e-02	1.938699360e-13
3.700000000e+00	1.930469760e-01	-3.023451028e-02	1.706744036e-13
3.710000000e+00	1.928431359e-01	-3.024522186e-02	7.594323146e-14
3.720000000e+00	1.926399369e-01	-3.025610565e-02	2.334972503e-13
3.730000000e+00	1.924373756e-01	-3.026716079e-02	5.849179212e-14
3.740000000e+00	1.922354488e-01	-3.027838640e-02	9.692138907e-14
3.750000000e+00	1.920341531e-01	-3.028978159e-02	1.373775386e-13
3.760000000e+00	1.918334854e-01	-3.030134550e-02	2.699544725e-13
3.770000000e+00	1.916334423e-01	-3.031307729e-02	7.987998726e-14
3.780000000e+00	1.914340206e-01	-3.032497609e-02	3.894666326e-13
3.790000000e+00	1.912352171e-01	-3.033704107e-02	5.201394870e-14
3.800000000e+00	1.910370287e-01	-3.034927139e-02	9.738106893e-14
3.810000000e+00	1.908394522e-01	-3.036166621e-02	7.069749935e-14
3.820000000e+00	1.906424845e-01	-3.037422472e-02	1.485155179e-13
3.830000000e+00	1.904461225e-01	-3.038694610e-02	1.835590604e-13
3.840000000e+00	1.902503630e-01	-3.039982954e-02	2.361033876e-13
3.850000000e+00	1.900552031e-01	-3.041287423e-02	3.729373536e-13
3.860000000e+00	1.898606397e-01	-3.042607938e-02	6.362662873e-14
3.870000000e+00	1.896666697e-01	-3.043944419e-02	3.013738028e-13
3.880000000e+00	1.894732902e-01	-3.045296789e-02	1.424326684e-13
3.890000000e+00	1.892804982e-01	-3.046664969e-02	2.040187892e-13
3.900000000e+00	1.890882907e-01	-3.048048882e-02	1.476051010e-13
3.910000000e+00	1.888966649e-01	-3.049448452e-02	9.960416154e-14
3.920000000e+00	1.887056177e-01	-3.050863602e-02	1.264734693e-13
3.930000000e+00	1.885151463e-01	-3.052294258e-02	8.168774765e-14
3.940000000e+00	1.883252478e-01	-3.053740343e-02	1.199176681e-13
3.950000000e+00	1.881359194e-01	-3.055201785e-02	1.146976452e-13
3.960000000e+00	1.879471582e-01	-3.056678509e-02	1.257375611e-13
3.970000000e+00	1.877589614e-01	-3.058170443e-02	4.329699131e-13
3.980000000e+00	1.875713262e-01	-3.059677513e-02	1.809814136e-13
3.990000000e+00	1.873842499e-01	-3.061199648e-02	9.750470112e-14
4.000000000e+00	1.871977297e-01	-3.062736777e-02	2.979602036e-13
4.010000000e+00	1.870117628e-01	-3.064288828e-02	2.915445663e-13
4.020000000e+00	1.868263465e-01	-3.065855732e-02	1.049832551e-13
4.030000000e+00	1.866414782e-01	-3.067437418e-02	8.763338528e-14
4.040000000e+00	1.864571550e-01	-3.069033818e-02	1.301130230e-13
