# Re(epsi1)     Omega/c [1/micrones]    Im(epsi1)     Eq(det).Opt det SIN kz, mu = 0.6 eV, R = 0.5 micrones, solve_det_sinkz_vs_re_epsi1.py
1.000000000e+00	4.185965932e-01	-6.018333768e-03	4.056526575e-14
1.010000000e+00	4.175669963e-01	-6.039809870e-03	4.296374851e-14
1.020000000e+00	4.165448811e-01	-6.061368522e-03	6.852231756e-14
1.030000000e+00	4.155301585e-01	-6.083008679e-03	1.260293098e-13
1.040000000e+00	4.145227408e-01	-6.104729316e-03	1.381798806e-13
1.050000000e+00	4.135225417e-01	-6.126529436e-03	4.524790146e-14
1.060000000e+00	4.125294762e-01	-6.148408062e-03	7.080548942e-14
1.070000000e+00	4.115434607e-01	-6.170364242e-03	7.308210271e-14
1.080000000e+00	4.105644133e-01	-6.192397044e-03	1.110594896e-13
1.090000000e+00	4.095922528e-01	-6.214505559e-03	7.153016257e-14
1.100000000e+00	4.086268999e-01	-6.236688897e-03	6.305764456e-14
1.110000000e+00	4.076682762e-01	-6.258946190e-03	5.204342140e-14
1.120000000e+00	4.067163046e-01	-6.281276589e-03	8.135197683e-14
1.130000000e+00	4.057709093e-01	-6.303679263e-03	8.784255157e-14
1.140000000e+00	4.048320157e-01	-6.326153401e-03	7.742423166e-14
1.150000000e+00	4.038995502e-01	-6.348698209e-03	6.087327540e-14
1.160000000e+00	4.029734406e-01	-6.371312911e-03	7.433898450e-14
1.170000000e+00	4.020536157e-01	-6.393996748e-03	6.430287170e-14
1.180000000e+00	4.011400052e-01	-6.416748978e-03	5.749264501e-14
1.190000000e+00	4.002325403e-01	-6.439568876e-03	5.474226038e-14
1.200000000e+00	3.993311529e-01	-6.462455729e-03	6.061777047e-14
1.210000000e+00	3.984357761e-01	-6.485408844e-03	7.062943281e-14
1.220000000e+00	3.975463440e-01	-6.508427540e-03	9.067719819e-14
1.230000000e+00	3.966627916e-01	-6.531511152e-03	7.573958828e-14
1.240000000e+00	3.957850551e-01	-6.554659027e-03	9.485927968e-14
1.250000000e+00	3.949130715e-01	-6.577870530e-03	5.257298793e-14
1.260000000e+00	3.940467787e-01	-6.601145034e-03	4.061428910e-14
1.270000000e+00	3.931861156e-01	-6.624481929e-03	5.952197630e-14
1.280000000e+00	3.923310220e-01	-6.647880617e-03	1.378725135e-13
1.290000000e+00	3.914814386e-01	-6.671340511e-03	9.506233999e-14
1.300000000e+00	3.906373070e-01	-6.694861038e-03	1.625509298e-13
1.310000000e+00	3.897985695e-01	-6.718441635e-03	6.678358904e-14
1.320000000e+00	3.889651695e-01	-6.742081751e-03	4.183315210e-14
1.330000000e+00	3.881370510e-01	-6.765780848e-03	7.852938019e-14
1.340000000e+00	3.873141589e-01	-6.789538396e-03	6.536937499e-14
1.350000000e+00	3.864964389e-01	-6.813353878e-03	6.367141297e-14
1.360000000e+00	3.856838374e-01	-6.837226786e-03	8.518551520e-14
1.370000000e+00	3.848763018e-01	-6.861156622e-03	1.295924946e-13
1.380000000e+00	3.840737800e-01	-6.885142900e-03	1.129015083e-13
1.390000000e+00	3.832762206e-01	-6.909185140e-03	9.647570685e-14
1.400000000e+00	3.824835732e-01	-6.933282875e-03	1.315662424e-13
1.410000000e+00	3.816957880e-01	-6.957435645e-03	6.364315700e-14
1.420000000e+00	3.809128157e-01	-6.981643000e-03	1.225473328e-13
1.430000000e+00	3.801346079e-01	-7.005904498e-03	8.716815859e-14
1.440000000e+00	3.793611170e-01	-7.030219705e-03	7.744440299e-14
1.450000000e+00	3.785922956e-01	-7.054588197e-03	6.980789368e-14
1.460000000e+00	3.778280975e-01	-7.079009557e-03	7.719893692e-14
1.470000000e+00	3.770684767e-01	-7.103483376e-03	7.412103765e-14
1.480000000e+00	3.763133881e-01	-7.128009252e-03	4.530594276e-14
1.490000000e+00	3.755627870e-01	-7.152586793e-03	9.308666527e-14
1.500000000e+00	3.748166296e-01	-7.177215612e-03	1.149334835e-13
1.510000000e+00	3.740748725e-01	-7.201895329e-03	1.073506308e-13
1.520000000e+00	3.733374728e-01	-7.226625573e-03	1.469306183e-13
1.530000000e+00	3.726043884e-01	-7.251405979e-03	1.083664689e-13
1.540000000e+00	3.718755776e-01	-7.276236187e-03	8.589930946e-14
1.550000000e+00	3.711509994e-01	-7.301115847e-03	1.625500351e-13
1.560000000e+00	3.704306131e-01	-7.326044612e-03	1.147490052e-13
1.570000000e+00	3.697143788e-01	-7.351022143e-03	7.976456777e-14
1.580000000e+00	3.690022570e-01	-7.376048107e-03	7.283103534e-14
1.590000000e+00	3.682942088e-01	-7.401122177e-03	1.103998675e-13
1.600000000e+00	3.675901958e-01	-7.426244031e-03	6.910808967e-14
1.610000000e+00	3.668901799e-01	-7.451413354e-03	4.770510905e-14
1.620000000e+00	3.661941237e-01	-7.476629835e-03	9.492462453e-14
1.630000000e+00	3.655019903e-01	-7.501893170e-03	1.195013923e-13
1.640000000e+00	3.648137432e-01	-7.527203059e-03	1.185631810e-13
1.650000000e+00	3.641293464e-01	-7.552559208e-03	1.637311817e-13
1.660000000e+00	3.634487644e-01	-7.577961328e-03	1.290655204e-13
1.670000000e+00	3.627719619e-01	-7.603409135e-03	7.251276930e-14
1.680000000e+00	3.620989045e-01	-7.628902351e-03	9.485002587e-14
1.690000000e+00	3.614295579e-01	-7.654440699e-03	8.121196052e-14
1.700000000e+00	3.607638883e-01	-7.680023911e-03	7.365217082e-14
1.710000000e+00	3.601018624e-01	-7.705651721e-03	1.295857867e-13
1.720000000e+00	3.594434472e-01	-7.731323868e-03	6.150295530e-14
1.730000000e+00	3.587886103e-01	-7.757040096e-03	1.079929687e-13
1.740000000e+00	3.581373194e-01	-7.782800154e-03	9.613272134e-14
1.750000000e+00	3.574895430e-01	-7.808603792e-03	1.295701091e-13
1.760000000e+00	3.568452497e-01	-7.834450767e-03	8.036970082e-14
1.770000000e+00	3.562044086e-01	-7.860340839e-03	9.210065473e-14
1.780000000e+00	3.555669891e-01	-7.886273772e-03	1.022253421e-13
1.790000000e+00	3.549329611e-01	-7.912249334e-03	1.044125587e-13
1.800000000e+00	3.543022947e-01	-7.938267296e-03	6.822164656e-14
1.810000000e+00	3.536749605e-01	-7.964327434e-03	1.393196862e-13
1.820000000e+00	3.530509294e-01	-7.990429527e-03	1.502745921e-13
1.830000000e+00	3.524301727e-01	-8.016573357e-03	1.025418622e-13
1.840000000e+00	3.518126621e-01	-8.042758709e-03	1.055607268e-13
1.850000000e+00	3.511983694e-01	-8.068985374e-03	9.791342655e-14
1.860000000e+00	3.505872669e-01	-8.095253143e-03	1.153138617e-13
1.870000000e+00	3.499793274e-01	-8.121561812e-03	6.039786883e-14
1.880000000e+00	3.493745237e-01	-8.147911181e-03	1.637746074e-13
1.890000000e+00	3.487728291e-01	-8.174301051e-03	8.015849161e-14
1.900000000e+00	3.481742172e-01	-8.200731227e-03	2.194242269e-13
1.910000000e+00	3.475786619e-01	-8.227201518e-03	9.638124432e-14
1.920000000e+00	3.469861374e-01	-8.253711735e-03	1.155980639e-13
1.930000000e+00	3.463966182e-01	-8.280261690e-03	1.202047581e-13
1.940000000e+00	3.458100792e-01	-8.306851202e-03	1.049833762e-13
1.950000000e+00	3.452264953e-01	-8.333480089e-03	9.895074472e-14
1.960000000e+00	3.446458421e-01	-8.360148174e-03	1.008794027e-13
1.970000000e+00	3.440680951e-01	-8.386855281e-03	1.656250858e-13
1.980000000e+00	3.434932304e-01	-8.413601238e-03	1.167419736e-13
1.990000000e+00	3.429212241e-01	-8.440385874e-03	1.000875793e-13
2.000000000e+00	3.423520528e-01	-8.467209022e-03	4.946380189e-14
2.010000000e+00	3.417856932e-01	-8.494070517e-03	9.276542978e-14
2.020000000e+00	3.412221224e-01	-8.520970196e-03	1.223640335e-13
2.030000000e+00	3.406613177e-01	-8.547907898e-03	6.148637638e-14
2.040000000e+00	3.401032565e-01	-8.574883466e-03	1.273218420e-13
2.050000000e+00	3.395479168e-01	-8.601896744e-03	1.048648706e-13
2.060000000e+00	3.389952765e-01	-8.628947577e-03	1.622078114e-13
2.070000000e+00	3.384453140e-01	-8.656035815e-03	2.701746553e-13
2.080000000e+00	3.378980079e-01	-8.683161308e-03	8.079529830e-14
2.090000000e+00	3.373533368e-01	-8.710323909e-03	1.759479334e-13
2.100000000e+00	3.368112798e-01	-8.737523473e-03	8.891991624e-14
2.110000000e+00	3.362718162e-01	-8.764759856e-03	1.016675520e-13
2.120000000e+00	3.357349254e-01	-8.792032917e-03	1.208703415e-13
2.130000000e+00	3.352005871e-01	-8.819342517e-03	8.418341696e-14
2.140000000e+00	3.346687813e-01	-8.846688519e-03	8.151983253e-14
2.150000000e+00	3.341394881e-01	-8.874070787e-03	1.768637684e-13
2.160000000e+00	3.336126879e-01	-8.901489187e-03	1.221336160e-13
2.170000000e+00	3.330883612e-01	-8.928943588e-03	9.981248071e-14
2.180000000e+00	3.325664889e-01	-8.956433859e-03	1.135429077e-13
2.190000000e+00	3.320470518e-01	-8.983959872e-03	1.993584982e-13
2.200000000e+00	3.315300313e-01	-9.011521501e-03	1.947796439e-13
2.210000000e+00	3.310154087e-01	-9.039118620e-03	2.389478536e-13
2.220000000e+00	3.305031656e-01	-9.066751105e-03	9.663229612e-14
2.230000000e+00	3.299932838e-01	-9.094418836e-03	8.649920383e-14
2.240000000e+00	3.294857453e-01	-9.122121692e-03	7.211807782e-14
2.250000000e+00	3.289805322e-01	-9.149859555e-03	8.857249183e-14
2.260000000e+00	3.284776270e-01	-9.177632306e-03	1.510881610e-13
2.270000000e+00	3.279770122e-01	-9.205439831e-03	8.667968169e-14
2.280000000e+00	3.274786705e-01	-9.233282016e-03	1.565583161e-13
2.290000000e+00	3.269825849e-01	-9.261158748e-03	1.019817591e-13
2.300000000e+00	3.264887384e-01	-9.289069914e-03	7.661371995e-14
2.310000000e+00	3.259971142e-01	-9.317015407e-03	1.207191047e-13
2.320000000e+00	3.255076960e-01	-9.344995117e-03	1.049827855e-13
2.330000000e+00	3.250204672e-01	-9.373008937e-03	1.124215059e-13
2.340000000e+00	3.245354117e-01	-9.401056760e-03	2.491333761e-13
2.350000000e+00	3.240525133e-01	-9.429138484e-03	1.458037029e-13
2.360000000e+00	3.235717563e-01	-9.457254003e-03	1.911859514e-13
2.370000000e+00	3.230931249e-01	-9.485403217e-03	1.746145506e-13
2.380000000e+00	3.226166036e-01	-9.513586025e-03	1.460954324e-13
2.390000000e+00	3.221421769e-01	-9.541802326e-03	1.667920297e-13
2.400000000e+00	3.216698296e-01	-9.570052022e-03	1.793065271e-13
2.410000000e+00	3.211995466e-01	-9.598335018e-03	4.146353746e-13
2.420000000e+00	3.207313130e-01	-9.626651215e-03	6.320597436e-14
2.430000000e+00	3.202651139e-01	-9.655000519e-03	2.824971571e-13
2.440000000e+00	3.198009348e-01	-9.683382838e-03	3.235942848e-13
2.450000000e+00	3.193387612e-01	-9.711798076e-03	1.066006677e-13
2.460000000e+00	3.188785786e-01	-9.740246144e-03	2.970306549e-13
2.470000000e+00	3.184203730e-01	-9.768726951e-03	7.065499475e-14
2.480000000e+00	3.179641302e-01	-9.797240406e-03	6.167814917e-14
2.490000000e+00	3.175098363e-01	-9.825786422e-03	5.438450604e-14
2.500000000e+00	3.170574775e-01	-9.854364911e-03	2.172011555e-13
2.510000000e+00	3.166070402e-01	-9.882975786e-03	1.052428185e-13
2.520000000e+00	3.161585108e-01	-9.911618962e-03	1.305841282e-13
2.530000000e+00	3.157118760e-01	-9.940294354e-03	8.684500175e-14
2.540000000e+00	3.152671225e-01	-9.969001879e-03	1.247726827e-13
2.550000000e+00	3.148242372e-01	-9.997741453e-03	1.214448636e-13
2.560000000e+00	3.143832071e-01	-1.002651300e-02	8.145724282e-14
2.570000000e+00	3.139440192e-01	-1.005531642e-02	1.280329775e-13
2.580000000e+00	3.135066610e-01	-1.008415166e-02	6.958296236e-14
2.590000000e+00	3.130711197e-01	-1.011301862e-02	1.464080805e-13
2.600000000e+00	3.126373828e-01	-1.014191724e-02	9.123711561e-14
2.610000000e+00	3.122054379e-01	-1.017084742e-02	9.902987512e-14
2.620000000e+00	3.117752729e-01	-1.019980910e-02	8.274141461e-14
2.630000000e+00	3.113468754e-01	-1.022880220e-02	1.330355778e-13
2.640000000e+00	3.109202336e-01	-1.025782665e-02	1.373638916e-13
2.650000000e+00	3.104953354e-01	-1.028688236e-02	1.519279363e-13
2.660000000e+00	3.100721692e-01	-1.031596927e-02	2.206601166e-13
2.670000000e+00	3.096507230e-01	-1.034508731e-02	1.732369027e-13
2.680000000e+00	3.092309855e-01	-1.037423640e-02	7.433888313e-14
2.690000000e+00	3.088129451e-01	-1.040341646e-02	9.393956472e-14
2.700000000e+00	3.083965904e-01	-1.043262744e-02	1.076707181e-13
2.710000000e+00	3.079819102e-01	-1.046186926e-02	8.963767459e-14
2.720000000e+00	3.075688933e-01	-1.049114185e-02	8.705798557e-14
2.730000000e+00	3.071575286e-01	-1.052044514e-02	1.171766935e-13
2.740000000e+00	3.067478053e-01	-1.054977907e-02	1.122862883e-13
2.750000000e+00	3.063397124e-01	-1.057914356e-02	7.118222974e-14
2.760000000e+00	3.059332392e-01	-1.060853856e-02	1.019482808e-13
2.770000000e+00	3.055283750e-01	-1.063796399e-02	1.856492421e-13
2.780000000e+00	3.051251093e-01	-1.066741979e-02	9.947821334e-14
2.790000000e+00	3.047234317e-01	-1.069690590e-02	1.294583364e-13
2.800000000e+00	3.043233317e-01	-1.072642226e-02	8.581324228e-14
2.810000000e+00	3.039247991e-01	-1.075596879e-02	2.480971667e-13
2.820000000e+00	3.035278237e-01	-1.078554544e-02	7.521820907e-14
2.830000000e+00	3.031323955e-01	-1.081515214e-02	8.107549493e-14
2.840000000e+00	3.027385044e-01	-1.084478884e-02	1.549760097e-13
2.850000000e+00	3.023461405e-01	-1.087445547e-02	9.518634543e-14
2.860000000e+00	3.019552940e-01	-1.090415197e-02	1.135568760e-13
2.870000000e+00	3.015659552e-01	-1.093387829e-02	8.670955545e-14
2.880000000e+00	3.011781144e-01	-1.096363436e-02	2.165790330e-13
2.890000000e+00	3.007917622e-01	-1.099342012e-02	1.137058944e-13
2.900000000e+00	3.004068889e-01	-1.102323552e-02	1.951743106e-13
2.910000000e+00	3.000234853e-01	-1.105308050e-02	1.759777588e-13
2.920000000e+00	2.996415420e-01	-1.108295501e-02	1.008688942e-13
2.930000000e+00	2.992610498e-01	-1.111285898e-02	1.234545165e-13
2.940000000e+00	2.988819996e-01	-1.114279235e-02	1.330654777e-13
2.950000000e+00	2.985043823e-01	-1.117275509e-02	5.913060753e-14
2.960000000e+00	2.981281889e-01	-1.120274712e-02	1.040160814e-13
2.970000000e+00	2.977534105e-01	-1.123276840e-02	3.240573463e-13
2.980000000e+00	2.973800383e-01	-1.126281887e-02	2.607235933e-13
2.990000000e+00	2.970080636e-01	-1.129289847e-02	1.254829574e-13
3.000000000e+00	2.966374776e-01	-1.132300716e-02	6.050053388e-14
3.010000000e+00	2.962682718e-01	-1.135314488e-02	1.035120889e-13
3.020000000e+00	2.959004377e-01	-1.138331159e-02	1.030291491e-13
3.030000000e+00	2.955339668e-01	-1.141350722e-02	7.864749401e-14
3.040000000e+00	2.951688507e-01	-1.144373172e-02	8.769034906e-14
3.050000000e+00	2.948050811e-01	-1.147398505e-02	2.399924731e-13
3.060000000e+00	2.944426498e-01	-1.150426716e-02	6.470459891e-14
3.070000000e+00	2.940815486e-01	-1.153457799e-02	2.952779231e-13
3.080000000e+00	2.937217694e-01	-1.156491750e-02	9.153982822e-14
3.090000000e+00	2.933633042e-01	-1.159528564e-02	9.974970820e-14
3.100000000e+00	2.930061451e-01	-1.162568235e-02	8.906110305e-14
3.110000000e+00	2.926502841e-01	-1.165610759e-02	7.498519478e-14
3.120000000e+00	2.922957134e-01	-1.168656131e-02	2.417956915e-13
3.130000000e+00	2.919424253e-01	-1.171704347e-02	1.159953557e-13
3.140000000e+00	2.915904121e-01	-1.174755402e-02	7.984859914e-14
3.150000000e+00	2.912396661e-01	-1.177809290e-02	1.887606724e-13
3.160000000e+00	2.908901797e-01	-1.180866008e-02	1.553124263e-13
3.170000000e+00	2.905419456e-01	-1.183925550e-02	9.131813843e-14
3.180000000e+00	2.901949561e-01	-1.186987913e-02	1.783318953e-13
3.190000000e+00	2.898492040e-01	-1.190053091e-02	1.840903131e-13
3.200000000e+00	2.895046819e-01	-1.193121081e-02	1.661947711e-13
3.210000000e+00	2.891613826e-01	-1.196191877e-02	2.237303954e-13
3.220000000e+00	2.888192988e-01	-1.199265475e-02	1.975983738e-13
3.230000000e+00	2.884784235e-01	-1.202341872e-02	4.168096182e-13
3.240000000e+00	2.881387495e-01	-1.205421061e-02	1.547251858e-13
3.250000000e+00	2.878002699e-01	-1.208503040e-02	1.093767790e-13
3.260000000e+00	2.874629776e-01	-1.211587804e-02	1.061810395e-13
3.270000000e+00	2.871268657e-01	-1.214675349e-02	1.317375906e-13
3.280000000e+00	2.867919274e-01	-1.217765669e-02	7.117452368e-14
3.290000000e+00	2.864581559e-01	-1.220858762e-02	7.354504810e-14
3.300000000e+00	2.861255445e-01	-1.223954623e-02	4.937086550e-14
3.310000000e+00	2.857940864e-01	-1.227053248e-02	2.765286104e-13
3.320000000e+00	2.854637751e-01	-1.230154633e-02	2.476624895e-13
3.330000000e+00	2.851346039e-01	-1.233258773e-02	2.598924340e-13
3.340000000e+00	2.848065663e-01	-1.236365665e-02	9.437464273e-14
3.350000000e+00	2.844796559e-01	-1.239475305e-02	1.764737215e-13
3.360000000e+00	2.841538661e-01	-1.242587688e-02	1.831896335e-13
3.370000000e+00	2.838291907e-01	-1.245702811e-02	1.429637944e-13
3.380000000e+00	2.835056233e-01	-1.248820669e-02	5.715869788e-14
3.390000000e+00	2.831831577e-01	-1.251941260e-02	1.272434771e-13
3.400000000e+00	2.828617875e-01	-1.255064578e-02	1.069422328e-13
3.410000000e+00	2.825415067e-01	-1.258190621e-02	1.505735066e-13
3.420000000e+00	2.822223091e-01	-1.261319383e-02	9.591980383e-14
3.430000000e+00	2.819041886e-01	-1.264450863e-02	2.590884983e-13
3.440000000e+00	2.815871393e-01	-1.267585055e-02	1.631816007e-13
3.450000000e+00	2.812711550e-01	-1.270721956e-02	7.909659253e-14
3.460000000e+00	2.809562299e-01	-1.273861562e-02	1.816587666e-13
3.470000000e+00	2.806423581e-01	-1.277003870e-02	8.744453454e-14
3.480000000e+00	2.803295338e-01	-1.280148875e-02	1.851061185e-13
3.490000000e+00	2.800177511e-01	-1.283296575e-02	1.250160547e-13
3.500000000e+00	2.797070042e-01	-1.286446966e-02	1.371768607e-13
3.510000000e+00	2.793972876e-01	-1.289600043e-02	6.940852616e-14
3.520000000e+00	2.790885954e-01	-1.292755804e-02	1.314681302e-13
3.530000000e+00	2.787809221e-01	-1.295914245e-02	1.200082822e-13
3.540000000e+00	2.784742621e-01	-1.299075363e-02	1.303463801e-13
3.550000000e+00	2.781686099e-01	-1.302239153e-02	2.978360601e-13
3.560000000e+00	2.778639599e-01	-1.305405612e-02	5.485807896e-14
3.570000000e+00	2.775603068e-01	-1.308574738e-02	1.512660130e-13
3.580000000e+00	2.772576450e-01	-1.311746526e-02	1.065935672e-13
3.590000000e+00	2.769559692e-01	-1.314920973e-02	2.563696821e-13
3.600000000e+00	2.766552742e-01	-1.318098075e-02	8.682604198e-14
3.610000000e+00	2.763555545e-01	-1.321277830e-02	1.278002006e-13
3.620000000e+00	2.760568050e-01	-1.324460234e-02	1.467453662e-13
3.630000000e+00	2.757590204e-01	-1.327645284e-02	1.338684531e-13
3.640000000e+00	2.754621956e-01	-1.330832976e-02	2.109048064e-13
3.650000000e+00	2.751663254e-01	-1.334023307e-02	1.775363693e-13
3.660000000e+00	2.748714048e-01	-1.337216274e-02	1.385950705e-13
3.670000000e+00	2.745774286e-01	-1.340411873e-02	1.004493723e-13
3.680000000e+00	2.742843918e-01	-1.343610102e-02	1.020387524e-13
3.690000000e+00	2.739922896e-01	-1.346810956e-02	4.216982491e-13
3.700000000e+00	2.737011168e-01	-1.350014434e-02	1.573891020e-13
3.710000000e+00	2.734108687e-01	-1.353220531e-02	1.746214682e-13
3.720000000e+00	2.731215403e-01	-1.356429245e-02	1.009907739e-13
3.730000000e+00	2.728331268e-01	-1.359640573e-02	2.667702139e-13
3.740000000e+00	2.725456234e-01	-1.362854510e-02	2.275343246e-13
3.750000000e+00	2.722590253e-01	-1.366071055e-02	7.956560690e-14
3.760000000e+00	2.719733278e-01	-1.369290204e-02	1.776712075e-13
3.770000000e+00	2.716885262e-01	-1.372511954e-02	7.561444084e-14
3.780000000e+00	2.714046159e-01	-1.375736302e-02	1.276136534e-13
3.790000000e+00	2.711215921e-01	-1.378963245e-02	2.390215288e-13
3.800000000e+00	2.708394504e-01	-1.382192780e-02	7.938218846e-14
3.810000000e+00	2.705581861e-01	-1.385424905e-02	3.880614020e-13
3.820000000e+00	2.702777947e-01	-1.388659615e-02	1.877293656e-13
3.830000000e+00	2.699982717e-01	-1.391896908e-02	8.379058453e-14
3.840000000e+00	2.697196127e-01	-1.395136781e-02	2.097899780e-13
3.850000000e+00	2.694418132e-01	-1.398379232e-02	2.441287532e-13
3.860000000e+00	2.691648688e-01	-1.401624257e-02	9.648246903e-14
3.870000000e+00	2.688887751e-01	-1.404871853e-02	3.591452610e-13
3.880000000e+00	2.686135279e-01	-1.408122018e-02	2.560608766e-13
3.890000000e+00	2.683391227e-01	-1.411374749e-02	1.402861687e-13
3.900000000e+00	2.680655554e-01	-1.414630042e-02	1.195071546e-13
3.910000000e+00	2.677928216e-01	-1.417887896e-02	1.350242201e-13
3.920000000e+00	2.675209172e-01	-1.421148306e-02	2.510449943e-13
3.930000000e+00	2.672498380e-01	-1.424411271e-02	6.114521055e-13
3.940000000e+00	2.669795798e-01	-1.427676788e-02	1.325457626e-13
3.950000000e+00	2.667101384e-01	-1.430944853e-02	3.503929340e-13
3.960000000e+00	2.664415098e-01	-1.434215465e-02	2.070931791e-13
3.970000000e+00	2.661736900e-01	-1.437488619e-02	8.531202521e-14
3.980000000e+00	2.659066748e-01	-1.440764315e-02	9.555563871e-14
3.990000000e+00	2.656404602e-01	-1.444042548e-02	5.406968504e-14
4.000000000e+00	2.653750424e-01	-1.447323316e-02	8.315859493e-14
4.010000000e+00	2.651104172e-01	-1.450606617e-02	3.012592223e-13
4.020000000e+00	2.648465808e-01	-1.453892448e-02	1.157225247e-13
4.030000000e+00	2.645835292e-01	-1.457180806e-02	8.118941879e-14
4.040000000e+00	2.643212587e-01	-1.460471689e-02	1.058722088e-13
