# Re(epsi1)     Omega/c [1/micrones]    Im(epsi1)     Eq(det).Opt det SIN kz, mu = 0.6 eV, R = 0.5 micrones, solve_det_sinkz_vs_re_epsi1.py
1.000000000e+00	5.919344107e-01	-6.425191233e-03	4.809509497e-14
1.010000000e+00	5.904761690e-01	-6.448220441e-03	7.074324028e-14
1.020000000e+00	5.890286093e-01	-6.471257470e-03	6.379843656e-14
1.030000000e+00	5.875916025e-01	-6.494302404e-03	4.323738768e-14
1.040000000e+00	5.861650214e-01	-6.517355325e-03	4.451928573e-14
1.050000000e+00	5.847487410e-01	-6.540416315e-03	4.862979624e-14
1.060000000e+00	5.833426385e-01	-6.563485453e-03	9.817153373e-14
1.070000000e+00	5.819465930e-01	-6.586562820e-03	7.921797730e-14
1.080000000e+00	5.805604856e-01	-6.609648493e-03	4.248028931e-14
1.090000000e+00	5.791841994e-01	-6.632742548e-03	8.725507200e-14
1.100000000e+00	5.778176194e-01	-6.655845063e-03	4.967151695e-14
1.110000000e+00	5.764606325e-01	-6.678956110e-03	3.954411044e-14
1.120000000e+00	5.751131273e-01	-6.702075765e-03	3.697739686e-14
1.130000000e+00	5.737749944e-01	-6.725204099e-03	7.739042036e-14
1.140000000e+00	5.724461259e-01	-6.748341184e-03	5.257172726e-14
1.150000000e+00	5.711264159e-01	-6.771487092e-03	3.558101940e-14
1.160000000e+00	5.698157600e-01	-6.794641890e-03	3.081376532e-14
1.170000000e+00	5.685140554e-01	-6.817805648e-03	1.471471757e-13
1.180000000e+00	5.672212012e-01	-6.840978434e-03	7.190121506e-14
1.190000000e+00	5.659370978e-01	-6.864160314e-03	8.100359090e-14
1.200000000e+00	5.646616473e-01	-6.887351354e-03	9.157905408e-14
1.210000000e+00	5.633947532e-01	-6.910551619e-03	7.055326604e-14
1.220000000e+00	5.621363206e-01	-6.933761173e-03	4.053367629e-14
1.230000000e+00	5.608862561e-01	-6.956980078e-03	6.215015739e-14
1.240000000e+00	5.596444676e-01	-6.980208397e-03	5.379672131e-14
1.250000000e+00	5.584108645e-01	-7.003446192e-03	6.857929408e-14
1.260000000e+00	5.571853575e-01	-7.026693522e-03	1.068996962e-13
1.270000000e+00	5.559678588e-01	-7.049950447e-03	8.185547507e-14
1.280000000e+00	5.547582818e-01	-7.073217026e-03	5.876920678e-14
1.290000000e+00	5.535565412e-01	-7.096493318e-03	8.834923468e-14
1.300000000e+00	5.523625530e-01	-7.119779378e-03	7.637511506e-14
1.310000000e+00	5.511762345e-01	-7.143075264e-03	6.785097978e-14
1.320000000e+00	5.499975042e-01	-7.166381031e-03	6.752424587e-14
1.330000000e+00	5.488262817e-01	-7.189696734e-03	6.052250918e-14
1.340000000e+00	5.476624880e-01	-7.213022428e-03	1.272996245e-13
1.350000000e+00	5.465060450e-01	-7.236358164e-03	5.907971170e-14
1.360000000e+00	5.453568760e-01	-7.259703997e-03	1.021016917e-13
1.370000000e+00	5.442149052e-01	-7.283059977e-03	7.837138566e-14
1.380000000e+00	5.430800580e-01	-7.306426157e-03	7.359259371e-14
1.390000000e+00	5.419522608e-01	-7.329802586e-03	4.822647875e-14
1.400000000e+00	5.408314411e-01	-7.353189315e-03	8.343572096e-14
1.410000000e+00	5.397175276e-01	-7.376586392e-03	6.951750727e-14
1.420000000e+00	5.386104498e-01	-7.399993866e-03	1.399547427e-13
1.430000000e+00	5.375101382e-01	-7.423411785e-03	8.726973678e-14
1.440000000e+00	5.364165243e-01	-7.446840195e-03	1.148846996e-13
1.450000000e+00	5.353295408e-01	-7.470279144e-03	1.169534460e-13
1.460000000e+00	5.342491210e-01	-7.493728677e-03	4.857964966e-14
1.470000000e+00	5.331751993e-01	-7.517188840e-03	5.432985016e-14
1.480000000e+00	5.321077110e-01	-7.540659677e-03	1.125480377e-13
1.490000000e+00	5.310465924e-01	-7.564141231e-03	1.117189200e-13
1.500000000e+00	5.299917804e-01	-7.587633548e-03	1.495228853e-13
1.510000000e+00	5.289432130e-01	-7.611136668e-03	8.915340183e-14
1.520000000e+00	5.279008290e-01	-7.634650635e-03	1.652276921e-13
1.530000000e+00	5.268645680e-01	-7.658175491e-03	6.379828411e-14
1.540000000e+00	5.258343705e-01	-7.681711276e-03	1.005335148e-13
1.550000000e+00	5.248101777e-01	-7.705258031e-03	1.698564671e-13
1.560000000e+00	5.237919316e-01	-7.728815796e-03	6.788513502e-14
1.570000000e+00	5.227795750e-01	-7.752384611e-03	1.774661639e-13
1.580000000e+00	5.217730516e-01	-7.775964514e-03	8.309216484e-14
1.590000000e+00	5.207723057e-01	-7.799555544e-03	1.039433263e-13
1.600000000e+00	5.197772823e-01	-7.823157739e-03	6.777968963e-14
1.610000000e+00	5.187879272e-01	-7.846771137e-03	1.267568794e-13
1.620000000e+00	5.178041870e-01	-7.870395773e-03	1.162395322e-13
1.630000000e+00	5.168260088e-01	-7.894031685e-03	7.081552145e-14
1.640000000e+00	5.158533406e-01	-7.917678909e-03	1.441234990e-13
1.650000000e+00	5.148861309e-01	-7.941337479e-03	1.725419548e-13
1.660000000e+00	5.139243291e-01	-7.965007432e-03	1.348459017e-13
1.670000000e+00	5.129678850e-01	-7.988688801e-03	5.053948889e-14
1.680000000e+00	5.120167491e-01	-8.012381620e-03	6.227515600e-14
1.690000000e+00	5.110708727e-01	-8.036085924e-03	1.150441925e-13
1.700000000e+00	5.101302075e-01	-8.059801744e-03	7.668354715e-14
1.710000000e+00	5.091947061e-01	-8.083529115e-03	6.399436801e-14
1.720000000e+00	5.082643213e-01	-8.107268067e-03	6.403591013e-14
1.730000000e+00	5.073390070e-01	-8.131018634e-03	1.518909693e-13
1.740000000e+00	5.064187172e-01	-8.154780845e-03	1.648366809e-13
1.750000000e+00	5.055034068e-01	-8.178554734e-03	1.979073537e-13
1.760000000e+00	5.045930310e-01	-8.202340328e-03	2.172011182e-13
1.770000000e+00	5.036875459e-01	-8.226137660e-03	6.193900325e-14
1.780000000e+00	5.027869079e-01	-8.249946759e-03	1.287747801e-13
1.790000000e+00	5.018910740e-01	-8.273767654e-03	3.200379968e-13
1.800000000e+00	5.010000017e-01	-8.297600374e-03	9.694198919e-14
1.810000000e+00	5.001136490e-01	-8.321444947e-03	1.249161535e-13
1.820000000e+00	4.992319746e-01	-8.345301402e-03	5.071401680e-14
1.830000000e+00	4.983549375e-01	-8.369169767e-03	1.310193002e-13
1.840000000e+00	4.974824972e-01	-8.393050069e-03	9.822346848e-14
1.850000000e+00	4.966146139e-01	-8.416942335e-03	1.521083338e-13
1.860000000e+00	4.957512481e-01	-8.440846591e-03	1.475128003e-13
1.870000000e+00	4.948923608e-01	-8.464762865e-03	1.508477335e-13
1.880000000e+00	4.940379135e-01	-8.488691182e-03	6.198545267e-14
1.890000000e+00	4.931878682e-01	-8.512631568e-03	1.226174987e-13
1.900000000e+00	4.923421872e-01	-8.536584048e-03	1.104097680e-13
1.910000000e+00	4.915008334e-01	-8.560548647e-03	4.179264404e-14
1.920000000e+00	4.906637702e-01	-8.584525390e-03	9.375833443e-14
1.930000000e+00	4.898309611e-01	-8.608514301e-03	1.126249473e-13
1.940000000e+00	4.890023704e-01	-8.632515403e-03	1.617926094e-13
1.950000000e+00	4.881779627e-01	-8.656528722e-03	1.056337390e-13
1.960000000e+00	4.873577030e-01	-8.680554279e-03	1.159300157e-13
1.970000000e+00	4.865415566e-01	-8.704592098e-03	2.500873905e-13
1.980000000e+00	4.857294893e-01	-8.728642202e-03	1.761648833e-13
1.990000000e+00	4.849214673e-01	-8.752704613e-03	1.232210303e-13
2.000000000e+00	4.841174573e-01	-8.776779353e-03	4.191941042e-14
2.010000000e+00	4.833174262e-01	-8.800866444e-03	4.384853384e-13
2.020000000e+00	4.825213413e-01	-8.824965908e-03	1.004429760e-13
2.030000000e+00	4.817291703e-01	-8.849077765e-03	3.063898203e-13
2.040000000e+00	4.809408814e-01	-8.873202037e-03	1.058619631e-13
2.050000000e+00	4.801564430e-01	-8.897338745e-03	8.643847397e-14
2.060000000e+00	4.793758239e-01	-8.921487907e-03	1.543477153e-13
2.070000000e+00	4.785989933e-01	-8.945649546e-03	1.018919996e-13
2.080000000e+00	4.778259207e-01	-8.969823680e-03	9.044445089e-14
2.090000000e+00	4.770565758e-01	-8.994010329e-03	4.196423663e-13
2.100000000e+00	4.762909290e-01	-9.018209513e-03	2.771385219e-13
2.110000000e+00	4.755289508e-01	-9.042421250e-03	1.184213158e-13
2.120000000e+00	4.747706119e-01	-9.066645559e-03	1.325398254e-13
2.130000000e+00	4.740158835e-01	-9.090882458e-03	1.200118224e-13
2.140000000e+00	4.732647372e-01	-9.115131967e-03	7.930125455e-14
2.150000000e+00	4.725171447e-01	-9.139394103e-03	1.125196966e-13
2.160000000e+00	4.717730782e-01	-9.163668883e-03	1.694507715e-13
2.170000000e+00	4.710325100e-01	-9.187956325e-03	1.363968969e-13
2.180000000e+00	4.702954129e-01	-9.212256447e-03	3.790334739e-13
2.190000000e+00	4.695617598e-01	-9.236569265e-03	2.500101357e-13
2.200000000e+00	4.688315242e-01	-9.260894797e-03	2.576758759e-13
2.210000000e+00	4.681046796e-01	-9.285233058e-03	1.626351329e-13
2.220000000e+00	4.673811998e-01	-9.309584065e-03	1.444573910e-13
2.230000000e+00	4.666610590e-01	-9.333947835e-03	8.014087823e-14
2.240000000e+00	4.659442317e-01	-9.358324383e-03	8.712358468e-14
2.250000000e+00	4.652306925e-01	-9.382713724e-03	1.237903278e-13
2.260000000e+00	4.645204165e-01	-9.407115875e-03	3.136576538e-14
2.270000000e+00	4.638133789e-01	-9.431530851e-03	1.512721955e-13
2.280000000e+00	4.631095552e-01	-9.455958665e-03	1.981684346e-13
2.290000000e+00	4.624089211e-01	-9.480399335e-03	3.853748361e-13
2.300000000e+00	4.617114526e-01	-9.504852873e-03	8.153127464e-14
2.310000000e+00	4.610171261e-01	-9.529319294e-03	2.912114994e-13
2.320000000e+00	4.603259180e-01	-9.553798613e-03	8.961750582e-14
2.330000000e+00	4.596378052e-01	-9.578290843e-03	1.024646236e-13
2.340000000e+00	4.589527645e-01	-9.602795998e-03	4.953977144e-13
2.350000000e+00	4.582707733e-01	-9.627314093e-03	1.413320887e-13
2.360000000e+00	4.575918090e-01	-9.651845139e-03	2.255022576e-13
2.370000000e+00	4.569158494e-01	-9.676389151e-03	2.245405688e-13
2.380000000e+00	4.562428723e-01	-9.700946142e-03	1.248996585e-13
2.390000000e+00	4.555728559e-01	-9.725516124e-03	1.354996614e-13
2.400000000e+00	4.549057787e-01	-9.750099109e-03	2.227959608e-13
2.410000000e+00	4.542416191e-01	-9.774695112e-03	1.551536677e-13
2.420000000e+00	4.535803561e-01	-9.799304143e-03	7.528394824e-14
2.430000000e+00	4.529219687e-01	-9.823926214e-03	2.157726374e-13
2.440000000e+00	4.522664361e-01	-9.848561339e-03	1.352858689e-13
2.450000000e+00	4.516137378e-01	-9.873209528e-03	7.782704976e-14
2.460000000e+00	4.509638534e-01	-9.897870793e-03	8.040375876e-14
2.470000000e+00	4.503167628e-01	-9.922545146e-03	1.208551197e-13
2.480000000e+00	4.496724461e-01	-9.947232597e-03	1.814300858e-13
2.490000000e+00	4.490308835e-01	-9.971933158e-03	5.952227034e-14
2.500000000e+00	4.483920555e-01	-9.996646840e-03	2.129704109e-13
2.510000000e+00	4.477559428e-01	-1.002137365e-02	1.817796963e-13
2.520000000e+00	4.471225262e-01	-1.004611361e-02	6.452509341e-14
2.530000000e+00	4.464917866e-01	-1.007086672e-02	6.536451611e-14
2.540000000e+00	4.458637055e-01	-1.009563299e-02	2.928865608e-13
2.550000000e+00	4.452382641e-01	-1.012041243e-02	1.173312456e-13
2.560000000e+00	4.446154440e-01	-1.014520506e-02	1.448902831e-13
2.570000000e+00	4.439952270e-01	-1.017001088e-02	1.320941470e-13
2.580000000e+00	4.433775951e-01	-1.019482990e-02	7.218635614e-14
2.590000000e+00	4.427625303e-01	-1.021966214e-02	6.946521385e-14
2.600000000e+00	4.421500150e-01	-1.024450759e-02	1.469633800e-13
2.610000000e+00	4.415400315e-01	-1.026936628e-02	1.255239701e-13
2.620000000e+00	4.409325626e-01	-1.029423820e-02	1.950640133e-13
2.630000000e+00	4.403275910e-01	-1.031912338e-02	1.363495018e-13
2.640000000e+00	4.397250997e-01	-1.034402181e-02	2.091874964e-13
2.650000000e+00	4.391250718e-01	-1.036893351e-02	1.420849963e-13
2.660000000e+00	4.385274905e-01	-1.039385848e-02	1.031764759e-13
2.670000000e+00	4.379323394e-01	-1.041879674e-02	2.254144907e-13
2.680000000e+00	4.373396019e-01	-1.044374829e-02	1.571468140e-13
2.690000000e+00	4.367492619e-01	-1.046871313e-02	1.258019865e-13
2.700000000e+00	4.361613033e-01	-1.049369129e-02	1.427631552e-13
2.710000000e+00	4.355757101e-01	-1.051868276e-02	3.497501438e-13
2.720000000e+00	4.349924664e-01	-1.054368755e-02	1.062886496e-13
2.730000000e+00	4.344115567e-01	-1.056870567e-02	8.075718324e-14
2.740000000e+00	4.338329655e-01	-1.059373713e-02	5.680448267e-14
2.750000000e+00	4.332566774e-01	-1.061878194e-02	1.564028040e-13
2.760000000e+00	4.326826771e-01	-1.064384010e-02	8.574072436e-14
2.770000000e+00	4.321109496e-01	-1.066891162e-02	9.913042064e-14
2.780000000e+00	4.315414799e-01	-1.069399651e-02	8.568305783e-14
2.790000000e+00	4.309742533e-01	-1.071909477e-02	2.478272453e-13
2.800000000e+00	4.304092550e-01	-1.074420641e-02	7.683515394e-14
2.810000000e+00	4.298464706e-01	-1.076933144e-02	3.813175207e-13
2.820000000e+00	4.292858856e-01	-1.079446986e-02	3.286130046e-13
2.830000000e+00	4.287274857e-01	-1.081962169e-02	1.744218762e-13
2.840000000e+00	4.281712568e-01	-1.084478692e-02	1.265876395e-13
2.850000000e+00	4.276171850e-01	-1.086996556e-02	9.162051188e-14
2.860000000e+00	4.270652562e-01	-1.089515762e-02	1.245478255e-13
2.870000000e+00	4.265154568e-01	-1.092036311e-02	2.194830052e-13
2.880000000e+00	4.259677730e-01	-1.094558203e-02	5.621237995e-14
2.890000000e+00	4.254221915e-01	-1.097081439e-02	2.793321130e-13
2.900000000e+00	4.248786987e-01	-1.099606018e-02	6.166646818e-14
2.910000000e+00	4.243372814e-01	-1.102131943e-02	1.158317555e-13
2.920000000e+00	4.237979264e-01	-1.104659213e-02	1.068179954e-13
2.930000000e+00	4.232606207e-01	-1.107187829e-02	1.100662811e-13
2.940000000e+00	4.227253514e-01	-1.109717791e-02	1.815559223e-13
2.950000000e+00	4.221921056e-01	-1.112249100e-02	2.082302826e-13
2.960000000e+00	4.216608707e-01	-1.114781756e-02	1.489858492e-13
2.970000000e+00	4.211316340e-01	-1.117315761e-02	3.149992884e-13
2.980000000e+00	4.206043830e-01	-1.119851114e-02	5.847756615e-14
2.990000000e+00	4.200791055e-01	-1.122387816e-02	4.517110434e-13
3.000000000e+00	4.195557890e-01	-1.124925867e-02	1.516590660e-13
3.010000000e+00	4.190344215e-01	-1.127465268e-02	1.007256225e-13
3.020000000e+00	4.185149909e-01	-1.130006020e-02	8.605832743e-14
3.030000000e+00	4.179974853e-01	-1.132548122e-02	2.649635113e-13
3.040000000e+00	4.174818927e-01	-1.135091575e-02	1.943837875e-13
3.050000000e+00	4.169682015e-01	-1.137636380e-02	5.009173235e-13
3.060000000e+00	4.164564000e-01	-1.140182537e-02	8.347998665e-14
3.070000000e+00	4.159464767e-01	-1.142730046e-02	9.325450455e-14
3.080000000e+00	4.154384201e-01	-1.145278908e-02	2.616318705e-13
3.090000000e+00	4.149322189e-01	-1.147829124e-02	2.669752132e-13
3.100000000e+00	4.144278617e-01	-1.150380692e-02	3.635498995e-13
3.110000000e+00	4.139253375e-01	-1.152933615e-02	2.691950879e-13
3.120000000e+00	4.134246352e-01	-1.155487893e-02	1.583315053e-13
3.130000000e+00	4.129257438e-01	-1.158043525e-02	7.968532467e-14
3.140000000e+00	4.124286525e-01	-1.160600512e-02	2.344858313e-14
3.150000000e+00	4.119333503e-01	-1.163158854e-02	1.319730193e-13
3.160000000e+00	4.114398268e-01	-1.165718552e-02	3.814145308e-14
3.170000000e+00	4.109480712e-01	-1.168279606e-02	1.143648277e-13
3.180000000e+00	4.104580729e-01	-1.170842017e-02	5.076827866e-14
3.190000000e+00	4.099698217e-01	-1.173405784e-02	6.464206227e-14
3.200000000e+00	4.094833071e-01	-1.175970908e-02	6.117328866e-14
3.210000000e+00	4.089985189e-01	-1.178537389e-02	1.059141710e-13
3.220000000e+00	4.085154469e-01	-1.181105228e-02	1.570840037e-13
3.230000000e+00	4.080340810e-01	-1.183674425e-02	6.668181008e-14
3.240000000e+00	4.075544112e-01	-1.186244980e-02	8.465179373e-14
3.250000000e+00	4.070764275e-01	-1.188816893e-02	1.912617845e-13
3.260000000e+00	4.066001202e-01	-1.191390165e-02	5.837746495e-14
3.270000000e+00	4.061254795e-01	-1.193964796e-02	2.640688278e-13
3.280000000e+00	4.056524956e-01	-1.196540786e-02	1.050043279e-13
3.290000000e+00	4.051811589e-01	-1.199118135e-02	2.794716062e-13
3.300000000e+00	4.047114600e-01	-1.201696844e-02	9.675037895e-14
3.310000000e+00	4.042433894e-01	-1.204276913e-02	7.066006394e-13
3.320000000e+00	4.037769376e-01	-1.206858342e-02	2.141079135e-13
3.330000000e+00	4.033120955e-01	-1.209441131e-02	8.327124163e-14
3.340000000e+00	4.028488537e-01	-1.212025281e-02	2.928568846e-13
3.350000000e+00	4.023872031e-01	-1.214610791e-02	6.987352464e-14
3.360000000e+00	4.019271347e-01	-1.217197662e-02	5.684515356e-14
3.370000000e+00	4.014686394e-01	-1.219785894e-02	1.058042542e-13
3.380000000e+00	4.010117082e-01	-1.222375488e-02	7.616235144e-14
3.390000000e+00	4.005563324e-01	-1.224966442e-02	1.805215810e-13
3.400000000e+00	4.001025031e-01	-1.227558759e-02	9.951321064e-14
3.410000000e+00	3.996502116e-01	-1.230152437e-02	8.058965090e-14
3.420000000e+00	3.991994493e-01	-1.232747477e-02	4.921919569e-13
3.430000000e+00	3.987502074e-01	-1.235343879e-02	1.564663112e-13
3.440000000e+00	3.983024777e-01	-1.237941643e-02	8.248232333e-14
3.450000000e+00	3.978562514e-01	-1.240540770e-02	6.524645738e-14
3.460000000e+00	3.974115204e-01	-1.243141259e-02	1.167803170e-13
3.470000000e+00	3.969682762e-01	-1.245743111e-02	4.333512073e-14
3.480000000e+00	3.965265106e-01	-1.248346325e-02	8.390847921e-14
3.490000000e+00	3.960862154e-01	-1.250950902e-02	1.404976162e-13
3.500000000e+00	3.956473825e-01	-1.253556842e-02	8.747542958e-14
3.510000000e+00	3.952100038e-01	-1.256164145e-02	5.483119407e-14
3.520000000e+00	3.947740712e-01	-1.258772812e-02	1.137234779e-13
3.530000000e+00	3.943395769e-01	-1.261382841e-02	1.221336160e-13
3.540000000e+00	3.939065130e-01	-1.263994234e-02	1.353718840e-13
3.550000000e+00	3.934748716e-01	-1.266606990e-02	2.074710693e-13
3.560000000e+00	3.930446450e-01	-1.269221110e-02	1.003140415e-13
3.570000000e+00	3.926158254e-01	-1.271836593e-02	1.363238598e-13
3.580000000e+00	3.921884052e-01	-1.274453440e-02	1.388034553e-13
3.590000000e+00	3.917623769e-01	-1.277071651e-02	2.071284634e-13
3.600000000e+00	3.913377329e-01	-1.279691225e-02	3.725869434e-14
3.610000000e+00	3.909144657e-01	-1.282312163e-02	2.341312956e-13
3.620000000e+00	3.904925679e-01	-1.284934465e-02	9.261050320e-14
3.630000000e+00	3.900720321e-01	-1.287558131e-02	1.702067128e-13
3.640000000e+00	3.896528511e-01	-1.290183161e-02	4.760669470e-14
3.650000000e+00	3.892350175e-01	-1.292809555e-02	1.194447773e-13
3.660000000e+00	3.888185242e-01	-1.295437313e-02	1.045908462e-13
3.670000000e+00	3.884033641e-01	-1.298066435e-02	1.810807448e-13
3.680000000e+00	3.879895300e-01	-1.300696921e-02	1.658673199e-13
3.690000000e+00	3.875770149e-01	-1.303328771e-02	2.652332797e-13
3.700000000e+00	3.871658119e-01	-1.305961985e-02	4.473248249e-14
3.710000000e+00	3.867559139e-01	-1.308596563e-02	6.664937259e-13
3.720000000e+00	3.863473141e-01	-1.311232505e-02	1.281905255e-13
3.730000000e+00	3.859400057e-01	-1.313869811e-02	7.299081379e-13
3.740000000e+00	3.855339818e-01	-1.316508482e-02	4.602993229e-13
3.750000000e+00	3.851292359e-01	-1.319148516e-02	2.553030205e-13
3.760000000e+00	3.847257610e-01	-1.321789915e-02	3.342668214e-13
3.770000000e+00	3.843235508e-01	-1.324432677e-02	1.471008220e-13
3.780000000e+00	3.839225984e-01	-1.327076804e-02	2.949514697e-13
3.790000000e+00	3.835228975e-01	-1.329722294e-02	1.423056485e-13
3.800000000e+00	3.831244415e-01	-1.332369149e-02	1.794565541e-13
3.810000000e+00	3.827272239e-01	-1.335017367e-02	1.339008135e-13
3.820000000e+00	3.823312384e-01	-1.337666949e-02	6.420891142e-14
3.830000000e+00	3.819364787e-01	-1.340317895e-02	1.950295010e-13
3.840000000e+00	3.815429383e-01	-1.342970205e-02	2.808456117e-13
3.850000000e+00	3.811506111e-01	-1.345623879e-02	5.549516172e-14
3.860000000e+00	3.807594909e-01	-1.348278916e-02	1.934314401e-13
3.870000000e+00	3.803695714e-01	-1.350935317e-02	6.026526199e-13
3.880000000e+00	3.799808466e-01	-1.353593082e-02	1.066443044e-13
3.890000000e+00	3.795933103e-01	-1.356252210e-02	1.481129060e-13
3.900000000e+00	3.792069565e-01	-1.358912701e-02	3.158033248e-14
3.910000000e+00	3.788217792e-01	-1.361574556e-02	2.075222748e-13
3.920000000e+00	3.784377725e-01	-1.364237774e-02	2.976412476e-13
3.930000000e+00	3.780549305e-01	-1.366902355e-02	1.893800979e-13
3.940000000e+00	3.776732472e-01	-1.369568300e-02	3.461350641e-13
3.950000000e+00	3.772927168e-01	-1.372235607e-02	2.054866566e-13
3.960000000e+00	3.769133337e-01	-1.374904278e-02	1.437649225e-13
3.970000000e+00	3.765350919e-01	-1.377574311e-02	1.223465773e-13
3.980000000e+00	3.761579859e-01	-1.380245707e-02	1.136870546e-13
3.990000000e+00	3.757820098e-01	-1.382918466e-02	1.610673056e-13
4.000000000e+00	3.754071582e-01	-1.385592587e-02	7.380436674e-14
4.010000000e+00	3.750334254e-01	-1.388268070e-02	9.072037161e-14
4.020000000e+00	3.746608058e-01	-1.390944916e-02	4.195703056e-14
4.030000000e+00	3.742892941e-01	-1.393623125e-02	4.596323322e-14
4.040000000e+00	3.739188845e-01	-1.396302695e-02	2.778253650e-13
