# kz [1/micrones]     Omega [THz]    log10(|det|)     , $\mu_c$ = 0.9000 eV, modo = 3, R = 0.50$\mu$m, $\eta$ = 0.20, plot_det_conkz.py
3.00000000000e-01	2.24992107694e+01	-9.68327566459e+00
3.10000000000e-01	2.32492099661e+01	-9.79151258273e+00
3.20000000000e-01	2.39992094136e+01	-9.89819195317e+00
3.30000000000e-01	2.47492090599e+01	-1.00031440237e+01
3.40000000000e-01	2.54992088638e+01	-1.01062760908e+01
3.50000000000e-01	2.62492087941e+01	-1.02075479192e+01
3.60000000000e-01	2.69992088246e+01	-1.03069552406e+01
3.70000000000e-01	2.77492089364e+01	-1.04045184981e+01
3.80000000000e-01	2.84992091122e+01	-1.05002750541e+01
3.90000000000e-01	2.92492093392e+01	-1.05942737549e+01
4.00000000000e-01	2.99992096068e+01	-1.06865710995e+01
4.10000000000e-01	3.07492099063e+01	-1.07772285380e+01
4.20000000000e-01	3.14992102310e+01	-1.08663105557e+01
4.40000000000e-01	3.29992109339e+01	-1.10400137990e+01
4.50000000000e-01	3.37492113030e+01	-1.11247690086e+01
4.60000000000e-01	3.44992116795e+01	-1.12082157081e+01
4.70000000000e-01	3.52492120613e+01	-1.12904200868e+01
4.80000000000e-01	3.59992124458e+01	-1.13714476398e+01
4.90000000000e-01	3.67492128311e+01	-1.14513631326e+01
5.00000000000e-01	3.74992132158e+01	-1.15302306350e+01
5.10000000000e-01	3.82492135993e+01	-1.16081136152e+01
5.20000000000e-01	3.89992139798e+01	-1.16850750861e+01
5.30000000000e-01	3.97492143571e+01	-1.17611777904e+01
5.40000000000e-01	4.04992147305e+01	-1.18364844336e+01
5.50000000000e-01	4.12492150986e+01	-1.19110579536e+01
5.60000000000e-01	4.19992154623e+01	-1.19849618310e+01
5.70000000000e-01	4.27492158203e+01	-1.20582604491e+01
5.90000000000e-01	4.42492165200e+01	-1.22033064836e+01
6.00000000000e-01	4.49992168610e+01	-1.22751912024e+01
6.10000000000e-01	4.57492171962e+01	-1.23467464466e+01
6.20000000000e-01	4.64992175251e+01	-1.24180487238e+01
6.30000000000e-01	4.72492178478e+01	-1.24891791483e+01
6.40000000000e-01	4.79992181655e+01	-1.25602244991e+01
6.50000000000e-01	4.87492184766e+01	-1.26312784978e+01
6.60000000000e-01	4.94992187817e+01	-1.27024433869e+01
6.70000000000e-01	5.02492190809e+01	-1.27738318548e+01
6.80000000000e-01	5.09992193747e+01	-1.28455694477e+01
6.90000000000e-01	5.17492196620e+01	-1.29177976584e+01
7.10000000000e-01	5.32492202206e+01	-1.30643962151e+01
7.20000000000e-01	5.39992204921e+01	-1.31391708871e+01
7.30000000000e-01	5.47492207578e+01	-1.32152606736e+01
7.70000000000e-01	5.77492217705e+01	-1.35402406669e+01
7.80000000000e-01	5.84992220108e+01	-1.36294651354e+01
7.90000000000e-01	5.92492222470e+01	-1.37236818192e+01
8.00000000000e-01	5.99992224794e+01	-1.38244147805e+01
8.10000000000e-01	6.07492227061e+01	-1.39339023681e+01
8.30000000000e-01	6.22492231472e+01	-1.41955112157e+01
8.40000000000e-01	6.29992233621e+01	-1.43647644950e+01
8.50000000000e-01	6.37492235724e+01	-1.45892817890e+01
8.70000000000e-01	6.52492239813e+01	-1.57032020245e+01
8.80000000000e-01	6.59992241800e+01	-1.49236463573e+01
9.00000000000e-01	6.51901272660e+01	-4.82228848239e+00
9.10000000000e-01	6.82492247552e+01	-1.44730119356e+01
9.40000000000e-01	7.04992253006e+01	-1.43432105443e+01
9.50000000000e-01	7.12492254759e+01	-1.43212151665e+01
9.60000000000e-01	7.19992256471e+01	-1.43054690541e+01
9.70000000000e-01	7.27492258155e+01	-1.42946007319e+01
1.00000000000e+00	7.49992263057e+01	-1.42826474714e+01
1.01000000000e+00	7.57492264625e+01	-1.42836578444e+01
1.02000000000e+00	7.64992266181e+01	-1.42865203386e+01
1.03000000000e+00	7.72492267699e+01	-1.42909621265e+01
1.04000000000e+00	7.79992269193e+01	-1.42967606235e+01
1.05000000000e+00	7.87492270670e+01	-1.43037320772e+01
1.06000000000e+00	7.94992272120e+01	-1.43117231631e+01
1.07000000000e+00	8.02492273545e+01	-1.43206048078e+01
1.09000000000e+00	8.17492276323e+01	-1.43406170576e+01
1.10000000000e+00	8.24992277676e+01	-1.43515731404e+01
1.11000000000e+00	8.32492279011e+01	-1.43630656470e+01
1.12000000000e+00	8.39992280326e+01	-1.43750336512e+01
1.14000000000e+00	8.54992282888e+01	-1.44001892384e+01
1.15000000000e+00	8.62492284145e+01	-1.44132885176e+01
1.20000000000e+00	8.99992290129e+01	-1.44826398203e+01
1.21000000000e+00	9.07492291270e+01	-1.44970965562e+01
1.22000000000e+00	9.14992292400e+01	-1.45116993117e+01
1.25000000000e+00	9.37492295680e+01	-1.45562204809e+01
1.26000000000e+00	9.44992296742e+01	-1.45712515044e+01
1.28000000000e+00	9.59992298825e+01	-1.46015278724e+01
1.29000000000e+00	9.67492299838e+01	-1.46167529943e+01
1.30000000000e+00	9.74992300844e+01	-1.46320240132e+01
1.31000000000e+00	9.82492301831e+01	-1.46473328835e+01
1.32000000000e+00	9.89992302805e+01	-1.46626721993e+01
1.33000000000e+00	9.97492303770e+01	-1.46780352129e+01
1.34000000000e+00	1.00499230472e+02	-1.46934156965e+01
1.35000000000e+00	1.01249230565e+02	-1.47088079675e+01
1.36000000000e+00	1.01999230658e+02	-1.47242067942e+01
1.38000000000e+00	1.03499230839e+02	-1.47550052537e+01
1.40000000000e+00	1.04999231015e+02	-1.47857770723e+01
1.41000000000e+00	1.05749231102e+02	-1.48011438052e+01
1.44000000000e+00	1.07999231354e+02	-1.48471299847e+01
1.45000000000e+00	1.08749231436e+02	-1.48624117162e+01
1.47000000000e+00	1.10249231597e+02	-1.48928907188e+01
1.48000000000e+00	1.10999231676e+02	-1.49080839579e+01
1.49000000000e+00	1.11749231754e+02	-1.49232439435e+01
1.50000000000e+00	1.12499231831e+02	-1.49383690419e+01
1.51000000000e+00	1.13249231907e+02	-1.49534577583e+01
1.52000000000e+00	1.13999231982e+02	-1.49685087223e+01
1.54000000000e+00	1.15499232129e+02	-1.49984924585e+01
1.55000000000e+00	1.16249232202e+02	-1.50134230219e+01
1.56000000000e+00	1.16999232273e+02	-1.50283114010e+01
1.57000000000e+00	1.17749232344e+02	-1.50431567204e+01
1.58000000000e+00	1.18499232414e+02	-1.50579581765e+01
1.60000000000e+00	1.19999232551e+02	-1.50874266904e+01
1.61000000000e+00	1.20749232618e+02	-1.51020924985e+01
1.62000000000e+00	1.21499232685e+02	-1.51167119310e+01
1.63000000000e+00	1.22249232751e+02	-1.51312845295e+01
1.64000000000e+00	1.22999232816e+02	-1.51458098668e+01
1.65000000000e+00	1.23749232881e+02	-1.51602875494e+01
1.66000000000e+00	1.24499232944e+02	-1.51747172649e+01
1.67000000000e+00	1.25249233007e+02	-1.51890987206e+01
1.68000000000e+00	1.25999233069e+02	-1.52034316499e+01
1.69000000000e+00	1.26749233130e+02	-1.52177158639e+01
1.71000000000e+00	1.28249233252e+02	-1.52461374041e+01
1.74000000000e+00	1.30499233428e+02	-1.52884007671e+01
1.75000000000e+00	1.31249233486e+02	-1.53023898823e+01
1.76000000000e+00	1.31999233543e+02	-1.53163296213e+01
1.77000000000e+00	1.32749233599e+02	-1.53302199776e+01
1.78000000000e+00	1.33499233655e+02	-1.53440609759e+01
1.79000000000e+00	1.34249233710e+02	-1.53578526760e+01
1.80000000000e+00	1.34999233765e+02	-1.53715951153e+01
1.81000000000e+00	1.35749233819e+02	-1.53852883805e+01
1.83000000000e+00	1.37249233925e+02	-1.54125277636e+01
1.85000000000e+00	1.38749234029e+02	-1.54395717130e+01
1.86000000000e+00	1.39499234080e+02	-1.54530207426e+01
1.87000000000e+00	1.40249234131e+02	-1.54664213261e+01
1.88000000000e+00	1.40999234181e+02	-1.54797736377e+01
1.89000000000e+00	1.41749234231e+02	-1.54930778375e+01
1.90000000000e+00	1.42499234280e+02	-1.55063341299e+01
1.91000000000e+00	1.43249234329e+02	-1.55195426613e+01
1.93000000000e+00	1.44749234425e+02	-1.55458173256e+01
1.94000000000e+00	1.45499234472e+02	-1.55588838475e+01
1.95000000000e+00	1.46249234519e+02	-1.55719034441e+01
1.98000000000e+00	1.48499234657e+02	-1.56106829137e+01
1.99000000000e+00	1.49249234702e+02	-1.56235170608e+01
2.00000000000e+00	1.49999234747e+02	-1.56363054115e+01
2.01000000000e+00	1.50749234791e+02	-1.56490482148e+01
2.03000000000e+00	1.52249234878e+02	-1.56743981539e+01
2.06000000000e+00	1.54499235005e+02	-1.57120875675e+01
2.07000000000e+00	1.55249235047e+02	-1.57245622452e+01
2.08000000000e+00	1.55999235089e+02	-1.57369931234e+01
2.09000000000e+00	1.56749235130e+02	-1.57493804483e+01
2.10000000000e+00	1.57499235170e+02	-1.57617244820e+01
2.12000000000e+00	1.58999235251e+02	-1.57862836828e+01
2.13000000000e+00	1.59749235290e+02	-1.57984993872e+01
2.14000000000e+00	1.60499235330e+02	-1.58106728188e+01
2.15000000000e+00	1.61249235368e+02	-1.58228042703e+01
2.16000000000e+00	1.61999235407e+02	-1.58348939751e+01
2.18000000000e+00	1.63499235483e+02	-1.58589492085e+01
2.19000000000e+00	1.64249235520e+02	-1.58709152759e+01
2.20000000000e+00	1.64999235557e+02	-1.58828406324e+01
2.21000000000e+00	1.65749235594e+02	-1.58947255560e+01
2.22000000000e+00	1.66499235631e+02	-1.59065702915e+01
2.23000000000e+00	1.67249235667e+02	-1.59183751216e+01
2.24000000000e+00	1.67999235703e+02	-1.59301402980e+01
2.26000000000e+00	1.69499235774e+02	-1.59535526723e+01
2.28000000000e+00	1.70999235844e+02	-1.59768094918e+01
2.29000000000e+00	1.71749235878e+02	-1.59883802043e+01
2.31000000000e+00	1.73249235946e+02	-1.60114074858e+01
2.33000000000e+00	1.74749236013e+02	-1.60342842718e+01
2.34000000000e+00	1.75499236045e+02	-1.60456668427e+01
2.35000000000e+00	1.76249236078e+02	-1.60570125268e+01
2.36000000000e+00	1.76999236111e+02	-1.60683216084e+01
2.37000000000e+00	1.77749236143e+02	-1.60795942747e+01
2.38000000000e+00	1.78499236175e+02	-1.60908308119e+01
2.39000000000e+00	1.79249236206e+02	-1.61020314377e+01
2.41000000000e+00	1.80749236269e+02	-1.61243259321e+01
2.42000000000e+00	1.81499236300e+02	-1.61354202969e+01
2.43000000000e+00	1.82249236331e+02	-1.61464796905e+01
2.45000000000e+00	1.83749236391e+02	-1.61684946027e+01
2.46000000000e+00	1.84499236421e+02	-1.61794505699e+01
2.47000000000e+00	1.85249236451e+02	-1.61903725258e+01
2.48000000000e+00	1.85999236480e+02	-1.62012606937e+01
2.49000000000e+00	1.86749236510e+02	-1.62121152940e+01
2.50000000000e+00	1.87499236539e+02	-1.62229365677e+01
