# Re(epsi1)     Omega/c [1/micrones]    Im(epsi1)     Eq(det).Opt det SIN kz, mu = 0.3 eV, R = 0.5 micrones, solve_det_sinkz_vs_re_epsi1.py
1.000000000e+00	2.086174727e-01	-2.870935326e-02	1.698939461e-13
1.010000000e+00	2.081104559e-01	-2.867370578e-02	1.008083118e-13
1.020000000e+00	2.076070698e-01	-2.863895280e-02	8.016963914e-14
1.030000000e+00	2.071072718e-01	-2.860508226e-02	1.666497113e-13
1.040000000e+00	2.066110199e-01	-2.857208235e-02	1.077198181e-13
1.050000000e+00	2.061182729e-01	-2.853994145e-02	7.732735247e-14
1.060000000e+00	2.056289901e-01	-2.850864819e-02	8.110466054e-14
1.070000000e+00	2.051431318e-01	-2.847819140e-02	7.692335978e-14
1.080000000e+00	2.046606584e-01	-2.844856010e-02	1.158332486e-13
1.090000000e+00	2.041815314e-01	-2.841974354e-02	6.133668226e-14
1.100000000e+00	2.037057127e-01	-2.839173115e-02	2.111292768e-14
1.110000000e+00	2.032331648e-01	-2.836451255e-02	6.095762017e-14
1.120000000e+00	2.027638507e-01	-2.833807757e-02	9.487349454e-14
1.130000000e+00	2.022977342e-01	-2.831241619e-02	8.539899897e-14
1.140000000e+00	2.018347796e-01	-2.828751860e-02	5.881039705e-14
1.150000000e+00	2.013749515e-01	-2.826337516e-02	1.225431892e-13
1.160000000e+00	2.009182154e-01	-2.823997639e-02	1.136741823e-13
1.170000000e+00	2.004645370e-01	-2.821731299e-02	1.803131416e-13
1.180000000e+00	2.000138829e-01	-2.819537581e-02	7.898119106e-14
1.190000000e+00	1.995662199e-01	-2.817415589e-02	5.283542655e-14
1.200000000e+00	1.991215153e-01	-2.815364440e-02	1.965711317e-13
1.210000000e+00	1.986797371e-01	-2.813383266e-02	6.825538493e-14
1.220000000e+00	1.982408536e-01	-2.811471218e-02	1.429691505e-13
1.230000000e+00	1.978048337e-01	-2.809627457e-02	1.134051518e-13
1.240000000e+00	1.973716467e-01	-2.807851161e-02	1.923660135e-13
1.250000000e+00	1.969412623e-01	-2.806141523e-02	1.114781160e-13
1.260000000e+00	1.965136508e-01	-2.804497747e-02	1.219390982e-13
1.270000000e+00	1.960887827e-01	-2.802919052e-02	5.010467999e-14
1.280000000e+00	1.956666292e-01	-2.801404672e-02	1.521584958e-13
1.290000000e+00	1.952471618e-01	-2.799953850e-02	9.382061178e-14
1.300000000e+00	1.948303522e-01	-2.798565846e-02	1.598332530e-13
1.310000000e+00	1.944161730e-01	-2.797239929e-02	9.516234171e-14
1.320000000e+00	1.940045967e-01	-2.795975382e-02	7.294495311e-14
1.330000000e+00	1.935955965e-01	-2.794771499e-02	1.240013384e-13
1.340000000e+00	1.931891458e-01	-2.793627586e-02	1.863899327e-13
1.350000000e+00	1.927852186e-01	-2.792542962e-02	1.074728145e-13
1.360000000e+00	1.923837890e-01	-2.791516954e-02	1.423133815e-13
1.370000000e+00	1.919848317e-01	-2.790548903e-02	4.577566799e-14
1.380000000e+00	1.915883216e-01	-2.789638159e-02	8.603258284e-14
1.390000000e+00	1.911942340e-01	-2.788784082e-02	3.373170915e-13
1.400000000e+00	1.908025446e-01	-2.787986044e-02	1.318232444e-13
1.410000000e+00	1.904132293e-01	-2.787243427e-02	1.090688886e-13
1.420000000e+00	1.900262645e-01	-2.786555622e-02	1.477410388e-13
1.430000000e+00	1.896416268e-01	-2.785922029e-02	1.284097150e-13
1.440000000e+00	1.892592932e-01	-2.785342060e-02	1.735227888e-13
1.450000000e+00	1.888792410e-01	-2.784815133e-02	7.965458036e-14
1.460000000e+00	1.885014477e-01	-2.784340679e-02	2.281039343e-13
1.470000000e+00	1.881258913e-01	-2.783918134e-02	8.442606021e-14
1.480000000e+00	1.877525500e-01	-2.783546946e-02	1.009255628e-13
1.490000000e+00	1.873814022e-01	-2.783226570e-02	5.040415589e-14
1.500000000e+00	1.870124268e-01	-2.782956470e-02	6.580469440e-14
1.510000000e+00	1.866456027e-01	-2.782736118e-02	8.716716185e-14
1.520000000e+00	1.862809094e-01	-2.782564994e-02	1.798118527e-13
1.530000000e+00	1.859183265e-01	-2.782442586e-02	7.608262480e-14
1.540000000e+00	1.855578338e-01	-2.782368390e-02	7.033788598e-14
1.550000000e+00	1.851994115e-01	-2.782341909e-02	8.979906753e-14
1.560000000e+00	1.848430400e-01	-2.782362656e-02	9.588159880e-14
1.570000000e+00	1.844887001e-01	-2.782430149e-02	1.541987701e-13
1.580000000e+00	1.841363725e-01	-2.782543912e-02	2.090402255e-13
1.590000000e+00	1.837860385e-01	-2.782703480e-02	1.623638165e-13
1.600000000e+00	1.834376795e-01	-2.782908392e-02	1.071388947e-13
1.610000000e+00	1.830912772e-01	-2.783158194e-02	1.333423610e-13
1.620000000e+00	1.827468134e-01	-2.783452441e-02	1.027880817e-13
1.630000000e+00	1.824042703e-01	-2.783790692e-02	1.763404512e-13
1.640000000e+00	1.820636302e-01	-2.784172514e-02	2.094613844e-13
1.650000000e+00	1.817248757e-01	-2.784597479e-02	1.053687963e-13
1.660000000e+00	1.813879895e-01	-2.785065167e-02	9.934133077e-14
1.670000000e+00	1.810529548e-01	-2.785575162e-02	1.859684400e-13
1.680000000e+00	1.807197547e-01	-2.786127057e-02	1.640415289e-13
1.690000000e+00	1.803883727e-01	-2.786720448e-02	9.377566979e-14
1.700000000e+00	1.800587924e-01	-2.787354937e-02	9.332351175e-14
1.710000000e+00	1.797309977e-01	-2.788030135e-02	1.258585566e-13
1.720000000e+00	1.794049726e-01	-2.788745653e-02	1.048060532e-13
1.730000000e+00	1.790807014e-01	-2.789501114e-02	1.759968684e-13
1.740000000e+00	1.787581685e-01	-2.790296141e-02	7.008313072e-14
1.750000000e+00	1.784373585e-01	-2.791130364e-02	1.620895199e-13
1.760000000e+00	1.781182562e-01	-2.792003420e-02	1.181377595e-13
1.770000000e+00	1.778008468e-01	-2.792914949e-02	1.413782603e-13
1.780000000e+00	1.774851153e-01	-2.793864597e-02	3.233464283e-13
1.790000000e+00	1.771710471e-01	-2.794852014e-02	1.358822388e-13
1.800000000e+00	1.768586279e-01	-2.795876856e-02	1.036334916e-13
1.810000000e+00	1.765478432e-01	-2.796938782e-02	1.045980937e-13
1.820000000e+00	1.762386790e-01	-2.798037459e-02	8.391819225e-14
1.830000000e+00	1.759311213e-01	-2.799172555e-02	1.035935207e-13
1.840000000e+00	1.756251564e-01	-2.800343744e-02	8.803769324e-14
1.850000000e+00	1.753207707e-01	-2.801550705e-02	1.486334579e-13
1.860000000e+00	1.750179507e-01	-2.802793121e-02	1.221870046e-13
1.870000000e+00	1.747166832e-01	-2.804070679e-02	2.232626206e-13
1.880000000e+00	1.744169549e-01	-2.805383070e-02	2.453312612e-13
1.890000000e+00	1.741187529e-01	-2.806729989e-02	2.220166255e-13
1.900000000e+00	1.738220644e-01	-2.808111137e-02	6.113915136e-14
1.910000000e+00	1.735268768e-01	-2.809526217e-02	1.317713718e-13
1.920000000e+00	1.732331774e-01	-2.810974935e-02	1.371691330e-13
1.930000000e+00	1.729409539e-01	-2.812457005e-02	1.556917885e-13
1.940000000e+00	1.726501940e-01	-2.813972140e-02	1.126904262e-13
1.950000000e+00	1.723608857e-01	-2.815520061e-02	2.704741695e-13
1.960000000e+00	1.720730170e-01	-2.817100488e-02	7.529917323e-14
1.970000000e+00	1.717865761e-01	-2.818713150e-02	8.379058453e-14
1.980000000e+00	1.715015512e-01	-2.820357775e-02	1.712421846e-13
1.990000000e+00	1.712179308e-01	-2.822034097e-02	2.152775980e-13
2.000000000e+00	1.709357036e-01	-2.823741853e-02	1.396002484e-13
2.010000000e+00	1.706548581e-01	-2.825480783e-02	1.104697154e-13
2.020000000e+00	1.703753832e-01	-2.827250630e-02	8.258746032e-14
2.030000000e+00	1.700972679e-01	-2.829051142e-02	2.720732000e-13
2.040000000e+00	1.698205012e-01	-2.830882068e-02	8.380237043e-14
2.050000000e+00	1.695450724e-01	-2.832743161e-02	2.388934309e-13
2.060000000e+00	1.692709707e-01	-2.834634179e-02	1.133350254e-13
2.070000000e+00	1.689981856e-01	-2.836554880e-02	7.015961709e-14
2.080000000e+00	1.687267067e-01	-2.838505026e-02	2.079683404e-13
2.090000000e+00	1.684565237e-01	-2.840484384e-02	6.217568614e-14
2.100000000e+00	1.681876262e-01	-2.842492722e-02	1.284796691e-13
2.110000000e+00	1.679200042e-01	-2.844529811e-02	1.385439234e-13
2.120000000e+00	1.676536478e-01	-2.846595425e-02	1.145240254e-13
2.130000000e+00	1.673885470e-01	-2.848689341e-02	1.535609924e-13
2.140000000e+00	1.671246920e-01	-2.850811339e-02	3.300786970e-13
2.150000000e+00	1.668620732e-01	-2.852961200e-02	9.567939128e-14
2.160000000e+00	1.666006809e-01	-2.855138712e-02	7.844965045e-14
2.170000000e+00	1.663405059e-01	-2.857343660e-02	1.423681824e-13
2.180000000e+00	1.660815386e-01	-2.859575835e-02	7.546187205e-14
2.190000000e+00	1.658237698e-01	-2.861835030e-02	1.645885695e-13
2.200000000e+00	1.655671903e-01	-2.864121041e-02	2.861506536e-13
2.210000000e+00	1.653117911e-01	-2.866433664e-02	1.174042870e-13
2.220000000e+00	1.650575632e-01	-2.868772702e-02	6.089573290e-14
2.230000000e+00	1.648044977e-01	-2.871137955e-02	8.501874878e-14
2.240000000e+00	1.645525859e-01	-2.873529230e-02	1.454655287e-13
2.250000000e+00	1.643018190e-01	-2.875946333e-02	1.225929559e-13
2.260000000e+00	1.640521885e-01	-2.878389074e-02	3.593620437e-13
2.270000000e+00	1.638036857e-01	-2.880857265e-02	1.498667131e-13
2.280000000e+00	1.635563024e-01	-2.883350721e-02	1.104095587e-13
2.290000000e+00	1.633100302e-01	-2.885869256e-02	2.657997798e-13
2.300000000e+00	1.630648608e-01	-2.888412691e-02	1.533692743e-13
2.310000000e+00	1.628207860e-01	-2.890980845e-02	1.939773141e-13
2.320000000e+00	1.625777978e-01	-2.893573541e-02	8.128017374e-14
2.330000000e+00	1.623358882e-01	-2.896190604e-02	2.773980208e-13
2.340000000e+00	1.620950493e-01	-2.898831861e-02	1.459774940e-13
2.350000000e+00	1.618552732e-01	-2.901497140e-02	7.943310185e-14
2.360000000e+00	1.616165522e-01	-2.904186272e-02	4.037608841e-13
2.370000000e+00	1.613788785e-01	-2.906899090e-02	6.361362689e-13
2.380000000e+00	1.611422447e-01	-2.909635429e-02	1.113451301e-13
2.390000000e+00	1.609066432e-01	-2.912395125e-02	2.200911302e-13
2.400000000e+00	1.606720664e-01	-2.915178015e-02	1.493546789e-13
2.410000000e+00	1.604385072e-01	-2.917983942e-02	1.253679379e-13
2.420000000e+00	1.602059581e-01	-2.920812746e-02	1.580425093e-13
2.430000000e+00	1.599744119e-01	-2.923664271e-02	4.156450967e-14
2.440000000e+00	1.597438615e-01	-2.926538363e-02	6.089206410e-14
2.450000000e+00	1.595142998e-01	-2.929434869e-02	1.015860893e-13
2.460000000e+00	1.592857198e-01	-2.932353638e-02	1.416021900e-13
2.470000000e+00	1.590581145e-01	-2.935294521e-02	1.053194451e-13
2.480000000e+00	1.588314771e-01	-2.938257370e-02	1.979085195e-13
2.490000000e+00	1.586058008e-01	-2.941242038e-02	3.252806866e-13
2.500000000e+00	1.583810787e-01	-2.944248383e-02	2.169112210e-13
2.510000000e+00	1.581573043e-01	-2.947276260e-02	1.412989440e-13
2.520000000e+00	1.579344710e-01	-2.950325529e-02	2.746045478e-13
2.530000000e+00	1.577125721e-01	-2.953396049e-02	1.601360479e-13
2.540000000e+00	1.574916012e-01	-2.956487683e-02	8.620996168e-14
2.550000000e+00	1.572715519e-01	-2.959600294e-02	7.357673812e-14
2.560000000e+00	1.570524178e-01	-2.962733746e-02	4.618581158e-14
2.570000000e+00	1.568341926e-01	-2.965887906e-02	1.208463355e-13
2.580000000e+00	1.566168701e-01	-2.969062642e-02	1.063955317e-13
2.590000000e+00	1.564004441e-01	-2.972257822e-02	1.317577960e-13
2.600000000e+00	1.561849085e-01	-2.975473317e-02	1.932579094e-13
2.610000000e+00	1.559702572e-01	-2.978709000e-02	1.431053039e-13
2.620000000e+00	1.557564843e-01	-2.981964743e-02	2.086701979e-13
2.630000000e+00	1.555435837e-01	-2.985240420e-02	1.773295537e-13
2.640000000e+00	1.553315495e-01	-2.988535909e-02	1.599697025e-13
2.650000000e+00	1.551203761e-01	-2.991851086e-02	2.247443530e-13
2.660000000e+00	1.549100574e-01	-2.995185829e-02	2.179641236e-13
2.670000000e+00	1.547005880e-01	-2.998540019e-02	1.317614561e-13
2.680000000e+00	1.544919619e-01	-3.001913537e-02	8.504308369e-14
2.690000000e+00	1.542841737e-01	-3.005306264e-02	1.731748636e-13
2.700000000e+00	1.540772178e-01	-3.008718085e-02	5.114047471e-14
2.710000000e+00	1.538710886e-01	-3.012148884e-02	1.577967136e-13
2.720000000e+00	1.536657808e-01	-3.015598547e-02	1.851405000e-13
2.730000000e+00	1.534612887e-01	-3.019066961e-02	1.932132903e-13
2.740000000e+00	1.532576072e-01	-3.022554015e-02	1.168184664e-13
2.750000000e+00	1.530547309e-01	-3.026059598e-02	1.752018117e-13
2.760000000e+00	1.528526545e-01	-3.029583601e-02	8.829700805e-14
2.770000000e+00	1.526513727e-01	-3.033125914e-02	1.617777815e-13
2.780000000e+00	1.524508805e-01	-3.036686432e-02	1.008517851e-13
2.790000000e+00	1.522511727e-01	-3.040265047e-02	1.151802213e-13
2.800000000e+00	1.520522442e-01	-3.043861656e-02	9.967261782e-14
2.810000000e+00	1.518540900e-01	-3.047476153e-02	1.012322668e-13
2.820000000e+00	1.516567050e-01	-3.051108436e-02	1.374418439e-13
2.830000000e+00	1.514600844e-01	-3.054758403e-02	2.342919145e-13
2.840000000e+00	1.512642232e-01	-3.058425954e-02	1.925328078e-13
2.850000000e+00	1.510691167e-01	-3.062110987e-02	1.898236263e-13
2.860000000e+00	1.508747598e-01	-3.065813405e-02	2.003900892e-13
2.870000000e+00	1.506811480e-01	-3.069533109e-02	1.972927307e-13
2.880000000e+00	1.504882765e-01	-3.073270003e-02	8.834313264e-14
2.890000000e+00	1.502961405e-01	-3.077023990e-02	2.004448024e-13
2.900000000e+00	1.501047355e-01	-3.080794975e-02	1.363466429e-13
2.910000000e+00	1.499140568e-01	-3.084582865e-02	1.046640639e-13
2.920000000e+00	1.497240998e-01	-3.088387566e-02	2.560419822e-13
2.930000000e+00	1.495348601e-01	-3.092208986e-02	6.727990460e-14
2.940000000e+00	1.493463332e-01	-3.096047034e-02	1.325720772e-13
2.950000000e+00	1.491585146e-01	-3.099901618e-02	2.133840639e-13
2.960000000e+00	1.489713999e-01	-3.103772650e-02	2.860224174e-13
2.970000000e+00	1.487849847e-01	-3.107660041e-02	4.314765055e-13
2.980000000e+00	1.485992647e-01	-3.111563702e-02	2.015524209e-13
2.990000000e+00	1.484142356e-01	-3.115483547e-02	2.629057409e-13
3.000000000e+00	1.482298932e-01	-3.119419490e-02	1.373838191e-13
3.010000000e+00	1.480462332e-01	-3.123371444e-02	1.436349295e-13
3.020000000e+00	1.478632514e-01	-3.127339326e-02	8.180920012e-14
3.030000000e+00	1.476809438e-01	-3.131323052e-02	1.813962072e-13
3.040000000e+00	1.474993061e-01	-3.135322539e-02	8.888611180e-14
3.050000000e+00	1.473183343e-01	-3.139337704e-02	5.701254674e-14
3.060000000e+00	1.471380244e-01	-3.143368467e-02	6.835136087e-14
3.070000000e+00	1.469583723e-01	-3.147414745e-02	1.520738196e-13
3.080000000e+00	1.467793741e-01	-3.151476461e-02	1.409087785e-13
3.090000000e+00	1.466010258e-01	-3.155553534e-02	2.564208794e-13
3.100000000e+00	1.464233236e-01	-3.159645886e-02	2.998549047e-13
3.110000000e+00	1.462462635e-01	-3.163753439e-02	1.846814539e-13
3.120000000e+00	1.460698417e-01	-3.167876116e-02	1.648328742e-13
3.130000000e+00	1.458940544e-01	-3.172013842e-02	1.072206616e-13
3.140000000e+00	1.457188977e-01	-3.176166540e-02	1.066815147e-13
3.150000000e+00	1.455443681e-01	-3.180334136e-02	1.705880709e-13
3.160000000e+00	1.453704616e-01	-3.184516555e-02	1.412106365e-13
3.170000000e+00	1.451971748e-01	-3.188713724e-02	8.687933216e-14
3.180000000e+00	1.450245038e-01	-3.192925571e-02	2.968853502e-13
3.190000000e+00	1.448524451e-01	-3.197152022e-02	3.014885799e-13
3.200000000e+00	1.446809950e-01	-3.201393007e-02	1.443087622e-13
3.210000000e+00	1.445101500e-01	-3.205648455e-02	1.377170690e-13
3.220000000e+00	1.443399066e-01	-3.209918295e-02	9.822106455e-14
3.230000000e+00	1.441702613e-01	-3.214202458e-02	1.588967797e-13
3.240000000e+00	1.440012105e-01	-3.218500875e-02	1.557079381e-13
3.250000000e+00	1.438327508e-01	-3.222813477e-02	3.189488590e-13
3.260000000e+00	1.436648789e-01	-3.227140197e-02	2.916238058e-13
3.270000000e+00	1.434975912e-01	-3.231480968e-02	7.483693807e-14
3.280000000e+00	1.433308844e-01	-3.235835723e-02	1.358203488e-13
3.290000000e+00	1.431647552e-01	-3.240204396e-02	7.442842748e-14
3.300000000e+00	1.429992003e-01	-3.244586922e-02	1.605700711e-13
3.310000000e+00	1.428342164e-01	-3.248983236e-02	8.559819520e-14
3.320000000e+00	1.426698001e-01	-3.253393274e-02	1.140194722e-13
3.330000000e+00	1.425059483e-01	-3.257816972e-02	1.296930586e-13
3.340000000e+00	1.423426578e-01	-3.262254268e-02	3.077973952e-13
3.350000000e+00	1.421799253e-01	-3.266705098e-02	2.591792288e-13
3.360000000e+00	1.420177478e-01	-3.271169400e-02	1.491710546e-13
3.370000000e+00	1.418561220e-01	-3.275647113e-02	1.884278420e-13
3.380000000e+00	1.416950449e-01	-3.280138177e-02	1.150696758e-13
3.390000000e+00	1.415345134e-01	-3.284642531e-02	1.593157661e-13
3.400000000e+00	1.413745243e-01	-3.289160114e-02	8.004577120e-14
3.410000000e+00	1.412150748e-01	-3.293690868e-02	4.892658524e-14
3.420000000e+00	1.410561617e-01	-3.298234734e-02	2.616829583e-13
3.430000000e+00	1.408977820e-01	-3.302791652e-02	9.327941629e-14
3.440000000e+00	1.407399329e-01	-3.307361567e-02	1.708260595e-13
3.450000000e+00	1.405826113e-01	-3.311944419e-02	4.659596379e-13
3.460000000e+00	1.404258143e-01	-3.316540153e-02	2.253587841e-13
3.470000000e+00	1.402695390e-01	-3.321148712e-02	1.781133051e-13
3.480000000e+00	1.401137826e-01	-3.325770039e-02	4.420653802e-14
3.490000000e+00	1.399585422e-01	-3.330404080e-02	3.116899683e-13
3.500000000e+00	1.398038149e-01	-3.335050780e-02	2.169636285e-13
3.510000000e+00	1.396495980e-01	-3.339710083e-02	6.373347421e-14
3.520000000e+00	1.394958886e-01	-3.344381937e-02	1.071166741e-13
3.530000000e+00	1.393426840e-01	-3.349066286e-02	1.014299780e-13
3.540000000e+00	1.391899815e-01	-3.353763079e-02	6.357003640e-14
3.550000000e+00	1.390377782e-01	-3.358472262e-02	2.335693943e-13
3.560000000e+00	1.388860716e-01	-3.363193784e-02	2.785900004e-13
3.570000000e+00	1.387348589e-01	-3.367927591e-02	2.087403823e-13
3.580000000e+00	1.385841374e-01	-3.372673634e-02	1.928950763e-13
3.590000000e+00	1.384339045e-01	-3.377431860e-02	1.214420083e-13
3.600000000e+00	1.382841576e-01	-3.382202220e-02	1.752246046e-13
3.610000000e+00	1.381348940e-01	-3.386984662e-02	1.175220236e-13
3.620000000e+00	1.379861112e-01	-3.391779138e-02	1.099863496e-13
3.630000000e+00	1.378378067e-01	-3.396585598e-02	3.126572741e-13
3.640000000e+00	1.376899778e-01	-3.401403993e-02	7.354504810e-14
3.650000000e+00	1.375426220e-01	-3.406234274e-02	1.810669943e-13
3.660000000e+00	1.373957369e-01	-3.411076393e-02	2.676265083e-13
3.670000000e+00	1.372493199e-01	-3.415930303e-02	5.618035673e-14
3.680000000e+00	1.371033685e-01	-3.420795956e-02	5.783398861e-14
3.690000000e+00	1.369578803e-01	-3.425673305e-02	7.628290615e-14
3.700000000e+00	1.368128529e-01	-3.430562303e-02	2.046717751e-13
3.710000000e+00	1.366682838e-01	-3.435462905e-02	9.170872284e-14
3.720000000e+00	1.365241707e-01	-3.440375063e-02	1.543848849e-13
3.730000000e+00	1.363805111e-01	-3.445298734e-02	9.850475293e-14
3.740000000e+00	1.362373027e-01	-3.450233871e-02	8.798907966e-14
3.750000000e+00	1.360945431e-01	-3.455180429e-02	2.695270535e-13
3.760000000e+00	1.359522301e-01	-3.460138365e-02	2.925046643e-13
3.770000000e+00	1.358103612e-01	-3.465107633e-02	1.587757503e-13
3.780000000e+00	1.356689342e-01	-3.470088191e-02	1.673606986e-13
3.790000000e+00	1.355279468e-01	-3.475079995e-02	1.359567711e-13
3.800000000e+00	1.353873967e-01	-3.480083002e-02	1.470130232e-13
3.810000000e+00	1.352472818e-01	-3.485097168e-02	2.288124135e-13
3.820000000e+00	1.351075996e-01	-3.490122452e-02	2.505412038e-13
3.830000000e+00	1.349683482e-01	-3.495158812e-02	1.852923313e-13
3.840000000e+00	1.348295251e-01	-3.500206205e-02	2.703027145e-13
3.850000000e+00	1.346911283e-01	-3.505264591e-02	1.622550594e-13
3.860000000e+00	1.345531555e-01	-3.510333928e-02	9.106752822e-14
3.870000000e+00	1.344156047e-01	-3.515414175e-02	7.511091597e-14
3.880000000e+00	1.342784736e-01	-3.520505292e-02	2.704219109e-13
3.890000000e+00	1.341417602e-01	-3.525607238e-02	1.669799051e-13
3.900000000e+00	1.340054624e-01	-3.530719975e-02	2.759847633e-13
3.910000000e+00	1.338695780e-01	-3.535843461e-02	1.121574203e-13
3.920000000e+00	1.337341049e-01	-3.540977658e-02	1.422712145e-13
3.930000000e+00	1.335990411e-01	-3.546122528e-02	9.863005402e-14
3.940000000e+00	1.334643846e-01	-3.551278030e-02	1.180208851e-13
3.950000000e+00	1.333301333e-01	-3.556444127e-02	1.487420857e-13
3.960000000e+00	1.331962852e-01	-3.561620781e-02	7.564783025e-14
3.970000000e+00	1.330628383e-01	-3.566807954e-02	1.288708801e-13
3.980000000e+00	1.329297906e-01	-3.572005608e-02	4.556902797e-13
3.990000000e+00	1.327971400e-01	-3.577213706e-02	8.612153932e-14
4.000000000e+00	1.326648847e-01	-3.582432211e-02	2.315475189e-13
4.010000000e+00	1.325330227e-01	-3.587661087e-02	1.492207480e-13
4.020000000e+00	1.324015520e-01	-3.592900296e-02	4.349445746e-13
4.030000000e+00	1.322704707e-01	-3.598149803e-02	8.819392567e-14
4.040000000e+00	1.321397769e-01	-3.603409572e-02	1.479878568e-13
