# Re(epsi1)     Omega/c [1/micrones]    Im(epsi1)     Eq(det).Opt det SIN kz, mu = 0.3 eV, R = 0.5 micrones, solve_det_sinkz_vs_re_epsi1.py
1.000000000e+00	3.618188955e-01	-1.464569493e-02	4.949067416e-14
1.010000000e+00	3.609316021e-01	-1.469160437e-02	5.641342423e-14
1.020000000e+00	3.600507861e-01	-1.473750804e-02	6.519496398e-14
1.030000000e+00	3.591763693e-01	-1.478340620e-02	8.028916627e-14
1.040000000e+00	3.583082747e-01	-1.482929911e-02	6.178533898e-14
1.050000000e+00	3.574464268e-01	-1.487518702e-02	1.056706198e-13
1.060000000e+00	3.565907512e-01	-1.492107018e-02	1.433252776e-13
1.070000000e+00	3.557411749e-01	-1.496694882e-02	5.557200147e-14
1.080000000e+00	3.548976258e-01	-1.501282320e-02	1.882635794e-13
1.090000000e+00	3.540600332e-01	-1.505869356e-02	7.119166637e-14
1.100000000e+00	3.532283276e-01	-1.510456012e-02	9.834746439e-14
1.110000000e+00	3.524024404e-01	-1.515042313e-02	7.100796305e-14
1.120000000e+00	3.515823044e-01	-1.519628280e-02	1.032411392e-13
1.130000000e+00	3.507678533e-01	-1.524213938e-02	5.966207373e-14
1.140000000e+00	3.499590218e-01	-1.528799309e-02	7.709060038e-14
1.150000000e+00	3.491557458e-01	-1.533384414e-02	1.098602603e-13
1.160000000e+00	3.483579622e-01	-1.537969275e-02	2.310815614e-13
1.170000000e+00	3.475656087e-01	-1.542553915e-02	9.884549230e-14
1.180000000e+00	3.467786243e-01	-1.547138355e-02	3.684602581e-14
1.190000000e+00	3.459969487e-01	-1.551722616e-02	1.044764256e-13
1.200000000e+00	3.452205226e-01	-1.556306718e-02	9.087241581e-14
1.210000000e+00	3.444492877e-01	-1.560890683e-02	1.270156552e-13
1.220000000e+00	3.436831865e-01	-1.565474530e-02	1.567861342e-13
1.230000000e+00	3.429221624e-01	-1.570058281e-02	1.066036703e-13
1.240000000e+00	3.421661598e-01	-1.574641955e-02	3.126388037e-13
1.250000000e+00	3.414151238e-01	-1.579225571e-02	4.577273960e-14
1.260000000e+00	3.406690004e-01	-1.583809149e-02	1.667673337e-13
1.270000000e+00	3.399277363e-01	-1.588392709e-02	5.894228304e-14
1.280000000e+00	3.391912792e-01	-1.592976268e-02	9.795480586e-14
1.290000000e+00	3.384595775e-01	-1.597559847e-02	6.815512570e-14
1.300000000e+00	3.377325803e-01	-1.602143464e-02	1.196246150e-13
1.310000000e+00	3.370102375e-01	-1.606727137e-02	1.321135661e-13
1.320000000e+00	3.362924998e-01	-1.611310883e-02	1.373537487e-13
1.330000000e+00	3.355793185e-01	-1.615894722e-02	8.410835695e-14
1.340000000e+00	3.348706458e-01	-1.620478670e-02	9.322133915e-14
1.350000000e+00	3.341664345e-01	-1.625062746e-02	9.674230467e-14
1.360000000e+00	3.334666379e-01	-1.629646966e-02	9.812167171e-14
1.370000000e+00	3.327712104e-01	-1.634231348e-02	1.364164715e-13
1.380000000e+00	3.320801067e-01	-1.638815908e-02	1.762545074e-13
1.390000000e+00	3.313932823e-01	-1.643400664e-02	2.620226671e-13
1.400000000e+00	3.307106933e-01	-1.647985631e-02	9.010204153e-14
1.410000000e+00	3.300322964e-01	-1.652570827e-02	1.447956001e-13
1.420000000e+00	3.293580489e-01	-1.657156266e-02	8.985604727e-14
1.430000000e+00	3.286879090e-01	-1.661741967e-02	1.433691415e-13
1.440000000e+00	3.280218350e-01	-1.666327943e-02	1.711164620e-13
1.450000000e+00	3.273597861e-01	-1.670914210e-02	2.203175982e-13
1.460000000e+00	3.267017220e-01	-1.675500785e-02	1.145526508e-13
1.470000000e+00	3.260476029e-01	-1.680087682e-02	1.125462033e-13
1.480000000e+00	3.253973898e-01	-1.684674917e-02	9.371130742e-14
1.490000000e+00	3.247510439e-01	-1.689262504e-02	5.620427305e-14
1.500000000e+00	3.241085272e-01	-1.693850458e-02	2.604023445e-13
1.510000000e+00	3.234698019e-01	-1.698438794e-02	1.503425635e-13
1.520000000e+00	3.228348312e-01	-1.703027526e-02	1.082645106e-13
1.530000000e+00	3.222035783e-01	-1.707616669e-02	7.612544347e-14
1.540000000e+00	3.215760073e-01	-1.712206235e-02	1.925667754e-13
1.550000000e+00	3.209520825e-01	-1.716796241e-02	1.100406926e-13
1.560000000e+00	3.203317688e-01	-1.721386699e-02	1.176220418e-13
1.570000000e+00	3.197150316e-01	-1.725977622e-02	9.251782303e-14
1.580000000e+00	3.191018366e-01	-1.730569025e-02	1.441041367e-13
1.590000000e+00	3.184921503e-01	-1.735160921e-02	5.271362567e-14
1.600000000e+00	3.178859393e-01	-1.739753323e-02	7.905818957e-14
1.610000000e+00	3.172831708e-01	-1.744346244e-02	6.842651808e-14
1.620000000e+00	3.166838123e-01	-1.748939697e-02	1.908418501e-13
1.630000000e+00	3.160878319e-01	-1.753533695e-02	1.174196141e-13
1.640000000e+00	3.154951981e-01	-1.758128250e-02	1.084944114e-13
1.650000000e+00	3.149058797e-01	-1.762723375e-02	7.157161463e-14
1.660000000e+00	3.143198458e-01	-1.767319082e-02	1.116672451e-13
1.670000000e+00	3.137370663e-01	-1.771915384e-02	1.226619095e-13
1.680000000e+00	3.131575111e-01	-1.776512293e-02	1.816802893e-13
1.690000000e+00	3.125811507e-01	-1.781109820e-02	9.400555733e-14
1.700000000e+00	3.120079558e-01	-1.785707977e-02	9.976626505e-14
1.710000000e+00	3.114378976e-01	-1.790306777e-02	1.022144812e-13
1.720000000e+00	3.108709477e-01	-1.794906231e-02	1.373755086e-13
1.730000000e+00	3.103070780e-01	-1.799506350e-02	3.835414839e-14
1.740000000e+00	3.097462607e-01	-1.804107146e-02	7.696216234e-14
1.750000000e+00	3.091884685e-01	-1.808708629e-02	9.213225755e-14
1.760000000e+00	3.086336742e-01	-1.813310812e-02	9.147705501e-14
1.770000000e+00	3.080818511e-01	-1.817913705e-02	7.862958135e-14
1.780000000e+00	3.075329730e-01	-1.822517318e-02	5.182161457e-14
1.790000000e+00	3.069870136e-01	-1.827121663e-02	2.577326977e-13
1.800000000e+00	3.064439473e-01	-1.831726751e-02	8.421012368e-14
1.810000000e+00	3.059037486e-01	-1.836332591e-02	1.553608769e-13
1.820000000e+00	3.053663925e-01	-1.840939195e-02	1.398817568e-13
1.830000000e+00	3.048318541e-01	-1.845546572e-02	2.559537799e-13
1.840000000e+00	3.043001089e-01	-1.850154734e-02	6.784580080e-14
1.850000000e+00	3.037711327e-01	-1.854763689e-02	1.058634185e-13
1.860000000e+00	3.032449016e-01	-1.859373448e-02	1.076480311e-13
1.870000000e+00	3.027213920e-01	-1.863984021e-02	1.081794843e-13
1.880000000e+00	3.022005805e-01	-1.868595418e-02	1.002240730e-13
1.890000000e+00	3.016824441e-01	-1.873207648e-02	6.525099115e-14
1.900000000e+00	3.011669600e-01	-1.877820722e-02	1.013974049e-13
1.910000000e+00	3.006541056e-01	-1.882434648e-02	1.253000676e-13
1.920000000e+00	3.001438587e-01	-1.887049435e-02	2.089439732e-13
1.930000000e+00	2.996361973e-01	-1.891665094e-02	2.755715788e-13
1.940000000e+00	2.991310997e-01	-1.896281634e-02	1.304440832e-13
1.950000000e+00	2.986285443e-01	-1.900899063e-02	9.690415536e-14
1.960000000e+00	2.981285101e-01	-1.905517391e-02	7.106476788e-14
1.970000000e+00	2.976309760e-01	-1.910136626e-02	1.478777164e-13
1.980000000e+00	2.971359212e-01	-1.914756778e-02	1.467795458e-13
1.990000000e+00	2.966433252e-01	-1.919377854e-02	9.607800073e-14
2.000000000e+00	2.961531679e-01	-1.923999865e-02	1.115420580e-13
2.010000000e+00	2.956654291e-01	-1.928622818e-02	3.774353357e-13
2.020000000e+00	2.951800891e-01	-1.933246722e-02	2.495765617e-13
2.030000000e+00	2.946971283e-01	-1.937871586e-02	2.547416891e-13
2.040000000e+00	2.942165273e-01	-1.942497417e-02	7.426927353e-14
2.050000000e+00	2.937382670e-01	-1.947124224e-02	1.145863249e-13
2.060000000e+00	2.932623286e-01	-1.951752015e-02	8.731747047e-14
2.070000000e+00	2.927886932e-01	-1.956380798e-02	9.163963034e-14
2.080000000e+00	2.923173425e-01	-1.961010581e-02	2.972559691e-13
2.090000000e+00	2.918482580e-01	-1.965641372e-02	8.583899880e-14
2.100000000e+00	2.913814218e-01	-1.970273180e-02	1.291253813e-13
2.110000000e+00	2.909168160e-01	-1.974906011e-02	1.400976969e-13
2.120000000e+00	2.904544228e-01	-1.979539873e-02	1.747365484e-13
2.130000000e+00	2.899942248e-01	-1.984174775e-02	2.325892594e-13
2.140000000e+00	2.895362047e-01	-1.988810722e-02	3.740254906e-13
2.150000000e+00	2.890803454e-01	-1.993447724e-02	3.926703617e-13
2.160000000e+00	2.886266300e-01	-1.998085787e-02	5.538844699e-14
2.170000000e+00	2.881750417e-01	-2.002724919e-02	1.560430211e-13
2.180000000e+00	2.877255640e-01	-2.007365127e-02	1.408891828e-13
2.190000000e+00	2.872781806e-01	-2.012006418e-02	7.982812365e-14
2.200000000e+00	2.868328751e-01	-2.016648799e-02	1.166650014e-13
2.210000000e+00	2.863896317e-01	-2.021292277e-02	2.922653678e-13
2.220000000e+00	2.859484344e-01	-2.025936860e-02	1.326556707e-13
2.230000000e+00	2.855092676e-01	-2.030582553e-02	1.916615408e-13
2.240000000e+00	2.850721158e-01	-2.035229365e-02	9.891358188e-14
2.250000000e+00	2.846369637e-01	-2.039877301e-02	3.235980174e-13
2.260000000e+00	2.842037959e-01	-2.044526369e-02	1.166960195e-13
2.270000000e+00	2.837725976e-01	-2.049176574e-02	8.337324013e-14
2.280000000e+00	2.833433539e-01	-2.053827925e-02	1.609877365e-13
2.290000000e+00	2.829160500e-01	-2.058480426e-02	1.611386510e-13
2.300000000e+00	2.824906715e-01	-2.063134085e-02	7.065904520e-14
2.310000000e+00	2.820672038e-01	-2.067788908e-02	5.704353559e-14
2.320000000e+00	2.816456328e-01	-2.072444901e-02	8.850928851e-14
2.330000000e+00	2.812259444e-01	-2.077102070e-02	1.565973413e-13
2.340000000e+00	2.808081245e-01	-2.081760422e-02	3.609515362e-13
2.350000000e+00	2.803921595e-01	-2.086419963e-02	1.266986302e-13
2.360000000e+00	2.799780356e-01	-2.091080699e-02	1.500105234e-13
2.370000000e+00	2.795657393e-01	-2.095742636e-02	7.522963296e-14
2.380000000e+00	2.791552571e-01	-2.100405780e-02	1.478517395e-13
2.390000000e+00	2.787465760e-01	-2.105070136e-02	1.014918744e-13
2.400000000e+00	2.783396827e-01	-2.109735711e-02	1.225260258e-13
2.410000000e+00	2.779345642e-01	-2.114402511e-02	6.148120006e-14
2.420000000e+00	2.775312077e-01	-2.119070541e-02	4.228243687e-13
2.430000000e+00	2.771296005e-01	-2.123739806e-02	1.882959197e-13
2.440000000e+00	2.767297300e-01	-2.128410314e-02	2.950585157e-13
2.450000000e+00	2.763315838e-01	-2.133082068e-02	7.776634821e-14
2.460000000e+00	2.759351493e-01	-2.137755075e-02	8.125770782e-14
2.470000000e+00	2.755404146e-01	-2.142429340e-02	3.196888886e-13
2.480000000e+00	2.751473673e-01	-2.147104868e-02	2.908709956e-13
2.490000000e+00	2.747559957e-01	-2.151781666e-02	9.561463452e-14
2.500000000e+00	2.743662878e-01	-2.156459737e-02	3.376142034e-13
2.510000000e+00	2.739782318e-01	-2.161139088e-02	1.233993289e-13
2.520000000e+00	2.735918162e-01	-2.165819724e-02	6.940172763e-14
2.530000000e+00	2.732070294e-01	-2.170501649e-02	1.062814594e-13
2.540000000e+00	2.728238600e-01	-2.175184870e-02	3.690552339e-14
2.550000000e+00	2.724422968e-01	-2.179869391e-02	8.709584643e-14
2.560000000e+00	2.720623286e-01	-2.184555216e-02	6.398362760e-14
2.570000000e+00	2.716839442e-01	-2.189242352e-02	7.344576348e-14
2.580000000e+00	2.713071328e-01	-2.193930803e-02	9.522329228e-14
2.590000000e+00	2.709318834e-01	-2.198620573e-02	1.024942720e-13
2.600000000e+00	2.705581853e-01	-2.203311669e-02	1.139225158e-13
2.610000000e+00	2.701860279e-01	-2.208004094e-02	7.796271930e-14
2.620000000e+00	2.698154007e-01	-2.212697853e-02	1.485261408e-13
2.630000000e+00	2.694462931e-01	-2.217392951e-02	1.782745786e-13
2.640000000e+00	2.690786948e-01	-2.222089393e-02	8.233342391e-14
2.650000000e+00	2.687125956e-01	-2.226787183e-02	1.772806128e-13
2.660000000e+00	2.683479853e-01	-2.231486326e-02	5.130678266e-13
2.670000000e+00	2.679848539e-01	-2.236186826e-02	1.358448496e-13
2.680000000e+00	2.676231914e-01	-2.240888688e-02	7.722684545e-14
2.690000000e+00	2.672629879e-01	-2.245591917e-02	1.165139791e-13
2.700000000e+00	2.669042337e-01	-2.250296516e-02	1.126000430e-13
2.710000000e+00	2.665469191e-01	-2.255002490e-02	2.836836867e-13
2.720000000e+00	2.661910345e-01	-2.259709844e-02	1.240464959e-13
2.730000000e+00	2.658365703e-01	-2.264418582e-02	2.157726374e-13
2.740000000e+00	2.654835172e-01	-2.269128707e-02	1.028680197e-13
2.750000000e+00	2.651318658e-01	-2.273840225e-02	1.109192815e-13
2.760000000e+00	2.647816069e-01	-2.278553139e-02	1.392826887e-13
2.770000000e+00	2.644327313e-01	-2.283267454e-02	9.397183721e-14
2.780000000e+00	2.640852300e-01	-2.287983173e-02	1.034371025e-13
2.790000000e+00	2.637390940e-01	-2.292700301e-02	1.136922586e-13
2.800000000e+00	2.633943143e-01	-2.297418842e-02	2.361373385e-13
2.810000000e+00	2.630508822e-01	-2.302138799e-02	9.448415406e-14
2.820000000e+00	2.627087888e-01	-2.306860177e-02	8.022796063e-14
2.830000000e+00	2.623680255e-01	-2.311582979e-02	2.072586573e-13
2.840000000e+00	2.620285838e-01	-2.316307210e-02	1.691077775e-13
2.850000000e+00	2.616904550e-01	-2.321032873e-02	1.129577046e-13
2.860000000e+00	2.613536309e-01	-2.325759972e-02	1.923249827e-13
2.870000000e+00	2.610181029e-01	-2.330488511e-02	1.407146697e-13
2.880000000e+00	2.606838629e-01	-2.335218494e-02	1.051657258e-13
2.890000000e+00	2.603509026e-01	-2.339949923e-02	8.040659477e-14
2.900000000e+00	2.600192138e-01	-2.344682804e-02	9.459627902e-14
2.910000000e+00	2.596887886e-01	-2.349417139e-02	9.261043665e-14
2.920000000e+00	2.593596189e-01	-2.354152933e-02	7.136584070e-14
2.930000000e+00	2.590316968e-01	-2.358890188e-02	1.847672637e-13
2.940000000e+00	2.587050143e-01	-2.363628909e-02	1.969799728e-13
2.950000000e+00	2.583795639e-01	-2.368369098e-02	8.763338528e-14
2.960000000e+00	2.580553377e-01	-2.373110759e-02	1.534481250e-13
2.970000000e+00	2.577323280e-01	-2.377853897e-02	2.044648948e-13
2.980000000e+00	2.574105273e-01	-2.382598513e-02	2.809874461e-13
2.990000000e+00	2.570899282e-01	-2.387344612e-02	1.298108539e-13
3.000000000e+00	2.567705230e-01	-2.392092197e-02	1.795252602e-13
3.010000000e+00	2.564523045e-01	-2.396841271e-02	9.433525254e-14
3.020000000e+00	2.561352653e-01	-2.401591837e-02	3.255680512e-13
3.030000000e+00	2.558193981e-01	-2.406343899e-02	1.049705155e-13
3.040000000e+00	2.555046958e-01	-2.411097460e-02	1.883504077e-13
3.050000000e+00	2.551911512e-01	-2.415852523e-02	8.618792269e-14
3.060000000e+00	2.548787572e-01	-2.420609091e-02	5.080823078e-13
3.070000000e+00	2.545675069e-01	-2.425367168e-02	7.859375359e-14
3.080000000e+00	2.542573933e-01	-2.430126757e-02	9.020833649e-14
3.090000000e+00	2.539484094e-01	-2.434887860e-02	1.538120144e-13
3.100000000e+00	2.536405484e-01	-2.439650481e-02	4.322062729e-14
3.110000000e+00	2.533338036e-01	-2.444414622e-02	1.466980665e-13
3.120000000e+00	2.530281682e-01	-2.449180288e-02	1.237410178e-13
3.130000000e+00	2.527236356e-01	-2.453947480e-02	2.088031717e-13
3.140000000e+00	2.524201992e-01	-2.458716201e-02	9.537171201e-14
3.150000000e+00	2.521178523e-01	-2.463486456e-02	1.407883619e-13
3.160000000e+00	2.518165885e-01	-2.468258245e-02	3.632041642e-14
3.170000000e+00	2.515164014e-01	-2.473031574e-02	6.757202593e-13
3.180000000e+00	2.512172845e-01	-2.477806443e-02	8.948177184e-14
3.190000000e+00	2.509192316e-01	-2.482582856e-02	1.591960715e-13
3.200000000e+00	2.506222363e-01	-2.487360817e-02	1.112175301e-13
3.210000000e+00	2.503262923e-01	-2.492140327e-02	7.836633300e-14
3.220000000e+00	2.500313936e-01	-2.496921389e-02	1.137085197e-13
3.230000000e+00	2.497375339e-01	-2.501704006e-02	1.447351051e-13
3.240000000e+00	2.494447073e-01	-2.506488181e-02	2.462433623e-13
3.250000000e+00	2.491529076e-01	-2.511273916e-02	1.747016980e-13
3.260000000e+00	2.488621288e-01	-2.516061215e-02	2.628111539e-13
3.270000000e+00	2.485723651e-01	-2.520850079e-02	3.763888571e-13
3.280000000e+00	2.482836105e-01	-2.525640511e-02	1.810807448e-13
3.290000000e+00	2.479958593e-01	-2.530432515e-02	1.606205353e-13
3.300000000e+00	2.477091055e-01	-2.535226091e-02	1.171857100e-13
3.310000000e+00	2.474233435e-01	-2.540021244e-02	5.662137426e-14
3.320000000e+00	2.471385676e-01	-2.544817975e-02	9.315108604e-14
3.330000000e+00	2.468547721e-01	-2.549616287e-02	1.505462421e-13
3.340000000e+00	2.465719514e-01	-2.554416183e-02	2.776069105e-13
3.350000000e+00	2.462900999e-01	-2.559217664e-02	1.735843551e-13
3.360000000e+00	2.460092122e-01	-2.564020733e-02	1.435947198e-13
3.370000000e+00	2.457292827e-01	-2.568825394e-02	6.450309783e-14
3.380000000e+00	2.454503060e-01	-2.573631647e-02	1.095814309e-13
3.390000000e+00	2.451722767e-01	-2.578439495e-02	2.810298838e-13
3.400000000e+00	2.448951895e-01	-2.583248942e-02	1.285668942e-13
3.410000000e+00	2.446190391e-01	-2.588059988e-02	1.025374963e-13
3.420000000e+00	2.443438201e-01	-2.592872636e-02	1.816841903e-13
3.430000000e+00	2.440695275e-01	-2.597686890e-02	8.390847921e-14
3.440000000e+00	2.437961559e-01	-2.602502750e-02	1.994520530e-13
3.450000000e+00	2.435237003e-01	-2.607320219e-02	3.070583863e-13
3.460000000e+00	2.432521556e-01	-2.612139299e-02	1.509408530e-13
3.470000000e+00	2.429815167e-01	-2.616959993e-02	1.108856609e-13
3.480000000e+00	2.427117785e-01	-2.621782302e-02	1.001723911e-13
3.490000000e+00	2.424429361e-01	-2.626606229e-02	1.394440119e-13
3.500000000e+00	2.421749846e-01	-2.631431776e-02	3.449061097e-14
3.510000000e+00	2.419079191e-01	-2.636258945e-02	1.076916334e-13
3.520000000e+00	2.416417346e-01	-2.641087739e-02	1.904562925e-13
3.530000000e+00	2.413764263e-01	-2.645918158e-02	1.280949134e-13
3.540000000e+00	2.411119895e-01	-2.650750206e-02	5.347542222e-14
3.550000000e+00	2.408484194e-01	-2.655583883e-02	1.848863706e-13
3.560000000e+00	2.405857113e-01	-2.660419194e-02	1.067849881e-13
3.570000000e+00	2.403238604e-01	-2.665256138e-02	7.105427358e-14
3.580000000e+00	2.400628622e-01	-2.670094719e-02	1.333569655e-13
3.590000000e+00	2.398027120e-01	-2.674934937e-02	1.813843494e-13
3.600000000e+00	2.395434053e-01	-2.679776796e-02	4.677640892e-13
3.610000000e+00	2.392849374e-01	-2.684620298e-02	2.176241037e-13
3.620000000e+00	2.390273039e-01	-2.689465443e-02	8.237854843e-14
3.630000000e+00	2.387705004e-01	-2.694312234e-02	1.779497382e-13
3.640000000e+00	2.385145223e-01	-2.699160673e-02	1.330993965e-13
3.650000000e+00	2.382593652e-01	-2.704010761e-02	4.929390229e-14
3.660000000e+00	2.380050249e-01	-2.708862501e-02	8.775566860e-14
3.670000000e+00	2.377514968e-01	-2.713715894e-02	1.731019637e-13
3.680000000e+00	2.374987768e-01	-2.718570943e-02	1.101663516e-13
3.690000000e+00	2.372468605e-01	-2.723427648e-02	2.318064853e-13
3.700000000e+00	2.369957437e-01	-2.728286012e-02	1.118454787e-13
3.710000000e+00	2.367454222e-01	-2.733146036e-02	6.020030151e-14
3.720000000e+00	2.364958917e-01	-2.738007723e-02	5.502160022e-13
3.730000000e+00	2.362471482e-01	-2.742871073e-02	2.060808407e-13
3.740000000e+00	2.359991875e-01	-2.747736089e-02	6.084022175e-14
3.750000000e+00	2.357520055e-01	-2.752602773e-02	9.740952820e-14
3.760000000e+00	2.355055982e-01	-2.757471125e-02	9.610633284e-14
3.770000000e+00	2.352599614e-01	-2.762341148e-02	4.530199718e-14
3.780000000e+00	2.350150913e-01	-2.767212843e-02	2.255501073e-13
3.790000000e+00	2.347709838e-01	-2.772086213e-02	2.777778008e-13
3.800000000e+00	2.345276349e-01	-2.776961258e-02	1.059841485e-13
3.810000000e+00	2.342850408e-01	-2.781837980e-02	8.527553600e-14
3.820000000e+00	2.340431976e-01	-2.786716380e-02	2.012729932e-13
3.830000000e+00	2.338021014e-01	-2.791596461e-02	8.995739203e-14
3.840000000e+00	2.335617483e-01	-2.796478224e-02	9.099386826e-14
3.850000000e+00	2.333221346e-01	-2.801361671e-02	4.694106976e-13
3.860000000e+00	2.330832565e-01	-2.806246802e-02	3.098724548e-13
3.870000000e+00	2.328451102e-01	-2.811133620e-02	1.231691251e-13
3.880000000e+00	2.326076920e-01	-2.816022126e-02	2.212260831e-13
3.890000000e+00	2.323709982e-01	-2.820912322e-02	7.914262813e-14
3.900000000e+00	2.321350251e-01	-2.825804208e-02	8.920004655e-14
3.910000000e+00	2.318997691e-01	-2.830697787e-02	7.878579400e-14
3.920000000e+00	2.316652265e-01	-2.835593060e-02	3.308130785e-13
3.930000000e+00	2.314313938e-01	-2.840490028e-02	1.425590347e-13
3.940000000e+00	2.311982673e-01	-2.845388692e-02	3.046621098e-13
3.950000000e+00	2.309658436e-01	-2.850289055e-02	1.245232796e-13
3.960000000e+00	2.307341192e-01	-2.855191118e-02	3.003724346e-13
3.970000000e+00	2.305030904e-01	-2.860094881e-02	1.628120016e-13
3.980000000e+00	2.302727538e-01	-2.865000347e-02	1.357903974e-13
3.990000000e+00	2.300431061e-01	-2.869907516e-02	3.784578820e-13
4.000000000e+00	2.298141437e-01	-2.874816391e-02	6.433663399e-14
4.010000000e+00	2.295858633e-01	-2.879726971e-02	1.316604680e-13
4.020000000e+00	2.293582615e-01	-2.884639260e-02	1.851186284e-13
4.030000000e+00	2.291313349e-01	-2.889553257e-02	1.443079828e-13
4.040000000e+00	2.289050803e-01	-2.894468964e-02	7.283198433e-14
