# Ep [eV]     Omega/c [1/micrones]    Im(epsi1)     Eq(det).Opt det SIN kz nano,R = 0.5 $\mu$m, $\mu_c$ = 0.3 eV, modo = 2, $\epsilon_\infty$ = 4.9, $\gamma_{DL}$ = 0.01 eV, solve_det_sinkz_vs_Ep.py
0.000000000e+00	1.728751441e-01	-3.263931396e-02	1.831026719e-14
1.000000000e-04	1.728752596e-01	-3.264158496e-02	2.842951461e-14
2.000000000e-04	1.728756060e-01	-3.264839791e-02	1.598875346e-14
3.000000000e-04	1.728761833e-01	-3.265975265e-02	2.844338521e-14
4.000000000e-04	1.728769916e-01	-3.267564893e-02	1.502702346e-14
5.000000000e-04	1.728780308e-01	-3.269608638e-02	1.978565703e-14
6.000000000e-04	1.728793009e-01	-3.272106453e-02	1.750072131e-14
7.000000000e-04	1.728808019e-01	-3.275058281e-02	3.774758284e-15
8.000000000e-04	1.728825338e-01	-3.278464055e-02	1.429560346e-14
9.000000000e-04	1.728844967e-01	-3.282323696e-02	1.641478915e-14
1.000000000e-03	1.728866904e-01	-3.286637116e-02	2.442490654e-15
1.100000000e-03	1.728891151e-01	-3.291404217e-02	0.000000000e+00
1.200000000e-03	1.728917706e-01	-3.296624890e-02	5.709267256e-14
1.300000000e-03	1.728946571e-01	-3.302299014e-02	2.845291732e-14
1.400000000e-03	1.728977744e-01	-3.308426461e-02	1.454688756e-14
1.500000000e-03	1.729011226e-01	-3.315007089e-02	1.510066573e-14
1.600000000e-03	1.729047016e-01	-3.322040750e-02	3.067753347e-14
1.700000000e-03	1.729085115e-01	-3.329527281e-02	2.852646714e-14
1.800000000e-03	1.729125522e-01	-3.337466511e-02	1.425415683e-14
1.900000000e-03	1.729168238e-01	-3.345858260e-02	8.881784197e-16
2.000000000e-03	1.729213262e-01	-3.354702334e-02	8.659739592e-15
2.100000000e-03	1.729260593e-01	-3.363998533e-02	1.432144669e-14
2.200000000e-03	1.729310233e-01	-3.373746643e-02	1.998401444e-15
2.300000000e-03	1.729362181e-01	-3.383946442e-02	7.549516567e-15
2.400000000e-03	1.729416436e-01	-3.394597696e-02	4.267937598e-14
2.500000000e-03	1.729472998e-01	-3.405700163e-02	6.661338148e-16
2.600000000e-03	1.729531868e-01	-3.417253589e-02	3.067753347e-14
2.700000000e-03	1.729593045e-01	-3.429257710e-02	2.847716648e-14
2.800000000e-03	1.729656529e-01	-3.441712252e-02	2.873312098e-14
2.900000000e-03	1.729722320e-01	-3.454616930e-02	1.421258933e-14
3.000000000e-03	1.729790418e-01	-3.467971451e-02	1.699765591e-14
3.100000000e-03	1.729860822e-01	-3.481775509e-02	1.332267630e-15
3.200000000e-03	1.729933532e-01	-3.496028789e-02	7.160723346e-14
3.300000000e-03	1.730008548e-01	-3.510730967e-02	2.909377513e-14
3.400000000e-03	1.730085871e-01	-3.525881707e-02	1.445849715e-14
3.500000000e-03	1.730165498e-01	-3.541480663e-02	1.776356839e-15
3.600000000e-03	1.730247432e-01	-3.557527481e-02	1.422645866e-14
3.700000000e-03	1.730331670e-01	-3.574021795e-02	1.641478915e-14
3.800000000e-03	1.730418214e-01	-3.590963228e-02	3.552713679e-15
3.900000000e-03	1.730507062e-01	-3.608351395e-02	1.132427485e-14
4.000000000e-03	1.730598214e-01	-3.626185901e-02	4.263487705e-14
4.100000000e-03	1.730691671e-01	-3.644466338e-02	4.267937598e-14
4.200000000e-03	1.730787432e-01	-3.663192292e-02	3.108624469e-15
4.300000000e-03	1.730885497e-01	-3.682363337e-02	1.502702346e-14
4.400000000e-03	1.730985865e-01	-3.701979035e-02	2.842170943e-14
4.500000000e-03	1.731088536e-01	-3.722038942e-02	7.105427358e-15
4.600000000e-03	1.731193510e-01	-3.742542601e-02	1.421779192e-14
4.700000000e-03	1.731300787e-01	-3.763489547e-02	4.662936703e-15
4.800000000e-03	1.731410366e-01	-3.784879304e-02	4.354792321e-14
4.900000000e-03	1.731522247e-01	-3.806711386e-02	0.000000000e+00
5.000000000e-03	1.731636430e-01	-3.828985297e-02	2.842257678e-14
5.100000000e-03	1.731752914e-01	-3.851700533e-02	2.843558383e-14
5.200000000e-03	1.731871699e-01	-3.874856578e-02	2.842257678e-14
5.300000000e-03	1.731992785e-01	-3.898452908e-02	3.067753347e-14
5.400000000e-03	1.732116171e-01	-3.922488986e-02	1.450105979e-14
5.500000000e-03	1.732241858e-01	-3.946964270e-02	2.842170943e-14
5.600000000e-03	1.732369844e-01	-3.971878204e-02	1.533876674e-14
5.700000000e-03	1.732500129e-01	-3.997230225e-02	4.264181500e-14
5.800000000e-03	1.732632714e-01	-4.023019758e-02	4.278033777e-14
5.900000000e-03	1.732767597e-01	-4.049246222e-02	1.421085472e-14
6.000000000e-03	1.732904778e-01	-4.075909021e-02	1.737206378e-14
6.100000000e-03	1.733044258e-01	-4.103007555e-02	1.569464296e-14
6.200000000e-03	1.733186035e-01	-4.130541211e-02	1.432144669e-14
6.300000000e-03	1.733330109e-01	-4.158509367e-02	1.427316814e-14
6.400000000e-03	1.733476479e-01	-4.186911392e-02	5.107025913e-15
6.500000000e-03	1.733625147e-01	-4.215746645e-02	1.021405183e-14
6.600000000e-03	1.733776110e-01	-4.245014477e-02	4.440892099e-15
6.700000000e-03	1.733929368e-01	-4.274714226e-02	2.909377513e-14
6.800000000e-03	1.734084922e-01	-4.304845225e-02	1.699765591e-14
6.900000000e-03	1.734242770e-01	-4.335406795e-02	5.773159728e-15
7.000000000e-03	1.734402912e-01	-4.366398248e-02	4.074987369e-14
7.100000000e-03	1.734565349e-01	-4.397818886e-02	8.215650382e-15
7.200000000e-03	1.734730078e-01	-4.429668004e-02	1.495631540e-14
7.300000000e-03	1.734897101e-01	-4.461944886e-02	2.924336720e-14
7.400000000e-03	1.735066416e-01	-4.494648806e-02	1.421258933e-14
7.500000000e-03	1.735238023e-01	-4.527779031e-02	1.470364553e-14
7.600000000e-03	1.735411921e-01	-4.561334817e-02	2.850831366e-14
7.700000000e-03	1.735588111e-01	-4.595315412e-02	3.059465260e-14
7.800000000e-03	1.735766591e-01	-4.629720055e-02	1.423858324e-14
7.900000000e-03	1.735947361e-01	-4.664547973e-02	3.399531183e-14
8.000000000e-03	1.736130421e-01	-4.699798389e-02	1.445849715e-14
8.100000000e-03	1.736315769e-01	-4.735470513e-02	2.867128122e-14
8.200000000e-03	1.736503407e-01	-4.771563547e-02	2.842517867e-14
8.300000000e-03	1.736693332e-01	-4.808076686e-02	2.220446049e-15
8.400000000e-03	1.736885545e-01	-4.845009113e-02	1.441922856e-14
8.500000000e-03	1.737080044e-01	-4.882360003e-02	8.881784197e-16
8.600000000e-03	1.737276831e-01	-4.920128525e-02	4.278033777e-14
8.700000000e-03	1.737475903e-01	-4.958313835e-02	1.110223025e-15
8.800000000e-03	1.737677260e-01	-4.996915084e-02	4.440892099e-16
8.900000000e-03	1.737880903e-01	-5.035931410e-02	1.432144669e-14
9.000000000e-03	1.738086829e-01	-5.075361948e-02	1.332267630e-15
9.100000000e-03	1.738295039e-01	-5.115205818e-02	2.220446049e-16
9.200000000e-03	1.738505533e-01	-5.155462137e-02	3.035439898e-14
9.300000000e-03	1.738718309e-01	-5.196130009e-02	1.776356839e-14
9.400000000e-03	1.738933367e-01	-5.237208533e-02	8.659739592e-15
9.500000000e-03	1.739150706e-01	-5.278696797e-02	1.427316814e-14
9.600000000e-03	1.739370326e-01	-5.320593882e-02	1.709743458e-14
9.700000000e-03	1.739592226e-01	-5.362898860e-02	2.845291732e-14
9.800000000e-03	1.739816406e-01	-5.405610794e-02	5.329070518e-15
9.900000000e-03	1.740042864e-01	-5.448728740e-02	1.652704113e-14
1.000000000e-02	1.740271602e-01	-5.492251744e-02	2.847716648e-14
1.010000000e-02	1.740502616e-01	-5.536178847e-02	1.763123650e-14
1.020000000e-02	1.740735908e-01	-5.580509077e-02	6.661338148e-16
1.030000000e-02	1.740971476e-01	-5.625241458e-02	4.395417683e-14
1.040000000e-02	1.741209320e-01	-5.670375003e-02	2.220446049e-16
1.050000000e-02	1.741449440e-01	-5.715908719e-02	6.217248938e-15
1.060000000e-02	1.741691833e-01	-5.761841604e-02	8.881784197e-16
1.070000000e-02	1.741936501e-01	-5.808172648e-02	2.852646714e-14
1.080000000e-02	1.742183441e-01	-5.854900833e-02	1.421085472e-14
1.090000000e-02	1.742432655e-01	-5.902025133e-02	1.554312234e-15
1.100000000e-02	1.742684139e-01	-5.949544515e-02	4.284080064e-14
1.110000000e-02	1.742937895e-01	-5.997457936e-02	2.845291732e-14
1.120000000e-02	1.743193922e-01	-6.045764348e-02	1.789767670e-14
1.130000000e-02	1.743452218e-01	-6.094462693e-02	1.450105979e-14
1.140000000e-02	1.743712783e-01	-6.143551906e-02	4.264181500e-14
1.150000000e-02	1.743975616e-01	-6.193030916e-02	3.996802889e-15
1.160000000e-02	1.744240717e-01	-6.242898641e-02	1.438328100e-14
1.170000000e-02	1.744508085e-01	-6.293153995e-02	1.510066573e-14
1.180000000e-02	1.744777719e-01	-6.343795882e-02	2.843558383e-14
1.190000000e-02	1.745049618e-01	-6.394823199e-02	1.902988332e-14
1.200000000e-02	1.745323782e-01	-6.446234836e-02	2.852646714e-14
1.210000000e-02	1.745600210e-01	-6.498029676e-02	0.000000000e+00
1.220000000e-02	1.745878901e-01	-6.550206594e-02	1.470364553e-14
1.230000000e-02	1.746159854e-01	-6.602764458e-02	7.549516567e-15
1.240000000e-02	1.746443069e-01	-6.655702127e-02	2.929642751e-14
1.250000000e-02	1.746728545e-01	-6.709018457e-02	1.429560346e-14
1.260000000e-02	1.747016281e-01	-6.762712292e-02	1.438328100e-14
1.270000000e-02	1.747306276e-01	-6.816782472e-02	8.881784197e-16
1.280000000e-02	1.747598529e-01	-6.871227829e-02	9.325873407e-15
1.290000000e-02	1.747893040e-01	-6.926047189e-02	1.776356839e-15
1.300000000e-02	1.748189808e-01	-6.981239368e-02	1.917827930e-14
1.310000000e-02	1.748488832e-01	-7.036803179e-02	4.440892099e-16
1.320000000e-02	1.748790112e-01	-7.092737426e-02	1.554312234e-15
1.330000000e-02	1.749093645e-01	-7.149040905e-02	2.842170943e-14
1.340000000e-02	1.749399433e-01	-7.205712409e-02	2.020605905e-14
1.350000000e-02	1.749707473e-01	-7.262750720e-02	2.844338521e-14
1.360000000e-02	1.750017765e-01	-7.320154616e-02	1.776356839e-14
1.370000000e-02	1.750330308e-01	-7.377922869e-02	1.517719949e-14
1.380000000e-02	1.750645101e-01	-7.436054241e-02	3.108624469e-15
1.390000000e-02	1.750962143e-01	-7.494547491e-02	1.454688756e-14
1.400000000e-02	1.751281434e-01	-7.553401370e-02	2.852646714e-14
1.410000000e-02	1.751602973e-01	-7.612614622e-02	3.996802889e-15
1.420000000e-02	1.751926758e-01	-7.672185986e-02	1.998401444e-15
1.430000000e-02	1.752252790e-01	-7.732114194e-02	1.422645866e-14
1.440000000e-02	1.752581066e-01	-7.792397972e-02	3.035439898e-14
1.450000000e-02	1.752911586e-01	-7.853036039e-02	1.619708476e-14
1.460000000e-02	1.753244349e-01	-7.914027109e-02	2.880167609e-14
1.470000000e-02	1.753579355e-01	-7.975369889e-02	4.267937598e-14
1.480000000e-02	1.753916602e-01	-8.037063080e-02	2.220446049e-16
1.490000000e-02	1.754256090e-01	-8.099105378e-02	1.554312234e-15
1.500000000e-02	1.754597817e-01	-8.161495471e-02	2.867128122e-14
1.510000000e-02	1.754941782e-01	-8.224232043e-02	1.438328100e-14
1.520000000e-02	1.755287985e-01	-8.287313772e-02	1.551136925e-14
1.530000000e-02	1.755636425e-01	-8.350739330e-02	1.569464296e-14
1.540000000e-02	1.755987101e-01	-8.414507382e-02	1.043609643e-14
1.550000000e-02	1.756340011e-01	-8.478616588e-02	0.000000000e+00
1.560000000e-02	1.756695155e-01	-8.543065604e-02	2.887689874e-14
1.570000000e-02	1.757052532e-01	-8.607853078e-02	4.276247049e-14
1.580000000e-02	1.757412141e-01	-8.672977654e-02	2.847716648e-14
1.590000000e-02	1.757773981e-01	-8.738437971e-02	1.554312234e-15
1.600000000e-02	1.758138051e-01	-8.804232660e-02	1.641478915e-14
1.610000000e-02	1.758504350e-01	-8.870360348e-02	1.789767670e-14
1.620000000e-02	1.758872877e-01	-8.936819659e-02	3.418044764e-14
1.630000000e-02	1.759243630e-01	-9.003609209e-02	1.525658123e-14
1.640000000e-02	1.759616610e-01	-9.070727608e-02	1.998401444e-15
1.650000000e-02	1.759991814e-01	-9.138173464e-02	2.909377513e-14
1.660000000e-02	1.760369243e-01	-9.205945378e-02	1.464821376e-14
1.670000000e-02	1.760748894e-01	-9.274041945e-02	2.876656200e-14
1.680000000e-02	1.761130767e-01	-9.342461758e-02	2.844338521e-14
1.690000000e-02	1.761514861e-01	-9.411203402e-02	1.110223025e-15
1.700000000e-02	1.761901175e-01	-9.480265459e-02	2.914203267e-14
1.710000000e-02	1.762289707e-01	-9.549646505e-02	2.842170943e-14
1.720000000e-02	1.762680457e-01	-9.619345112e-02	4.314984301e-14
1.730000000e-02	1.763073424e-01	-9.689359848e-02	2.842257678e-14
1.740000000e-02	1.763468606e-01	-9.759689274e-02	1.287858709e-14
1.750000000e-02	1.763866003e-01	-9.830331948e-02	1.427316814e-14
1.760000000e-02	1.764265613e-01	-9.901286424e-02	2.886579864e-15
1.770000000e-02	1.764667435e-01	-9.972551251e-02	7.327471963e-15
1.780000000e-02	1.765071469e-01	-1.004412497e-01	2.924336720e-14
1.790000000e-02	1.765477712e-01	-1.011600613e-01	1.579016624e-14
1.800000000e-02	1.765886165e-01	-1.018819326e-01	2.849187911e-14
1.810000000e-02	1.766296825e-01	-1.026068488e-01	4.264181500e-14
1.820000000e-02	1.766709693e-01	-1.033347954e-01	2.870135886e-14
1.830000000e-02	1.767124766e-01	-1.040657575e-01	1.579016624e-14
1.840000000e-02	1.767542043e-01	-1.047997203e-01	6.661338148e-16
1.850000000e-02	1.767961524e-01	-1.055366690e-01	6.661338148e-16
1.860000000e-02	1.768383208e-01	-1.062765886e-01	1.432144669e-14
1.870000000e-02	1.768807092e-01	-1.070194642e-01	1.421779192e-14
1.880000000e-02	1.769233177e-01	-1.077652809e-01	1.865174681e-14
1.890000000e-02	1.769661460e-01	-1.085140237e-01	3.574918139e-14
1.900000000e-02	1.770091941e-01	-1.092656775e-01	1.470364553e-14
1.910000000e-02	1.770524618e-01	-1.100202272e-01	2.846417843e-14
1.920000000e-02	1.770959491e-01	-1.107776577e-01	3.020133146e-14
1.930000000e-02	1.771396558e-01	-1.115379539e-01	2.845291732e-14
1.940000000e-02	1.771835818e-01	-1.123011005e-01	1.110223025e-15
1.950000000e-02	1.772277270e-01	-1.130670823e-01	2.220446049e-16
1.960000000e-02	1.772720913e-01	-1.138358842e-01	1.422645866e-14
1.970000000e-02	1.773166744e-01	-1.146074907e-01	1.441922856e-14
1.980000000e-02	1.773614765e-01	-1.153818865e-01	1.470364553e-14
1.990000000e-02	1.774064972e-01	-1.161590564e-01	1.554312234e-15
2.000000000e-02	1.774517365e-01	-1.169389849e-01	4.158344748e-14
2.010000000e-02	1.774971942e-01	-1.177216565e-01	4.440892099e-16
2.020000000e-02	1.775428703e-01	-1.185070559e-01	0.000000000e+00
2.030000000e-02	1.775887646e-01	-1.192951675e-01	5.708619538e-14
2.040000000e-02	1.776348770e-01	-1.200859758e-01	1.675811691e-14
2.050000000e-02	1.776812073e-01	-1.208794653e-01	5.329070518e-14
2.060000000e-02	1.777277555e-01	-1.216756204e-01	1.421258933e-14
2.070000000e-02	1.777745214e-01	-1.224744256e-01	1.425415683e-14
2.080000000e-02	1.778215049e-01	-1.232758651e-01	5.684385254e-14
2.090000000e-02	1.778687058e-01	-1.240799233e-01	2.257550550e-14
2.100000000e-02	1.779161241e-01	-1.248865846e-01	1.502702346e-14
2.110000000e-02	1.779637596e-01	-1.256958332e-01	2.847716648e-14
2.120000000e-02	1.780116122e-01	-1.265076534e-01	2.842257678e-14
2.130000000e-02	1.780596817e-01	-1.273220295e-01	1.421258933e-14
2.140000000e-02	1.781079680e-01	-1.281389456e-01	2.847716648e-14
2.150000000e-02	1.781564711e-01	-1.289583860e-01	1.438328100e-14
2.160000000e-02	1.782051907e-01	-1.297803348e-01	8.437694987e-15
2.170000000e-02	1.782541267e-01	-1.306047762e-01	4.440892099e-15
2.180000000e-02	1.783032790e-01	-1.314316943e-01	1.425415683e-14
2.190000000e-02	1.783526475e-01	-1.322610733e-01	2.883845712e-14
2.200000000e-02	1.784022320e-01	-1.330928971e-01	0.000000000e+00
2.210000000e-02	1.784520324e-01	-1.339271499e-01	2.442490654e-15
2.220000000e-02	1.785020486e-01	-1.347638156e-01	4.440892099e-16
2.230000000e-02	1.785522804e-01	-1.356028784e-01	1.425415683e-14
2.240000000e-02	1.786027277e-01	-1.364443223e-01	1.435067943e-14
2.250000000e-02	1.786533904e-01	-1.372881311e-01	1.789767670e-14
2.260000000e-02	1.787042683e-01	-1.381342890e-01	3.330669074e-15
2.270000000e-02	1.787553613e-01	-1.389827798e-01	7.105427358e-15
2.280000000e-02	1.788066693e-01	-1.398335875e-01	1.432144669e-14
2.290000000e-02	1.788581921e-01	-1.406866960e-01	3.035439898e-14
2.300000000e-02	1.789099295e-01	-1.415420892e-01	1.332267630e-15
2.310000000e-02	1.789618815e-01	-1.423997511e-01	1.482386812e-14
2.320000000e-02	1.790140479e-01	-1.432596654e-01	0.000000000e+00
2.330000000e-02	1.790664286e-01	-1.441218160e-01	6.439293543e-15
2.340000000e-02	1.791190234e-01	-1.449861869e-01	7.771561172e-15
2.350000000e-02	1.791718322e-01	-1.458527617e-01	0.000000000e+00
2.360000000e-02	1.792248548e-01	-1.467215245e-01	1.423858324e-14
2.370000000e-02	1.792780911e-01	-1.475924589e-01	1.425415683e-14
2.380000000e-02	1.793315409e-01	-1.484655488e-01	3.411764308e-14
2.390000000e-02	1.793852042e-01	-1.493407779e-01	1.533876674e-14
2.400000000e-02	1.794390808e-01	-1.502181301e-01	4.302167941e-14
2.410000000e-02	1.794931705e-01	-1.510975891e-01	1.421779192e-14
2.420000000e-02	1.795474732e-01	-1.519791387e-01	1.425415683e-14
2.430000000e-02	1.796019887e-01	-1.528627627e-01	1.432144669e-14
2.440000000e-02	1.796567169e-01	-1.537484447e-01	1.110223025e-15
2.450000000e-02	1.797116576e-01	-1.546361685e-01	2.122472334e-14
2.460000000e-02	1.797668108e-01	-1.555259179e-01	2.664535259e-15
2.470000000e-02	1.798221762e-01	-1.564176766e-01	6.661338148e-16
2.480000000e-02	1.798777538e-01	-1.573114284e-01	0.000000000e+00
2.490000000e-02	1.799335432e-01	-1.582071568e-01	2.859120692e-14
2.500000000e-02	1.799895446e-01	-1.591048457e-01	1.450105979e-14
2.510000000e-02	1.800457575e-01	-1.600044787e-01	2.220446049e-16
2.520000000e-02	1.801021820e-01	-1.609060396e-01	2.042810365e-14
2.530000000e-02	1.801588179e-01	-1.618095120e-01	2.842951461e-14
2.540000000e-02	1.802156649e-01	-1.627148797e-01	2.847716648e-14
2.550000000e-02	1.802727231e-01	-1.636221263e-01	2.220446049e-16
2.560000000e-02	1.803299921e-01	-1.645312355e-01	6.883382753e-15
2.570000000e-02	1.803874719e-01	-1.654421911e-01	1.488858336e-14
2.580000000e-02	1.804451624e-01	-1.663549768e-01	7.549516567e-15
2.590000000e-02	1.805030633e-01	-1.672695761e-01	1.423858324e-14
2.600000000e-02	1.805611744e-01	-1.681859728e-01	3.308464613e-14
2.610000000e-02	1.806194958e-01	-1.691041507e-01	1.712048861e-14
2.620000000e-02	1.806780271e-01	-1.700240934e-01	1.699765591e-14
2.630000000e-02	1.807367683e-01	-1.709457845e-01	8.437694987e-15
2.640000000e-02	1.807957192e-01	-1.718692079e-01	6.661338148e-16
2.650000000e-02	1.808548796e-01	-1.727943471e-01	1.438328100e-14
2.660000000e-02	1.809142493e-01	-1.737211860e-01	1.432144669e-14
2.670000000e-02	1.809738283e-01	-1.746497082e-01	1.421258933e-14
2.680000000e-02	1.810336164e-01	-1.755798974e-01	1.495631540e-14
2.690000000e-02	1.810936133e-01	-1.765117374e-01	1.441922856e-14
2.700000000e-02	1.811538191e-01	-1.774452119e-01	2.843558383e-14
2.710000000e-02	1.812142333e-01	-1.783803046e-01	3.552713679e-15
2.720000000e-02	1.812748561e-01	-1.793169993e-01	1.110223025e-15
2.730000000e-02	1.813356871e-01	-1.802552796e-01	3.996802889e-15
2.740000000e-02	1.813967262e-01	-1.811951294e-01	1.845109169e-14
2.750000000e-02	1.814579732e-01	-1.821365324e-01	5.404083988e-14
2.760000000e-02	1.815194280e-01	-1.830794724e-01	8.881784197e-16
2.770000000e-02	1.815810905e-01	-1.840239331e-01	1.776356839e-14
2.780000000e-02	1.816429604e-01	-1.849698984e-01	2.847716648e-14
2.790000000e-02	1.817050377e-01	-1.859173521e-01	1.421085472e-14
2.800000000e-02	1.817673220e-01	-1.868662778e-01	6.883382753e-15
2.810000000e-02	1.818298134e-01	-1.878166596e-01	0.000000000e+00
2.820000000e-02	1.818925116e-01	-1.887684811e-01	9.992007222e-16
2.830000000e-02	1.819554164e-01	-1.897217263e-01	1.110223025e-16
2.840000000e-02	1.820185277e-01	-1.906763790e-01	1.485584613e-14
2.850000000e-02	1.820818453e-01	-1.916324230e-01	5.218048216e-15
2.860000000e-02	1.821453691e-01	-1.925898422e-01	2.331468352e-15
2.870000000e-02	1.822090988e-01	-1.935486206e-01	1.422645866e-14
2.880000000e-02	1.822730344e-01	-1.945087419e-01	2.843926808e-14
2.890000000e-02	1.823371756e-01	-1.954701903e-01	1.525658123e-14
2.900000000e-02	1.824015223e-01	-1.964329495e-01	1.110223025e-16
2.910000000e-02	1.824660744e-01	-1.973970035e-01	1.532107774e-14
2.920000000e-02	1.825308316e-01	-1.983623364e-01	1.421128839e-14
2.930000000e-02	1.825957937e-01	-1.993289320e-01	1.423208921e-14
2.940000000e-02	1.826609607e-01	-2.002967744e-01	1.970856956e-14
2.950000000e-02	1.827263324e-01	-2.012658476e-01	1.429560346e-14
2.960000000e-02	1.827919085e-01	-2.022361356e-01	1.423858324e-14
2.970000000e-02	1.828576889e-01	-2.032076225e-01	2.775557562e-15
2.980000000e-02	1.829236734e-01	-2.041802923e-01	3.219646771e-15
2.990000000e-02	1.829898619e-01	-2.051541291e-01	8.770761895e-15
3.000000000e-02	1.830562542e-01	-2.061291171e-01	2.842170943e-14
3.010000000e-02	1.831228501e-01	-2.071052404e-01	1.464821376e-14
3.020000000e-02	1.831896495e-01	-2.080824831e-01	2.998260004e-14
3.030000000e-02	1.832566521e-01	-2.090608293e-01	3.885780586e-15
