# Re(epsi1)     Omega/c [1/micrones]    Im(epsi1)     Eq(det).Opt det SIN kz, mu = 0.6 eV, R = 0.5 micrones, solve_det_sinkz_vs_re_epsi1.py
1.000000000e+00	4.185965932e-01	-6.018333764e-03	6.369582205e-12
1.010000000e+00	4.175669963e-01	-6.039809866e-03	5.982619907e-12
1.020000000e+00	4.165448811e-01	-6.061368520e-03	5.394048745e-12
1.030000000e+00	4.155301585e-01	-6.083008681e-03	8.504793104e-12
1.040000000e+00	4.145227408e-01	-6.104729314e-03	3.463058153e-12
1.050000000e+00	4.135225417e-01	-6.126529427e-03	1.546863234e-11
1.060000000e+00	4.125294762e-01	-6.148408055e-03	1.541196781e-11
1.070000000e+00	4.115434607e-01	-6.170364244e-03	6.393668258e-12
1.080000000e+00	4.105644133e-01	-6.192397041e-03	5.946852736e-12
1.090000000e+00	4.095922528e-01	-6.214505563e-03	8.586336084e-12
1.100000000e+00	4.086268999e-01	-6.236688893e-03	7.252281559e-12
1.110000000e+00	4.076682762e-01	-6.258946187e-03	6.315152118e-12
1.120000000e+00	4.067163046e-01	-6.281276585e-03	1.845443098e-11
1.130000000e+00	4.057709093e-01	-6.303679265e-03	5.138593371e-12
1.140000000e+00	4.048320157e-01	-6.326153401e-03	8.537416560e-12
1.150000000e+00	4.038995502e-01	-6.348698210e-03	5.883683966e-12
1.160000000e+00	4.029734406e-01	-6.371312912e-03	3.960524220e-12
1.170000000e+00	4.020536157e-01	-6.393996748e-03	4.428542270e-12
1.180000000e+00	4.011400052e-01	-6.416748975e-03	6.893180054e-12
1.190000000e+00	4.002325403e-01	-6.439568876e-03	9.326996294e-12
1.200000000e+00	3.993311529e-01	-6.462455724e-03	1.143102214e-11
1.210000000e+00	3.984357761e-01	-6.485408839e-03	1.137825269e-11
1.220000000e+00	3.975463440e-01	-6.508427546e-03	1.760853994e-11
1.230000000e+00	3.966627916e-01	-6.531511149e-03	6.911837996e-12
1.240000000e+00	3.957850551e-01	-6.554659029e-03	9.326090244e-12
1.250000000e+00	3.949130715e-01	-6.577870527e-03	8.516639908e-12
1.260000000e+00	3.940467787e-01	-6.601145034e-03	1.112637263e-11
1.270000000e+00	3.931861156e-01	-6.624481928e-03	1.233506055e-11
1.280000000e+00	3.923310220e-01	-6.647880620e-03	9.888973752e-12
1.290000000e+00	3.914814386e-01	-6.671340511e-03	6.224315075e-12
1.300000000e+00	3.906373070e-01	-6.694861040e-03	7.027872094e-12
1.310000000e+00	3.897985695e-01	-6.718441635e-03	5.977699938e-12
1.320000000e+00	3.889651695e-01	-6.742081751e-03	8.047768260e-12
1.330000000e+00	3.881370510e-01	-6.765780850e-03	7.061704822e-12
1.340000000e+00	3.873141589e-01	-6.789538392e-03	1.187752608e-11
1.350000000e+00	3.864964389e-01	-6.813353875e-03	7.780054077e-12
1.360000000e+00	3.856838374e-01	-6.837226786e-03	5.176931425e-12
1.370000000e+00	3.848763018e-01	-6.861156621e-03	4.059917234e-12
1.380000000e+00	3.840737800e-01	-6.885142898e-03	5.091901923e-12
1.390000000e+00	3.832762206e-01	-6.909185142e-03	5.793482462e-12
1.400000000e+00	3.824835732e-01	-6.933282878e-03	8.163659476e-12
1.410000000e+00	3.816957880e-01	-6.957435642e-03	1.180692049e-11
1.420000000e+00	3.809128157e-01	-6.981642998e-03	9.020963762e-12
1.430000000e+00	3.801346079e-01	-7.005904493e-03	1.151220439e-11
1.440000000e+00	3.793611170e-01	-7.030219708e-03	8.402904416e-12
1.450000000e+00	3.785922956e-01	-7.054588198e-03	3.276126338e-12
1.460000000e+00	3.778280975e-01	-7.079009560e-03	9.096328061e-12
1.470000000e+00	3.770684767e-01	-7.103483374e-03	2.406028728e-11
1.480000000e+00	3.763133881e-01	-7.128009252e-03	6.346189194e-12
1.490000000e+00	3.755627870e-01	-7.152586793e-03	5.551148539e-12
1.500000000e+00	3.748166296e-01	-7.177215610e-03	1.347254409e-11
1.510000000e+00	3.740748725e-01	-7.201895329e-03	1.035781694e-11
1.520000000e+00	3.733374728e-01	-7.226625573e-03	8.178047193e-12
1.530000000e+00	3.726043884e-01	-7.251405982e-03	1.276448651e-11
1.540000000e+00	3.718755776e-01	-7.276236189e-03	6.943225100e-12
1.550000000e+00	3.711509994e-01	-7.301115846e-03	5.483637503e-12
1.560000000e+00	3.704306131e-01	-7.326044610e-03	9.520423250e-12
1.570000000e+00	3.697143788e-01	-7.351022140e-03	8.459029874e-12
1.580000000e+00	3.690022570e-01	-7.376048109e-03	7.025618267e-12
1.590000000e+00	3.682942088e-01	-7.401122180e-03	9.445814836e-12
1.600000000e+00	3.675901958e-01	-7.426244028e-03	1.417923241e-11
1.610000000e+00	3.668901799e-01	-7.451413355e-03	7.486374769e-12
1.620000000e+00	3.661941237e-01	-7.476629834e-03	1.405152432e-11
1.630000000e+00	3.655019903e-01	-7.501893170e-03	2.774990556e-11
1.640000000e+00	3.648137432e-01	-7.527203063e-03	1.125219495e-11
1.650000000e+00	3.641293464e-01	-7.552559204e-03	2.634990019e-11
1.660000000e+00	3.634487644e-01	-7.577961325e-03	9.640090631e-12
1.670000000e+00	3.627719619e-01	-7.603409141e-03	1.842377277e-11
1.680000000e+00	3.620989045e-01	-7.628902352e-03	6.586628647e-12
1.690000000e+00	3.614295579e-01	-7.654440701e-03	7.831795785e-12
1.700000000e+00	3.607638883e-01	-7.680023911e-03	7.520930634e-12
1.710000000e+00	3.601018624e-01	-7.705651720e-03	5.548119251e-12
1.720000000e+00	3.594434472e-01	-7.731323866e-03	4.991287648e-12
1.730000000e+00	3.587886103e-01	-7.757040105e-03	3.059458416e-11
1.740000000e+00	3.581373194e-01	-7.782800152e-03	9.543252352e-12
1.750000000e+00	3.574895430e-01	-7.808603796e-03	1.495216130e-11
1.760000000e+00	3.568452497e-01	-7.834450769e-03	1.305245288e-11
1.770000000e+00	3.562044086e-01	-7.860340840e-03	1.949705364e-11
1.780000000e+00	3.555669891e-01	-7.886273772e-03	7.290000410e-12
1.790000000e+00	3.549329611e-01	-7.912249330e-03	1.510280128e-11
1.800000000e+00	3.543022947e-01	-7.938267293e-03	1.005331271e-11
1.810000000e+00	3.536749605e-01	-7.964327436e-03	1.782255579e-11
1.820000000e+00	3.530509294e-01	-7.990429532e-03	1.644991552e-11
1.830000000e+00	3.524301727e-01	-8.016573353e-03	1.113694882e-11
1.840000000e+00	3.518126621e-01	-8.042758705e-03	1.431804873e-11
1.850000000e+00	3.511983694e-01	-8.068985376e-03	1.155756346e-11
1.860000000e+00	3.505872669e-01	-8.095253145e-03	1.176171951e-11
1.870000000e+00	3.499793274e-01	-8.121561810e-03	9.377272183e-12
1.880000000e+00	3.493745237e-01	-8.147911183e-03	9.844399696e-12
1.890000000e+00	3.487728291e-01	-8.174301053e-03	6.041045526e-12
1.900000000e+00	3.481742172e-01	-8.200731227e-03	1.554683625e-11
1.910000000e+00	3.475786619e-01	-8.227201515e-03	1.160131685e-11
1.920000000e+00	3.469861374e-01	-8.253711734e-03	1.354305998e-11
1.930000000e+00	3.463966182e-01	-8.280261689e-03	1.516202683e-11
1.940000000e+00	3.458100792e-01	-8.306851202e-03	1.183451860e-11
1.950000000e+00	3.452264953e-01	-8.333480086e-03	1.450617131e-11
1.960000000e+00	3.446458421e-01	-8.360148175e-03	1.761532118e-11
1.970000000e+00	3.440680951e-01	-8.386855280e-03	1.093710648e-11
1.980000000e+00	3.434932304e-01	-8.413601235e-03	1.177073578e-11
1.990000000e+00	3.429212241e-01	-8.440385877e-03	1.415471191e-11
2.000000000e+00	3.423520528e-01	-8.467209024e-03	1.668201656e-11
2.010000000e+00	3.417856932e-01	-8.494070518e-03	6.462481714e-12
2.020000000e+00	3.412221224e-01	-8.520970194e-03	9.071466653e-12
2.030000000e+00	3.406613177e-01	-8.547907902e-03	1.282446462e-11
2.040000000e+00	3.401032565e-01	-8.574883468e-03	1.143511259e-11
2.050000000e+00	3.395479168e-01	-8.601896746e-03	8.082604317e-12
2.060000000e+00	3.389952765e-01	-8.628947578e-03	8.624839491e-12
2.070000000e+00	3.384453140e-01	-8.656035819e-03	1.485912764e-11
2.080000000e+00	3.378980079e-01	-8.683161310e-03	7.909258208e-12
2.090000000e+00	3.373533368e-01	-8.710323907e-03	1.134319648e-11
2.100000000e+00	3.368112798e-01	-8.737523470e-03	1.369573769e-11
2.110000000e+00	3.362718162e-01	-8.764759854e-03	6.838168487e-12
2.120000000e+00	3.357349254e-01	-8.792032919e-03	1.037058233e-11
2.130000000e+00	3.352005871e-01	-8.819342520e-03	9.933696384e-12
2.140000000e+00	3.346687813e-01	-8.846688516e-03	1.705378509e-11
2.150000000e+00	3.341394881e-01	-8.874070788e-03	6.536556322e-12
2.160000000e+00	3.336126879e-01	-8.901489187e-03	1.119764187e-11
2.170000000e+00	3.330883612e-01	-8.928943588e-03	1.281803902e-11
2.180000000e+00	3.325664889e-01	-8.956433862e-03	1.560447950e-11
2.190000000e+00	3.320470518e-01	-8.983959875e-03	1.195243717e-11
2.200000000e+00	3.315300313e-01	-9.011521504e-03	1.492581565e-11
2.210000000e+00	3.310154087e-01	-9.039118617e-03	1.066509715e-11
2.220000000e+00	3.305031656e-01	-9.066751105e-03	1.625738271e-11
2.230000000e+00	3.299932838e-01	-9.094418840e-03	1.847951174e-11
2.240000000e+00	3.294857453e-01	-9.122121694e-03	8.040897959e-12
2.250000000e+00	3.289805322e-01	-9.149859553e-03	1.418620593e-11
2.260000000e+00	3.284776270e-01	-9.177632308e-03	7.789673824e-12
2.270000000e+00	3.279770122e-01	-9.205439833e-03	1.026318137e-11
2.280000000e+00	3.274786705e-01	-9.233282017e-03	8.158006866e-12
2.290000000e+00	3.269825849e-01	-9.261158745e-03	1.054612605e-11
2.300000000e+00	3.264887384e-01	-9.289069912e-03	1.047229786e-11
2.310000000e+00	3.259971142e-01	-9.317015409e-03	8.768326266e-12
2.320000000e+00	3.255076960e-01	-9.344995117e-03	5.495968649e-12
2.330000000e+00	3.250204672e-01	-9.373008939e-03	1.080981179e-11
2.340000000e+00	3.245354117e-01	-9.401056758e-03	9.273343797e-12
2.350000000e+00	3.240525133e-01	-9.429138482e-03	9.243593944e-12
2.360000000e+00	3.235717563e-01	-9.457254003e-03	1.157441769e-11
2.370000000e+00	3.230931249e-01	-9.485403214e-03	1.440054150e-11
2.380000000e+00	3.226166036e-01	-9.513586027e-03	1.770548710e-11
2.390000000e+00	3.221421769e-01	-9.541802322e-03	2.159149139e-11
2.400000000e+00	3.216698296e-01	-9.570052024e-03	9.036199945e-12
2.410000000e+00	3.211995466e-01	-9.598335020e-03	1.384395379e-11
2.420000000e+00	3.207313130e-01	-9.626651216e-03	1.012095412e-11
2.430000000e+00	3.202651139e-01	-9.655000518e-03	1.479175960e-11
2.440000000e+00	3.198009348e-01	-9.683382839e-03	8.584540423e-12
2.450000000e+00	3.193387612e-01	-9.711798075e-03	9.732627511e-12
2.460000000e+00	3.188785786e-01	-9.740246143e-03	5.234855232e-12
2.470000000e+00	3.184203730e-01	-9.768726950e-03	8.662730995e-12
2.480000000e+00	3.179641302e-01	-9.797240406e-03	6.828489155e-12
2.490000000e+00	3.175098363e-01	-9.825786422e-03	9.240610947e-12
2.500000000e+00	3.170574775e-01	-9.854364913e-03	1.107332532e-11
2.510000000e+00	3.166070402e-01	-9.882975788e-03	1.269518459e-11
2.520000000e+00	3.161585108e-01	-9.911618958e-03	2.245877369e-11
2.530000000e+00	3.157118760e-01	-9.940294353e-03	1.036230074e-11
2.540000000e+00	3.152671225e-01	-9.969001880e-03	8.214194050e-12
2.550000000e+00	3.148242372e-01	-9.997741451e-03	9.545914259e-12
2.560000000e+00	3.143832071e-01	-1.002651299e-02	1.692747267e-11
2.570000000e+00	3.139440192e-01	-1.005531643e-02	1.033118877e-11
2.580000000e+00	3.135066610e-01	-1.008415166e-02	1.425525943e-11
2.590000000e+00	3.130711197e-01	-1.011301863e-02	2.581977206e-11
2.600000000e+00	3.126373828e-01	-1.014191724e-02	8.820616226e-12
2.610000000e+00	3.122054379e-01	-1.017084742e-02	9.007600800e-12
2.620000000e+00	3.117752729e-01	-1.019980911e-02	1.422836230e-11
2.630000000e+00	3.113468754e-01	-1.022880220e-02	1.201869829e-11
2.640000000e+00	3.109202336e-01	-1.025782665e-02	9.595636810e-12
2.650000000e+00	3.104953354e-01	-1.028688236e-02	9.534961278e-12
2.660000000e+00	3.100721692e-01	-1.031596927e-02	9.477317005e-12
2.670000000e+00	3.096507230e-01	-1.034508731e-02	1.906573749e-11
2.680000000e+00	3.092309855e-01	-1.037423639e-02	6.440310765e-12
2.690000000e+00	3.088129451e-01	-1.040341646e-02	1.176386139e-11
2.700000000e+00	3.083965904e-01	-1.043262744e-02	1.469693365e-11
2.710000000e+00	3.079819102e-01	-1.046186926e-02	7.016556367e-12
2.720000000e+00	3.075688933e-01	-1.049114185e-02	1.054008226e-11
2.730000000e+00	3.071575286e-01	-1.052044514e-02	9.919624993e-12
2.740000000e+00	3.067478053e-01	-1.054977907e-02	1.834105844e-11
2.750000000e+00	3.063397124e-01	-1.057914356e-02	1.009813356e-11
2.760000000e+00	3.059332392e-01	-1.060853856e-02	1.104557334e-11
2.770000000e+00	3.055283750e-01	-1.063796399e-02	1.507141636e-11
2.780000000e+00	3.051251093e-01	-1.066741979e-02	1.603397181e-11
2.790000000e+00	3.047234317e-01	-1.069690591e-02	8.557971558e-12
2.800000000e+00	3.043233317e-01	-1.072642226e-02	1.151284455e-11
2.810000000e+00	3.039247991e-01	-1.075596879e-02	1.151323013e-11
2.820000000e+00	3.035278237e-01	-1.078554544e-02	9.867659621e-12
2.830000000e+00	3.031323955e-01	-1.081515215e-02	1.913085633e-11
2.840000000e+00	3.027385044e-01	-1.084478884e-02	1.386118230e-11
2.850000000e+00	3.023461405e-01	-1.087445547e-02	3.308947862e-11
2.860000000e+00	3.019552940e-01	-1.090415198e-02	8.993498501e-12
2.870000000e+00	3.015659552e-01	-1.093387829e-02	1.740680316e-11
2.880000000e+00	3.011781144e-01	-1.096363436e-02	1.102836249e-11
2.890000000e+00	3.007917622e-01	-1.099342012e-02	2.516463640e-11
2.900000000e+00	3.004068889e-01	-1.102323552e-02	9.243887305e-12
2.910000000e+00	3.000234853e-01	-1.105308050e-02	1.226848737e-11
2.920000000e+00	2.996415420e-01	-1.108295501e-02	1.387111812e-11
2.930000000e+00	2.992610498e-01	-1.111285898e-02	7.160940811e-12
2.940000000e+00	2.988819996e-01	-1.114279236e-02	1.440564716e-11
2.950000000e+00	2.985043823e-01	-1.117275509e-02	7.309265158e-12
2.960000000e+00	2.981281889e-01	-1.120274712e-02	1.096328426e-11
2.970000000e+00	2.977534105e-01	-1.123276840e-02	1.455766229e-11
2.980000000e+00	2.973800383e-01	-1.126281887e-02	4.588805399e-12
2.990000000e+00	2.970080636e-01	-1.129289847e-02	6.690480986e-12
3.000000000e+00	2.966374776e-01	-1.132300716e-02	1.270818763e-11
3.010000000e+00	2.962682718e-01	-1.135314489e-02	3.973140189e-11
3.020000000e+00	2.959004377e-01	-1.138331159e-02	8.474372133e-12
3.030000000e+00	2.955339668e-01	-1.141350722e-02	1.180978637e-11
3.040000000e+00	2.951688507e-01	-1.144373172e-02	3.210263659e-11
3.050000000e+00	2.948050811e-01	-1.147398505e-02	4.415701890e-11
3.060000000e+00	2.944426498e-01	-1.150426716e-02	1.167623108e-11
3.070000000e+00	2.940815486e-01	-1.153457799e-02	1.275046457e-11
3.080000000e+00	2.937217694e-01	-1.156491750e-02	1.603266509e-11
3.090000000e+00	2.933633042e-01	-1.159528563e-02	2.914949411e-11
3.100000000e+00	2.930061451e-01	-1.162568235e-02	1.461200528e-11
3.110000000e+00	2.926502841e-01	-1.165610759e-02	2.203042898e-11
3.120000000e+00	2.922957134e-01	-1.168656132e-02	1.741118712e-11
3.130000000e+00	2.919424253e-01	-1.171704347e-02	3.025080654e-11
3.140000000e+00	2.915904121e-01	-1.174755401e-02	1.958559237e-11
3.150000000e+00	2.912396661e-01	-1.177809290e-02	2.959056592e-11
3.160000000e+00	2.908901797e-01	-1.180866008e-02	1.751411552e-11
3.170000000e+00	2.905419456e-01	-1.183925550e-02	1.080257996e-11
3.180000000e+00	2.901949561e-01	-1.186987913e-02	7.673598352e-12
3.190000000e+00	2.898492040e-01	-1.190053091e-02	1.152833333e-11
3.200000000e+00	2.895046819e-01	-1.193121081e-02	1.279334058e-11
3.210000000e+00	2.891613826e-01	-1.196191877e-02	1.190620336e-11
3.220000000e+00	2.888192988e-01	-1.199265475e-02	1.268724644e-11
3.230000000e+00	2.884784235e-01	-1.202341872e-02	9.250807211e-12
3.240000000e+00	2.881387495e-01	-1.205421062e-02	1.422557004e-11
3.250000000e+00	2.878002699e-01	-1.208503040e-02	2.499137203e-11
3.260000000e+00	2.874629776e-01	-1.211587804e-02	2.648626737e-11
3.270000000e+00	2.871268657e-01	-1.214675348e-02	5.469643492e-11
3.280000000e+00	2.867919274e-01	-1.217765669e-02	1.137819384e-11
3.290000000e+00	2.864581559e-01	-1.220858762e-02	1.290436842e-11
3.300000000e+00	2.861255445e-01	-1.223954623e-02	2.649175462e-11
3.310000000e+00	2.857940864e-01	-1.227053248e-02	1.922534910e-11
3.320000000e+00	2.854637751e-01	-1.230154633e-02	1.701241856e-11
3.330000000e+00	2.851346039e-01	-1.233258773e-02	1.000674555e-11
3.340000000e+00	2.848065663e-01	-1.236365665e-02	4.821152972e-12
3.350000000e+00	2.844796559e-01	-1.239475305e-02	1.063046389e-11
3.360000000e+00	2.841538661e-01	-1.242587688e-02	1.301022278e-11
3.370000000e+00	2.838291907e-01	-1.245702811e-02	1.044662649e-11
3.380000000e+00	2.835056233e-01	-1.248820669e-02	2.644170695e-11
3.390000000e+00	2.831831577e-01	-1.251941260e-02	1.696964997e-11
3.400000000e+00	2.828617875e-01	-1.255064578e-02	1.274726258e-11
3.410000000e+00	2.825415067e-01	-1.258190620e-02	2.246316387e-11
3.420000000e+00	2.822223091e-01	-1.261319383e-02	1.945228868e-11
3.430000000e+00	2.819041886e-01	-1.264450862e-02	4.130625904e-11
3.440000000e+00	2.815871393e-01	-1.267585055e-02	1.291485315e-11
3.450000000e+00	2.812711550e-01	-1.270721956e-02	1.744322988e-11
3.460000000e+00	2.809562299e-01	-1.273861562e-02	1.019581279e-11
3.470000000e+00	2.806423581e-01	-1.277003870e-02	3.963443782e-11
3.480000000e+00	2.803295338e-01	-1.280148875e-02	6.878780405e-12
3.490000000e+00	2.800177511e-01	-1.283296575e-02	2.015281309e-11
3.500000000e+00	2.797070042e-01	-1.286446966e-02	1.286819140e-11
3.510000000e+00	2.793972876e-01	-1.289600044e-02	1.449247600e-11
3.520000000e+00	2.790885954e-01	-1.292755804e-02	1.685091967e-11
3.530000000e+00	2.787809221e-01	-1.295914245e-02	1.724572438e-11
3.540000000e+00	2.784742621e-01	-1.299075362e-02	3.203827905e-11
3.550000000e+00	2.781686099e-01	-1.302239153e-02	2.630183562e-11
3.560000000e+00	2.778639599e-01	-1.305405612e-02	8.606896130e-12
3.570000000e+00	2.775603068e-01	-1.308574738e-02	7.602179152e-12
3.580000000e+00	2.772576450e-01	-1.311746526e-02	9.713385736e-12
3.590000000e+00	2.769559692e-01	-1.314920973e-02	2.818574079e-11
3.600000000e+00	2.766552742e-01	-1.318098075e-02	8.326017743e-12
3.610000000e+00	2.763555545e-01	-1.321277830e-02	1.789278331e-11
3.620000000e+00	2.760568050e-01	-1.324460235e-02	9.470677842e-12
3.630000000e+00	2.757590204e-01	-1.327645284e-02	1.251628009e-11
3.640000000e+00	2.754621956e-01	-1.330832976e-02	4.131770928e-11
3.650000000e+00	2.751663254e-01	-1.334023307e-02	1.161743004e-11
3.660000000e+00	2.748714048e-01	-1.337216274e-02	2.173157140e-11
3.670000000e+00	2.745774286e-01	-1.340411873e-02	9.626976998e-12
3.680000000e+00	2.742843918e-01	-1.343610102e-02	1.056223573e-11
3.690000000e+00	2.739922896e-01	-1.346810956e-02	1.747542101e-11
3.700000000e+00	2.737011168e-01	-1.350014434e-02	5.632461450e-12
3.710000000e+00	2.734108687e-01	-1.353220531e-02	1.266288582e-11
3.720000000e+00	2.731215403e-01	-1.356429245e-02	1.327454517e-11
3.730000000e+00	2.728331268e-01	-1.359640572e-02	1.257554803e-11
3.740000000e+00	2.725456234e-01	-1.362854510e-02	7.827621144e-12
3.750000000e+00	2.722590253e-01	-1.366071055e-02	1.005502721e-11
3.760000000e+00	2.719733278e-01	-1.369290204e-02	3.525788781e-11
3.770000000e+00	2.716885262e-01	-1.372511954e-02	1.457122173e-11
3.780000000e+00	2.714046159e-01	-1.375736302e-02	1.206796286e-11
3.790000000e+00	2.711215921e-01	-1.378963245e-02	4.832571686e-12
3.800000000e+00	2.708394504e-01	-1.382192780e-02	6.331486971e-12
3.810000000e+00	2.705581861e-01	-1.385424905e-02	1.232734969e-11
3.820000000e+00	2.702777947e-01	-1.388659615e-02	3.108879584e-11
3.830000000e+00	2.699982717e-01	-1.391896908e-02	7.617907363e-12
3.840000000e+00	2.697196127e-01	-1.395136781e-02	1.176604383e-11
3.850000000e+00	2.694418132e-01	-1.398379232e-02	6.339797647e-12
3.860000000e+00	2.691648688e-01	-1.401624257e-02	1.616906731e-11
3.870000000e+00	2.688887751e-01	-1.404871854e-02	1.055412297e-11
3.880000000e+00	2.686135279e-01	-1.408122018e-02	1.095238530e-11
3.890000000e+00	2.683391227e-01	-1.411374749e-02	7.105232664e-11
3.900000000e+00	2.680655554e-01	-1.414630042e-02	1.323398040e-11
3.910000000e+00	2.677928216e-01	-1.417887896e-02	2.700935152e-11
3.920000000e+00	2.675209172e-01	-1.421148306e-02	1.517804164e-11
3.930000000e+00	2.672498380e-01	-1.424411271e-02	6.416595134e-12
3.940000000e+00	2.669795798e-01	-1.427676788e-02	9.128880565e-12
3.950000000e+00	2.667101384e-01	-1.430944853e-02	1.209734107e-11
3.960000000e+00	2.664415098e-01	-1.434215464e-02	1.239253248e-11
3.970000000e+00	2.661736900e-01	-1.437488619e-02	9.666745902e-12
3.980000000e+00	2.659066748e-01	-1.440764315e-02	2.536553458e-11
3.990000000e+00	2.656404602e-01	-1.444042548e-02	3.265097198e-11
4.000000000e+00	2.653750424e-01	-1.447323316e-02	7.310526164e-12
4.010000000e+00	2.651104172e-01	-1.450606618e-02	2.449138881e-11
4.020000000e+00	2.648465808e-01	-1.453892448e-02	1.174667798e-11
4.030000000e+00	2.645835292e-01	-1.457180806e-02	2.677613906e-11
4.040000000e+00	2.643212587e-01	-1.460471689e-02	7.435088567e-12
