# R [micrones]     Omega/c [1/micrones]    Im(epsi1)     Eq(det).Opt det SIN kz, mu = 0.9 eV, Re(epsi1)=3.90, solve_det_sinkz_vs_R_2.py
5.000000000e-01	4.020274265e-01	-9.380803690e-03	3.508646416e-13
4.950000000e-01	4.040608156e-01	-9.367906943e-03	9.874959498e-14
4.900000000e-01	4.061251266e-01	-9.355127379e-03	3.481803181e-13
4.850000000e-01	4.082211526e-01	-9.342469837e-03	7.503399417e-14
4.800000000e-01	4.103497152e-01	-9.329939364e-03	2.246933420e-14
4.750000000e-01	4.125116664e-01	-9.317541224e-03	2.075907172e-13
4.700000000e-01	4.147078896e-01	-9.305280913e-03	1.104168149e-13
4.650000000e-01	4.169393015e-01	-9.293164167e-03	5.269178009e-14
4.600000000e-01	4.192068533e-01	-9.281196977e-03	1.421103794e-13
4.550000000e-01	4.215115325e-01	-9.269385602e-03	1.619828805e-13
4.500000000e-01	4.238543652e-01	-9.257736586e-03	1.724416543e-13
4.450000000e-01	4.262364172e-01	-9.246256767e-03	9.474099743e-14
4.400000000e-01	4.286587968e-01	-9.234953303e-03	2.141039988e-13
4.350000000e-01	4.311226564e-01	-9.223833683e-03	6.420891142e-14
4.300000000e-01	4.336291954e-01	-9.212905745e-03	4.271849417e-13
4.250000000e-01	4.361796619e-01	-9.202177704e-03	1.041191664e-13
4.200000000e-01	4.387753560e-01	-9.191658162e-03	1.161202531e-13
4.150000000e-01	4.414176323e-01	-9.181356144e-03	1.188141079e-13
4.100000000e-01	4.441079028e-01	-9.171281111e-03	7.658004246e-14
4.050000000e-01	4.468476402e-01	-9.161442993e-03	1.199604198e-13
4.000000000e-01	4.496383813e-01	-9.151852218e-03	5.996520008e-14
3.950000000e-01	4.524817306e-01	-9.142519738e-03	1.032992126e-13
3.900000000e-01	4.553793641e-01	-9.133457065e-03	5.295708549e-14
3.850000000e-01	4.583330337e-01	-9.124676306e-03	1.469895454e-13
3.800000000e-01	4.613445713e-01	-9.116190198e-03	1.275192640e-13
3.750000000e-01	4.644158938e-01	-9.108012153e-03	7.085493444e-14
3.700000000e-01	4.675490085e-01	-9.100156300e-03	2.260187837e-13
3.650000000e-01	4.707460180e-01	-9.092637532e-03	1.711731422e-13
3.600000000e-01	4.740091265e-01	-9.085471557e-03	1.475770924e-13
3.550000000e-01	4.773406464e-01	-9.078674954e-03	4.720716866e-13
3.500000000e-01	4.807430048e-01	-9.072265235e-03	1.279517586e-13
3.450000000e-01	4.842187511e-01	-9.066260906e-03	2.338652124e-13
3.400000000e-01	4.877705652e-01	-9.060681542e-03	8.647803585e-14
3.350000000e-01	4.914012658e-01	-9.055547859e-03	1.718889509e-13
3.300000000e-01	4.951138204e-01	-9.050881801e-03	2.202582942e-13
3.250000000e-01	4.989113548e-01	-9.046706629e-03	7.105436031e-14
3.200000000e-01	5.027971649e-01	-9.043047021e-03	1.311928991e-13
3.150000000e-01	5.067747283e-01	-9.039929178e-03	5.089520034e-13
3.100000000e-01	5.108477172e-01	-9.037380944e-03	1.656758650e-13
3.050000000e-01	5.150200134e-01	-9.035431935e-03	1.827576831e-13
3.000000000e-01	5.192957233e-01	-9.034113678e-03	8.551213125e-14
2.950000000e-01	5.236791948e-01	-9.033459770e-03	2.730574570e-13
2.900000000e-01	5.281750365e-01	-9.033506044e-03	6.191272948e-14
2.850000000e-01	5.327881375e-01	-9.034290763e-03	3.503354449e-13
2.800000000e-01	5.375236903e-01	-9.035854821e-03	4.057865155e-14
2.750000000e-01	5.423872150e-01	-9.038241977e-03	8.954939786e-14
2.700000000e-01	5.473845865e-01	-9.041499104e-03	5.385211141e-14
2.650000000e-01	5.525220645e-01	-9.045676473e-03	9.166980484e-14
2.600000000e-01	5.578063263e-01	-9.050828063e-03	4.040592027e-13
2.550000000e-01	5.632445036e-01	-9.057011908e-03	1.008787154e-13
2.500000000e-01	5.688442227e-01	-9.064290484e-03	1.005096039e-13
2.450000000e-01	5.746136500e-01	-9.072731141e-03	2.246879728e-13
2.400000000e-01	5.805615414e-01	-9.082406585e-03	1.729257898e-13
2.350000000e-01	5.866972992e-01	-9.093395423e-03	1.567101823e-13
2.300000000e-01	5.930310338e-01	-9.105782773e-03	1.138950307e-13
2.250000000e-01	5.995736345e-01	-9.119660951e-03	6.220759523e-14
2.200000000e-01	6.063368478e-01	-9.135130247e-03	2.107784947e-13
2.150000000e-01	6.133333667e-01	-9.152299813e-03	1.430874196e-13
2.100000000e-01	6.205769309e-01	-9.171288657e-03	1.459660945e-13
2.050000000e-01	6.280824400e-01	-9.192226792e-03	2.084297887e-13
2.000000000e-01	6.358660832e-01	-9.215256537e-03	5.498821555e-14
1.950000000e-01	6.439454863e-01	-9.240534016e-03	6.371981592e-13
1.900000000e-01	6.523398793e-01	-9.268230884e-03	1.580536909e-13
1.850000000e-01	6.610702898e-01	-9.298536315e-03	1.223624942e-13
1.800000000e-01	6.701597649e-01	-9.331659308e-03	1.167929821e-13
1.750000000e-01	6.796336273e-01	-9.367831377e-03	3.596941841e-13
1.700000000e-01	6.895197728e-01	-9.407309686e-03	9.280322320e-14
1.650000000e-01	6.998490165e-01	-9.450380733e-03	9.670042544e-14
1.600000000e-01	7.106554978e-01	-9.497364691e-03	2.425843406e-13
1.550000000e-01	7.219771558e-01	-9.548620554e-03	1.852210064e-14
1.500000000e-01	7.338562916e-01	-9.604552267e-03	2.520741268e-13
1.450000000e-01	7.463402345e-01	-9.665616062e-03	9.697021187e-14
1.400000000e-01	7.594821376e-01	-9.732329304e-03	1.019482808e-13
1.350000000e-01	7.733419328e-01	-9.805281207e-03	2.739912562e-14
1.300000000e-01	7.879874848e-01	-9.885145921e-03	1.334785918e-13
1.250000000e-01	8.034959935e-01	-9.972698616e-03	1.049519610e-13
1.200000000e-01	8.199557137e-01	-1.006883541e-02	1.059841485e-13
1.150000000e-01	8.374680761e-01	-1.017459827e-02	1.912246604e-13
1.100000000e-01	8.561503306e-01	-1.029120643e-02	2.287059431e-14
1.050000000e-01	8.761388657e-01	-1.042009635e-02	8.254118070e-14
1.000000000e-01	8.975934220e-01	-1.056297321e-02	1.071389954e-13
9.500000000e-02	9.207024981e-01	-1.072187792e-02	3.369394272e-14
9.000000000e-02	9.456903681e-01	-1.089927562e-02	1.646691308e-13
8.500000000e-02	9.728263136e-01	-1.109817408e-02	1.001972435e-13
8.000000000e-02	1.002436943e+00	-1.132228468e-02	6.187050888e-14
7.500000000e-02	1.034922903e+00	-1.157624535e-02	2.972466599e-13
7.000000000e-02	1.070781951e+00	-1.186593530e-02	6.594687385e-14
6.500000000e-02	1.110641479e+00	-1.219892957e-02	8.229441580e-14
6.000000000e-02	1.155305417e+00	-1.258517271e-02	7.437400532e-14
5.500000000e-02	1.205823699e+00	-1.303800711e-02	5.746624196e-14
5.000000000e-02	1.263598340e+00	-1.357579804e-02	3.431223603e-13
4.500000000e-02	1.330551375e+00	-1.422460852e-02	5.709267256e-14
4.000000000e-02	1.409402320e+00	-1.502282344e-02	1.167238879e-13
3.500000000e-02	1.504151032e+00	-1.602963691e-02	1.998401444e-14
3.000000000e-02	1.620973630e+00	-1.734184617e-02	1.351082579e-13
2.500000000e-02	1.770026426e+00	-1.913047462e-02	1.775118509e-13
2.000000000e-02	1.969492352e+00	-2.173185661e-02	1.572075803e-13
1.500000000e-02	2.256132906e+00	-2.592141777e-02	5.727256545e-13
1.000000000e-02	2.719854915e+00	-3.402843445e-02	2.873967505e-13
