# R [micrones]     Omega/c [1/micrones]    Im(epsi1)     Eq(det).Opt det SIN kz, mu = 0.9 eV, Re(epsi1)=3.90, solve_det_sinkz_vs_R.py
5.000000000e-01	4.643683496e-01	-9.103742516e-03	1.098806941e-11
5.500000000e-01	4.427067914e-01	-9.171555402e-03	9.239070915e-12
6.000000000e-01	4.238022434e-01	-9.252513799e-03	7.697347227e-12
6.500000000e-01	4.071148608e-01	-9.343046589e-03	1.194810036e-11
7.000000000e-01	3.922420901e-01	-9.440612705e-03	7.186587469e-12
7.500000000e-01	3.788768086e-01	-9.543363580e-03	1.311314787e-11
8.000000000e-01	3.667800768e-01	-9.649929357e-03	1.035528804e-11
8.500000000e-01	3.557628332e-01	-9.759279043e-03	1.710136852e-11
9.000000000e-01	3.456732586e-01	-9.870626453e-03	7.568455015e-11
9.500000000e-01	3.363878450e-01	-9.983365418e-03	2.077159094e-11
1.000000000e+00	3.278049493e-01	-1.009702425e-02	9.667742756e-12
1.050000000e+00	3.198400559e-01	-1.021123305e-02	1.196805825e-11
1.100000000e+00	3.124222354e-01	-1.032569991e-02	2.197224774e-11
1.150000000e+00	3.054914596e-01	-1.044019337e-02	1.599756393e-11
1.200000000e+00	2.989965377e-01	-1.055452919e-02	7.924800632e-12
1.250000000e+00	2.928935106e-01	-1.066856041e-02	1.942593936e-11
1.300000000e+00	2.871443881e-01	-1.078216969e-02	1.644699360e-11
1.350000000e+00	2.817161457e-01	-1.089526334e-02	1.374734751e-11
1.400000000e+00	2.765799201e-01	-1.100776677e-02	6.067556202e-12
1.450000000e+00	2.717103581e-01	-1.111962080e-02	1.828678965e-11
1.500000000e+00	2.670850863e-01	-1.123077881e-02	1.404987620e-11
1.550000000e+00	2.626842752e-01	-1.134120440e-02	1.902255063e-11
1.600000000e+00	2.584902791e-01	-1.145086956e-02	1.939496850e-11
1.650000000e+00	2.544873364e-01	-1.155975319e-02	9.144939055e-12
1.700000000e+00	2.506613179e-01	-1.166783986e-02	1.044295040e-11
1.750000000e+00	2.469995167e-01	-1.177511883e-02	1.411977489e-11
1.800000000e+00	2.434904680e-01	-1.188158321e-02	2.740802542e-11
1.850000000e+00	2.401237983e-01	-1.198722936e-02	1.385124553e-11
1.900000000e+00	2.368900946e-01	-1.209205625e-02	7.172993488e-12
1.950000000e+00	2.337807935e-01	-1.219606506e-02	1.811481671e-11
2.000000000e+00	2.307880845e-01	-1.229925878e-02	9.391186937e-12
2.050000000e+00	2.279048275e-01	-1.240164189e-02	2.040601509e-11
2.100000000e+00	2.251244804e-01	-1.250322010e-02	4.405387188e-11
2.150000000e+00	2.224410360e-01	-1.260400011e-02	6.195700425e-12
2.200000000e+00	2.198489672e-01	-1.270398945e-02	7.964679271e-12
2.250000000e+00	2.173431788e-01	-1.280319631e-02	1.171054157e-11
2.300000000e+00	2.149189649e-01	-1.290162938e-02	9.603380116e-12
2.350000000e+00	2.125719717e-01	-1.299929779e-02	5.652710692e-11
2.400000000e+00	2.102981640e-01	-1.309621098e-02	1.219817144e-11
2.450000000e+00	2.080937961e-01	-1.319237863e-02	1.070418161e-11
2.500000000e+00	2.059553856e-01	-1.328781058e-02	1.450562562e-11
2.550000000e+00	2.038796898e-01	-1.338251679e-02	9.930177645e-12
2.600000000e+00	2.018636853e-01	-1.347650731e-02	1.021895996e-11
2.650000000e+00	1.999045490e-01	-1.356979217e-02	7.502195862e-12
2.700000000e+00	1.979996414e-01	-1.366238144e-02	3.100416979e-11
2.750000000e+00	1.961464915e-01	-1.375428512e-02	1.166329179e-11
2.800000000e+00	1.943427834e-01	-1.384551317e-02	7.262629945e-12
2.850000000e+00	1.925863438e-01	-1.393607546e-02	1.335607868e-11
2.900000000e+00	1.908751309e-01	-1.402598177e-02	1.536904142e-11
2.950000000e+00	1.892072246e-01	-1.411524176e-02	1.324284297e-11
3.000000000e+00	1.875808168e-01	-1.420386498e-02	1.631715859e-11
3.050000000e+00	1.859942038e-01	-1.429186084e-02	1.997876450e-11
3.100000000e+00	1.844457782e-01	-1.437923863e-02	1.021153963e-11
3.150000000e+00	1.829340221e-01	-1.446600748e-02	1.155579347e-11
3.200000000e+00	1.814575010e-01	-1.455217638e-02	7.149498633e-12
3.250000000e+00	1.800148577e-01	-1.463775417e-02	7.877216538e-12
3.300000000e+00	1.786048072e-01	-1.472274955e-02	2.374092266e-11
3.350000000e+00	1.772261318e-01	-1.480717104e-02	2.818946221e-11
3.400000000e+00	1.758776767e-01	-1.489102702e-02	4.146551919e-11
3.450000000e+00	1.745583457e-01	-1.497432574e-02	1.354486253e-11
3.500000000e+00	1.732670976e-01	-1.505707525e-02	3.901020295e-11
3.550000000e+00	1.720029427e-01	-1.513928349e-02	1.507069463e-11
3.600000000e+00	1.707649393e-01	-1.522095822e-02	2.703897834e-11
3.650000000e+00	1.695521913e-01	-1.530210707e-02	1.897382900e-11
3.700000000e+00	1.683638448e-01	-1.538273750e-02	2.469687924e-11
3.750000000e+00	1.671990859e-01	-1.546285686e-02	1.793373772e-11
3.800000000e+00	1.660571383e-01	-1.554247232e-02	1.803171986e-11
3.850000000e+00	1.649372609e-01	-1.562159093e-02	5.663788179e-12
3.900000000e+00	1.638387462e-01	-1.570021960e-02	4.053118830e-11
3.950000000e+00	1.627609179e-01	-1.577836509e-02	1.070745811e-11
4.000000000e+00	1.617031293e-01	-1.585603405e-02	2.877855898e-11
4.050000000e+00	1.606647618e-01	-1.593323296e-02	4.918837810e-12
4.100000000e+00	1.596452233e-01	-1.600996823e-02	1.035659212e-11
4.150000000e+00	1.586439466e-01	-1.608624610e-02	1.629215690e-11
4.200000000e+00	1.576603882e-01	-1.616207270e-02	3.681224645e-11
4.250000000e+00	1.566940270e-01	-1.623745404e-02	1.507167660e-11
4.300000000e+00	1.557443632e-01	-1.631239601e-02	1.213768338e-11
4.350000000e+00	1.548109171e-01	-1.638690439e-02	1.591931794e-11
4.400000000e+00	1.538932281e-01	-1.646098485e-02	1.760278958e-11
4.450000000e+00	1.529908536e-01	-1.653464294e-02	3.129872184e-11
4.500000000e+00	1.521033686e-01	-1.660788412e-02	1.150549835e-11
4.550000000e+00	1.512303641e-01	-1.668071372e-02	1.745923946e-11
4.600000000e+00	1.503714469e-01	-1.675313699e-02	1.095413164e-11
4.650000000e+00	1.495262385e-01	-1.682515907e-02	1.279455047e-11
4.700000000e+00	1.486943745e-01	-1.689678502e-02	1.265547083e-11
4.750000000e+00	1.478755040e-01	-1.696801977e-02	1.109902094e-11
4.800000000e+00	1.470692890e-01	-1.703886820e-02	1.743996511e-11
4.850000000e+00	1.462754036e-01	-1.710933506e-02	5.305589673e-12
4.900000000e+00	1.454935334e-01	-1.717942504e-02	1.347903526e-11
4.950000000e+00	1.447233755e-01	-1.724914272e-02	6.101555429e-12
5.000000000e+00	1.439646372e-01	-1.731849262e-02	1.992000448e-11
5.050000000e+00	1.432170362e-01	-1.738747917e-02	1.304864147e-11
5.100000000e+00	1.424802999e-01	-1.745610671e-02	2.446928264e-11
5.150000000e+00	1.417541649e-01	-1.752437950e-02	1.736778700e-11
5.200000000e+00	1.410383767e-01	-1.759230175e-02	1.706575655e-11
5.250000000e+00	1.403326892e-01	-1.765987756e-02	9.301802826e-12
5.300000000e+00	1.396368645e-01	-1.772711099e-02	1.651682811e-11
5.350000000e+00	1.389506726e-01	-1.779400600e-02	1.588619890e-11
5.400000000e+00	1.382738908e-01	-1.786056650e-02	1.341631032e-11
5.450000000e+00	1.376063035e-01	-1.792679632e-02	1.160444288e-11
5.500000000e+00	1.369477023e-01	-1.799269923e-02	1.111644141e-11
5.550000000e+00	1.362978850e-01	-1.805827895e-02	1.699512068e-11
5.600000000e+00	1.356566558e-01	-1.812353910e-02	1.545918700e-11
5.650000000e+00	1.350238252e-01	-1.818848327e-02	1.599214693e-11
5.700000000e+00	1.343992093e-01	-1.825311497e-02	3.860631172e-11
5.750000000e+00	1.337826298e-01	-1.831743768e-02	2.830619416e-11
5.800000000e+00	1.331739139e-01	-1.838145478e-02	1.734030163e-11
5.850000000e+00	1.325728939e-01	-1.844516964e-02	1.888039785e-11
5.900000000e+00	1.319794071e-01	-1.850858553e-02	2.593561660e-11
5.950000000e+00	1.313932955e-01	-1.857170569e-02	7.975864804e-12
6.000000000e+00	1.308144059e-01	-1.863453331e-02	4.782350623e-12
6.050000000e+00	1.302425893e-01	-1.869707153e-02	7.807996656e-12
6.100000000e+00	1.296777011e-01	-1.875932342e-02	3.710297054e-11
6.150000000e+00	1.291196009e-01	-1.882129203e-02	1.241801912e-11
6.200000000e+00	1.285681522e-01	-1.888298033e-02	6.191001403e-12
6.250000000e+00	1.280232221e-01	-1.894439126e-02	1.089341193e-11
6.300000000e+00	1.274846817e-01	-1.900552773e-02	1.329436899e-11
6.350000000e+00	1.269524056e-01	-1.906639257e-02	2.117166177e-11
6.400000000e+00	1.264262717e-01	-1.912698858e-02	8.826648240e-12
6.450000000e+00	1.259061612e-01	-1.918731854e-02	1.112862079e-11
6.500000000e+00	1.253919587e-01	-1.924738516e-02	7.124220529e-12
6.550000000e+00	1.248835517e-01	-1.930719111e-02	7.663411872e-12
6.600000000e+00	1.243808308e-01	-1.936673903e-02	1.866207041e-11
6.650000000e+00	1.238836894e-01	-1.942603153e-02	9.575344734e-12
6.700000000e+00	1.233920237e-01	-1.948507115e-02	1.094425763e-11
6.750000000e+00	1.229057325e-01	-1.954386042e-02	1.001617269e-11
6.800000000e+00	1.224247175e-01	-1.960240183e-02	4.497517644e-12
6.850000000e+00	1.219488826e-01	-1.966069781e-02	1.124206297e-11
6.900000000e+00	1.214781342e-01	-1.971875078e-02	2.138711906e-11
6.950000000e+00	1.210123812e-01	-1.977656312e-02	8.295403584e-12
7.000000000e+00	1.205515346e-01	-1.983413717e-02	1.415508489e-11
7.050000000e+00	1.200955077e-01	-1.989147524e-02	1.438793104e-11
7.100000000e+00	1.196442161e-01	-1.994857960e-02	1.781602844e-11
7.150000000e+00	1.191975770e-01	-2.000545250e-02	3.910689785e-11
7.200000000e+00	1.187555102e-01	-2.006209615e-02	5.849643990e-12
7.250000000e+00	1.183179369e-01	-2.011851273e-02	7.962744615e-12
7.300000000e+00	1.178847806e-01	-2.017470439e-02	2.389387842e-11
7.350000000e+00	1.174559663e-01	-2.023067325e-02	1.169711984e-11
7.400000000e+00	1.170314211e-01	-2.028642140e-02	7.253776930e-12
7.450000000e+00	1.166110734e-01	-2.034195092e-02	2.158643454e-11
7.500000000e+00	1.161948537e-01	-2.039726382e-02	9.463268912e-12
7.550000000e+00	1.157826939e-01	-2.045236213e-02	1.218836061e-11
7.600000000e+00	1.153745273e-01	-2.050724781e-02	1.528812407e-11
7.650000000e+00	1.149702891e-01	-2.056192283e-02	1.377462673e-11
7.700000000e+00	1.145699158e-01	-2.061638911e-02	1.341331102e-11
7.750000000e+00	1.141733451e-01	-2.067064857e-02	3.432199402e-11
7.800000000e+00	1.137805164e-01	-2.072470305e-02	1.729399260e-11
7.850000000e+00	1.133913705e-01	-2.077855443e-02	1.196454663e-11
7.900000000e+00	1.130058492e-01	-2.083220454e-02	1.083008485e-11
7.950000000e+00	1.126238957e-01	-2.088565519e-02	2.427997795e-11
8.000000000e+00	1.122454547e-01	-2.093890813e-02	7.319268940e-12
8.050000000e+00	1.118704717e-01	-2.099196514e-02	3.270377875e-11
8.100000000e+00	1.114988937e-01	-2.104482797e-02	6.793237580e-12
8.150000000e+00	1.111306686e-01	-2.109749831e-02	1.470880038e-11
8.200000000e+00	1.107657456e-01	-2.114997787e-02	1.190967738e-11
8.250000000e+00	1.104040749e-01	-2.120226830e-02	7.434617775e-12
8.300000000e+00	1.100456076e-01	-2.125437127e-02	7.805703831e-12
8.350000000e+00	1.096902961e-01	-2.130628840e-02	1.198953154e-11
8.400000000e+00	1.093380936e-01	-2.135802131e-02	3.011179933e-11
8.450000000e+00	1.089889543e-01	-2.140957157e-02	1.879021432e-11
8.500000000e+00	1.086428335e-01	-2.146094077e-02	3.427983725e-11
8.550000000e+00	1.082996871e-01	-2.151213046e-02	5.961138181e-12
8.600000000e+00	1.079594722e-01	-2.156314215e-02	1.180484724e-11
8.650000000e+00	1.076221466e-01	-2.161397738e-02	1.024046204e-11
8.700000000e+00	1.072876690e-01	-2.166463763e-02	1.099104490e-11
8.750000000e+00	1.069559989e-01	-2.171512439e-02	1.129600863e-11
8.800000000e+00	1.066270966e-01	-2.176543910e-02	9.206423519e-12
8.850000000e+00	1.063009232e-01	-2.181558322e-02	1.018776136e-11
8.900000000e+00	1.059774407e-01	-2.186555816e-02	1.077099662e-11
8.950000000e+00	1.056566116e-01	-2.191536534e-02	1.353118516e-11
9.000000000e+00	1.053383992e-01	-2.196500615e-02	6.466753348e-12
9.050000000e+00	1.050227677e-01	-2.201448196e-02	1.007469234e-11
9.100000000e+00	1.047096816e-01	-2.206379413e-02	1.363077986e-11
9.150000000e+00	1.043991066e-01	-2.211294401e-02	1.096627614e-11
9.200000000e+00	1.040910085e-01	-2.216193293e-02	4.701415044e-12
9.250000000e+00	1.037853542e-01	-2.221076220e-02	5.643003086e-12
9.300000000e+00	1.034821110e-01	-2.225943311e-02	8.240334207e-12
9.350000000e+00	1.031812468e-01	-2.230794696e-02	1.587265171e-11
9.400000000e+00	1.028827301e-01	-2.235630499e-02	1.135776115e-11
9.450000000e+00	1.025865301e-01	-2.240450848e-02	1.082980269e-11
9.500000000e+00	1.022926164e-01	-2.245255867e-02	2.196181947e-11
9.550000000e+00	1.020009594e-01	-2.250045677e-02	2.180146677e-11
9.600000000e+00	1.017115298e-01	-2.254820401e-02	8.053451654e-12
9.650000000e+00	1.014242989e-01	-2.259580158e-02	1.785620017e-11
9.700000000e+00	1.011392386e-01	-2.264325066e-02	1.131508444e-11
9.750000000e+00	1.008563211e-01	-2.269055243e-02	1.364183215e-11
9.800000000e+00	1.005755194e-01	-2.273770805e-02	1.036413515e-11
9.850000000e+00	1.002968067e-01	-2.278471866e-02	5.149270512e-12
9.900000000e+00	1.000201569e-01	-2.283158541e-02	1.445613998e-11
9.950000000e+00	9.974554406e-02	-2.287830941e-02	1.173562659e-11
1.000000000e+01	9.947294302e-02	-2.292489176e-02	1.950015954e-11
1.005000000e+01	9.920232888e-02	-2.297133358e-02	9.818621746e-12
1.010000000e+01	9.893367720e-02	-2.301763595e-02	1.209901076e-11
1.015000000e+01	9.866696396e-02	-2.306379994e-02	1.461527082e-11
1.020000000e+01	9.840216557e-02	-2.310982661e-02	2.020996066e-11
1.025000000e+01	9.813925882e-02	-2.315571701e-02	1.037186280e-11
1.030000000e+01	9.787822090e-02	-2.320147220e-02	1.174177967e-11
1.035000000e+01	9.761902940e-02	-2.324709319e-02	6.872929827e-12
1.040000000e+01	9.736166226e-02	-2.329258100e-02	7.651275341e-12
1.045000000e+01	9.710609781e-02	-2.333793665e-02	1.303709245e-11
1.050000000e+01	9.685231474e-02	-2.338316112e-02	1.333614219e-11
1.055000000e+01	9.660029207e-02	-2.342825542e-02	2.358685767e-11
1.060000000e+01	9.635000920e-02	-2.347322050e-02	2.124140222e-11
1.065000000e+01	9.610144583e-02	-2.351805735e-02	1.929286237e-11
1.070000000e+01	9.585458203e-02	-2.356276691e-02	1.360297468e-11
1.075000000e+01	9.560939816e-02	-2.360735013e-02	7.948341992e-12
1.080000000e+01	9.536587493e-02	-2.365180796e-02	7.942975860e-12
1.085000000e+01	9.512399333e-02	-2.369614131e-02	7.930421841e-12
1.090000000e+01	9.488373467e-02	-2.374035111e-02	1.480499620e-11
1.095000000e+01	9.464508056e-02	-2.378443826e-02	3.427495397e-11
1.100000000e+01	9.440801289e-02	-2.382840367e-02	1.167153461e-11
1.105000000e+01	9.417251385e-02	-2.387224822e-02	9.282355616e-12
1.110000000e+01	9.393856590e-02	-2.391597279e-02	1.322447843e-11
1.115000000e+01	9.370615179e-02	-2.395957826e-02	1.143120567e-11
1.120000000e+01	9.347525452e-02	-2.400306549e-02	1.108212777e-11
1.125000000e+01	9.324585736e-02	-2.404643534e-02	1.350886910e-11
1.130000000e+01	9.301794385e-02	-2.408968864e-02	3.059272717e-11
1.135000000e+01	9.279149776e-02	-2.413282625e-02	1.269969617e-11
1.140000000e+01	9.256650314e-02	-2.417584899e-02	1.163769256e-11
1.145000000e+01	9.234294425e-02	-2.421875767e-02	7.734671516e-12
1.150000000e+01	9.212080561e-02	-2.426155312e-02	1.011251171e-11
1.155000000e+01	9.190007197e-02	-2.430423614e-02	2.857927897e-11
1.160000000e+01	9.168072830e-02	-2.434680752e-02	5.542024101e-12
1.165000000e+01	9.146275982e-02	-2.438926806e-02	1.149759552e-11
1.170000000e+01	9.124615194e-02	-2.443161853e-02	1.088740075e-11
1.175000000e+01	9.103089031e-02	-2.447385972e-02	1.521713474e-11
1.180000000e+01	9.081696078e-02	-2.451599238e-02	1.382599344e-11
1.185000000e+01	9.060434941e-02	-2.455801727e-02	1.529314648e-11
1.190000000e+01	9.039304247e-02	-2.459993516e-02	1.101420911e-11
1.195000000e+01	9.018302642e-02	-2.464174678e-02	1.488609600e-11
1.200000000e+01	8.997428793e-02	-2.468345286e-02	6.791164993e-12
1.205000000e+01	8.976681386e-02	-2.472505415e-02	3.278115734e-12
1.210000000e+01	8.956059124e-02	-2.476655136e-02	7.140569152e-12
1.215000000e+01	8.935560732e-02	-2.480794521e-02	1.936213019e-11
1.220000000e+01	8.915184952e-02	-2.484923640e-02	1.740605797e-11
1.225000000e+01	8.894930541e-02	-2.489042565e-02	6.307110929e-12
1.230000000e+01	8.874796279e-02	-2.493151364e-02	7.087513843e-12
1.235000000e+01	8.854780958e-02	-2.497250107e-02	9.545006367e-12
1.240000000e+01	8.834883390e-02	-2.501338861e-02	1.209356369e-11
1.245000000e+01	8.815102404e-02	-2.505417695e-02	1.163358186e-11
1.250000000e+01	8.795436843e-02	-2.509486675e-02	9.836958344e-12
1.255000000e+01	8.775885569e-02	-2.513545868e-02	1.862620411e-11
1.260000000e+01	8.756447457e-02	-2.517595339e-02	6.758892087e-12
1.265000000e+01	8.737121399e-02	-2.521635153e-02	1.455352644e-11
1.270000000e+01	8.717906302e-02	-2.525665376e-02	1.297973911e-11
1.275000000e+01	8.698801088e-02	-2.529686071e-02	9.725338083e-12
1.280000000e+01	8.679804694e-02	-2.533697300e-02	6.786154783e-12
1.285000000e+01	8.660916070e-02	-2.537699128e-02	9.845403452e-12
1.290000000e+01	8.642134182e-02	-2.541691615e-02	2.102772288e-11
1.295000000e+01	8.623458010e-02	-2.545674824e-02	9.354409556e-12
1.300000000e+01	8.604886546e-02	-2.549648815e-02	9.311157010e-12
1.305000000e+01	8.586418796e-02	-2.553613649e-02	5.053306389e-12
1.310000000e+01	8.568053780e-02	-2.557569385e-02	1.241133039e-11
1.315000000e+01	8.549790531e-02	-2.561516083e-02	1.186215234e-11
1.320000000e+01	8.531628094e-02	-2.565453803e-02	8.877255348e-12
1.325000000e+01	8.513565527e-02	-2.569382600e-02	7.309590815e-12
1.330000000e+01	8.495601901e-02	-2.573302534e-02	9.961837564e-12
1.335000000e+01	8.477736298e-02	-2.577213661e-02	2.484326716e-12
1.340000000e+01	8.459967812e-02	-2.581116039e-02	1.036997392e-11
1.345000000e+01	8.442295550e-02	-2.585009723e-02	1.507328368e-11
1.350000000e+01	8.424718629e-02	-2.588894769e-02	9.743413024e-12
1.355000000e+01	8.407236179e-02	-2.592771231e-02	5.243285382e-12
1.360000000e+01	8.389847339e-02	-2.596639164e-02	1.355861328e-11
1.365000000e+01	8.372551262e-02	-2.600498624e-02	2.151775735e-11
1.370000000e+01	8.355347108e-02	-2.604349661e-02	2.007041375e-11
1.375000000e+01	8.338234052e-02	-2.608192332e-02	1.071336533e-11
1.380000000e+01	8.321211275e-02	-2.612026686e-02	8.684619715e-12
1.385000000e+01	8.304277972e-02	-2.615852777e-02	9.009996663e-12
1.390000000e+01	8.287433346e-02	-2.619670656e-02	5.193594815e-12
1.395000000e+01	8.270676611e-02	-2.623480375e-02	1.056012007e-11
1.400000000e+01	8.254006990e-02	-2.627281984e-02	7.686822991e-12
1.405000000e+01	8.237423715e-02	-2.631075533e-02	7.704243900e-12
1.410000000e+01	8.220926030e-02	-2.634861073e-02	6.271882029e-12
1.415000000e+01	8.204513186e-02	-2.638638652e-02	6.141262895e-12
1.420000000e+01	8.188184445e-02	-2.642408319e-02	7.271875168e-12
1.425000000e+01	8.171939075e-02	-2.646170123e-02	1.944607963e-11
1.430000000e+01	8.155776357e-02	-2.649924112e-02	7.812117881e-12
1.435000000e+01	8.139695578e-02	-2.653670334e-02	2.065521495e-11
1.440000000e+01	8.123696035e-02	-2.657408835e-02	6.637597444e-12
1.445000000e+01	8.107777031e-02	-2.661139663e-02	8.874105094e-12
1.450000000e+01	8.091937881e-02	-2.664862862e-02	8.426204299e-12
1.455000000e+01	8.076177905e-02	-2.668578481e-02	1.363670692e-11
1.460000000e+01	8.060496434e-02	-2.672286563e-02	1.477902384e-11
1.465000000e+01	8.044892805e-02	-2.675987155e-02	1.250720496e-11
1.470000000e+01	8.029366363e-02	-2.679680301e-02	1.132447072e-11
1.475000000e+01	8.013916461e-02	-2.683366044e-02	2.761983021e-11
1.480000000e+01	7.998542461e-02	-2.687044430e-02	1.007340449e-11
1.485000000e+01	7.983243730e-02	-2.690715501e-02	1.759117496e-11
1.490000000e+01	7.968019644e-02	-2.694379301e-02	1.609248326e-11
1.495000000e+01	7.952869585e-02	-2.698035871e-02	4.530303675e-12
1.500000000e+01	7.937792945e-02	-2.701685255e-02	1.221214442e-11
1.505000000e+01	7.922789121e-02	-2.705327495e-02	8.617149780e-12
1.510000000e+01	7.907857515e-02	-2.708962631e-02	1.159360168e-11
1.515000000e+01	7.892997540e-02	-2.712590707e-02	1.261259155e-11
1.520000000e+01	7.878208613e-02	-2.716211761e-02	1.315452007e-11
1.525000000e+01	7.863490159e-02	-2.719825835e-02	9.943701662e-12
1.530000000e+01	7.848841608e-02	-2.723432969e-02	4.899709474e-12
1.535000000e+01	7.834262398e-02	-2.727033202e-02	9.078956484e-12
1.540000000e+01	7.819751972e-02	-2.730626575e-02	1.398949476e-11
1.545000000e+01	7.805309782e-02	-2.734213125e-02	1.669531639e-11
1.550000000e+01	7.790935283e-02	-2.737792892e-02	1.248357654e-11
1.555000000e+01	7.776627936e-02	-2.741365914e-02	9.430025020e-12
1.560000000e+01	7.762387212e-02	-2.744932230e-02	9.495231813e-12
1.565000000e+01	7.748212584e-02	-2.748491876e-02	1.301120254e-11
1.570000000e+01	7.734103532e-02	-2.752044891e-02	1.983789241e-11
