# Ep [eV]     Omega/c [1/micrones]    Im(epsi1)     Eq(det).Opt det SIN kz nano,R = 0.30 $\mu$m, $\mu_c$ = 0.3 eV, modo = 3, $\epsilon_\infty$ = 3.9, $\gamma_{DL}$ = 0.01 eV, solve_det_sinkz_vs_Ep.py
0.000000000e+00	2.992275090e-01	-3.162140965e-02	1.717017966e-13
1.000000000e-04	2.992275932e-01	-3.162186803e-02	2.012718909e-13
2.000000000e-04	2.992278459e-01	-3.162324318e-02	1.130056527e-13
3.000000000e-04	2.992282670e-01	-3.162553507e-02	1.065749339e-13
4.000000000e-04	2.992288566e-01	-3.162874369e-02	1.592597031e-13
5.000000000e-04	2.992296147e-01	-3.163286900e-02	2.473002785e-13
6.000000000e-04	2.992305412e-01	-3.163791097e-02	3.382782330e-13
7.000000000e-04	2.992316361e-01	-3.164386953e-02	7.900795114e-14
8.000000000e-04	2.992328995e-01	-3.165074464e-02	1.457593877e-13
9.000000000e-04	2.992343313e-01	-3.165853622e-02	1.388316913e-13
1.000000000e-03	2.992359316e-01	-3.166724419e-02	2.442490654e-14
1.100000000e-03	2.992377004e-01	-3.167686847e-02	1.065814104e-13
1.200000000e-03	2.992396375e-01	-3.168740896e-02	2.208690978e-13
1.300000000e-03	2.992417431e-01	-3.169886555e-02	3.078742733e-13
1.400000000e-03	2.992440172e-01	-3.171123814e-02	2.694919064e-13
1.500000000e-03	2.992464596e-01	-3.172452659e-02	1.551950423e-13
1.600000000e-03	2.992490705e-01	-3.173873077e-02	5.475682987e-13
1.700000000e-03	2.992518498e-01	-3.175385054e-02	2.309263891e-13
1.800000000e-03	2.992547976e-01	-3.176988575e-02	7.494983993e-14
1.900000000e-03	2.992579137e-01	-3.178683624e-02	4.212063836e-14
2.000000000e-03	2.992611983e-01	-3.180470183e-02	6.169484474e-14
2.100000000e-03	2.992646512e-01	-3.182348236e-02	3.957094028e-13
2.200000000e-03	2.992682726e-01	-3.184317762e-02	1.789299300e-13
2.300000000e-03	2.992720623e-01	-3.186378742e-02	2.220446049e-14
2.400000000e-03	2.992760205e-01	-3.188531156e-02	2.010993643e-13
2.500000000e-03	2.992801470e-01	-3.190774982e-02	6.222480645e-14
2.600000000e-03	2.992844419e-01	-3.193110197e-02	2.002876800e-13
2.700000000e-03	2.992889052e-01	-3.195536779e-02	7.079289040e-14
2.800000000e-03	2.992935368e-01	-3.198054702e-02	7.942247172e-14
2.900000000e-03	2.992983368e-01	-3.200663942e-02	1.902630760e-13
3.000000000e-03	2.993033051e-01	-3.203364472e-02	6.152358766e-14
3.100000000e-03	2.993084418e-01	-3.206156266e-02	1.690084747e-13
3.200000000e-03	2.993137468e-01	-3.209039294e-02	3.384647406e-13
3.300000000e-03	2.993192201e-01	-3.212013530e-02	1.814407432e-13
3.400000000e-03	2.993248618e-01	-3.215078942e-02	2.264458738e-13
3.500000000e-03	2.993306717e-01	-3.218235500e-02	1.137423353e-13
3.600000000e-03	2.993366500e-01	-3.221483172e-02	1.383970375e-13
3.700000000e-03	2.993427966e-01	-3.224821926e-02	2.699919962e-13
3.800000000e-03	2.993491114e-01	-3.228251728e-02	8.598489181e-14
3.900000000e-03	2.993555945e-01	-3.231772545e-02	7.701203478e-14
4.000000000e-03	2.993622459e-01	-3.235384340e-02	4.471043321e-13
4.100000000e-03	2.993690655e-01	-3.239087078e-02	1.784912707e-13
4.200000000e-03	2.993760533e-01	-3.242880722e-02	9.700376329e-14
4.300000000e-03	2.993832094e-01	-3.246765233e-02	1.369639088e-13
4.400000000e-03	2.993905337e-01	-3.250740574e-02	1.654403675e-13
4.500000000e-03	2.993980263e-01	-3.254806703e-02	6.010809385e-14
4.600000000e-03	2.994056870e-01	-3.258963580e-02	2.978895338e-13
4.700000000e-03	2.994135159e-01	-3.263211165e-02	1.224817041e-13
4.800000000e-03	2.994215130e-01	-3.267549414e-02	1.986424488e-13
4.900000000e-03	2.994296782e-01	-3.271978283e-02	1.225436796e-13
5.000000000e-03	2.994380116e-01	-3.276497730e-02	1.162699847e-13
5.100000000e-03	2.994465132e-01	-3.281107708e-02	5.149889861e-13
5.200000000e-03	2.994551828e-01	-3.285808171e-02	3.876855563e-13
5.300000000e-03	2.994640206e-01	-3.290599073e-02	1.941523286e-13
5.400000000e-03	2.994730265e-01	-3.295480366e-02	3.944792233e-13
5.500000000e-03	2.994822005e-01	-3.300452001e-02	1.709207006e-13
5.600000000e-03	2.994915425e-01	-3.305513928e-02	2.283469407e-13
5.700000000e-03	2.995010526e-01	-3.310666097e-02	3.400160560e-13
5.800000000e-03	2.995107307e-01	-3.315908456e-02	3.145907401e-13
5.900000000e-03	2.995205769e-01	-3.321240953e-02	5.498821555e-14
6.000000000e-03	2.995305911e-01	-3.326663535e-02	6.726888856e-14
6.100000000e-03	2.995407733e-01	-3.332176148e-02	1.615044452e-13
6.200000000e-03	2.995511234e-01	-3.337778736e-02	9.769962617e-14
6.300000000e-03	2.995616416e-01	-3.343471245e-02	1.887144021e-13
6.400000000e-03	2.995723277e-01	-3.349253617e-02	6.500258628e-14
6.500000000e-03	2.995831817e-01	-3.355125794e-02	4.331418138e-13
6.600000000e-03	2.995942036e-01	-3.361087718e-02	2.124701188e-13
6.700000000e-03	2.996053935e-01	-3.367139330e-02	7.038638860e-14
6.800000000e-03	2.996167512e-01	-3.373280569e-02	1.596746206e-13
6.900000000e-03	2.996282769e-01	-3.379511375e-02	1.712048861e-13
7.000000000e-03	2.996399703e-01	-3.385831685e-02	8.709584643e-14
7.100000000e-03	2.996518316e-01	-3.392241436e-02	2.880602383e-13
7.200000000e-03	2.996638608e-01	-3.398740565e-02	5.713583500e-14
7.300000000e-03	2.996760577e-01	-3.405329006e-02	2.585899857e-13
7.400000000e-03	2.996884224e-01	-3.412006695e-02	1.432144669e-13
7.500000000e-03	2.997009549e-01	-3.418773565e-02	3.552713679e-14
7.600000000e-03	2.997136551e-01	-3.425629549e-02	8.881784197e-14
7.700000000e-03	2.997265230e-01	-3.432574578e-02	8.757569832e-14
7.800000000e-03	2.997395587e-01	-3.439608584e-02	1.755472907e-13
7.900000000e-03	2.997527620e-01	-3.446731496e-02	6.308268077e-13
8.000000000e-03	2.997661330e-01	-3.453943245e-02	4.674789395e-13
8.100000000e-03	2.997796717e-01	-3.461243758e-02	5.968829922e-14
8.200000000e-03	2.997933779e-01	-3.468632963e-02	5.718241384e-14
8.300000000e-03	2.998072518e-01	-3.476110786e-02	2.605956199e-13
8.400000000e-03	2.998212933e-01	-3.483677154e-02	1.743750085e-13
8.500000000e-03	2.998355023e-01	-3.491331992e-02	2.417612033e-13
8.600000000e-03	2.998498789e-01	-3.499075223e-02	5.901811936e-13
8.700000000e-03	2.998644230e-01	-3.506906771e-02	1.137423353e-13
8.800000000e-03	2.998791346e-01	-3.514826558e-02	9.792569871e-13
8.900000000e-03	2.998940137e-01	-3.522834506e-02	5.685035733e-14
9.000000000e-03	2.999090602e-01	-3.530930535e-02	2.900211958e-14
9.100000000e-03	2.999242742e-01	-3.539114566e-02	2.635604923e-13
9.200000000e-03	2.999396556e-01	-3.547386517e-02	8.165446939e-14
9.300000000e-03	2.999552044e-01	-3.555746307e-02	7.630171199e-13
9.400000000e-03	2.999709205e-01	-3.564193853e-02	1.486233300e-13
9.500000000e-03	2.999868040e-01	-3.572729071e-02	1.024759307e-13
9.600000000e-03	3.000028548e-01	-3.581351877e-02	1.214987824e-13
9.700000000e-03	3.000190729e-01	-3.590062186e-02	9.342775774e-14
9.800000000e-03	3.000354582e-01	-3.598859912e-02	1.464821376e-13
9.900000000e-03	3.000520108e-01	-3.607744968e-02	1.223624942e-13
1.000000000e-02	3.000687307e-01	-3.616717266e-02	1.038836580e-13
1.010000000e-02	3.000856177e-01	-3.625776718e-02	4.976970205e-14
1.020000000e-02	3.001026719e-01	-3.634923234e-02	5.241654381e-13
1.030000000e-02	3.001198932e-01	-3.644156724e-02	8.260059303e-14
1.040000000e-02	3.001372817e-01	-3.653477098e-02	9.808642924e-14
1.050000000e-02	3.001548372e-01	-3.662884263e-02	1.818164355e-13
1.060000000e-02	3.001725599e-01	-3.672378127e-02	2.219806469e-13
1.070000000e-02	3.001904495e-01	-3.681958597e-02	2.100541963e-13
1.080000000e-02	3.002085062e-01	-3.691625577e-02	1.989921084e-13
1.090000000e-02	3.002267299e-01	-3.701378973e-02	5.595524044e-14
1.100000000e-02	3.002451205e-01	-3.711218689e-02	1.950077589e-13
1.110000000e-02	3.002636781e-01	-3.721144629e-02	1.992392271e-13
1.120000000e-02	3.002824025e-01	-3.731156694e-02	2.292468336e-13
1.130000000e-02	3.003012939e-01	-3.741254786e-02	1.255194407e-13
1.140000000e-02	3.003203521e-01	-3.751438807e-02	5.684515356e-14
1.150000000e-02	3.003395771e-01	-3.761708656e-02	5.690583464e-14
1.160000000e-02	3.003589689e-01	-3.772064233e-02	2.411927773e-13
1.170000000e-02	3.003785275e-01	-3.782505435e-02	8.881784197e-14
1.180000000e-02	3.003982528e-01	-3.793032161e-02	1.712048861e-13
1.190000000e-02	3.004181448e-01	-3.803644307e-02	5.773159728e-14
1.200000000e-02	3.004382035e-01	-3.814341770e-02	5.942338451e-14
1.210000000e-02	3.004584288e-01	-3.825124444e-02	8.842057057e-13
1.220000000e-02	3.004788208e-01	-3.835992225e-02	8.165446939e-14
1.230000000e-02	3.004993793e-01	-3.846945005e-02	2.184341159e-13
1.240000000e-02	3.005201044e-01	-3.857982678e-02	9.493542986e-14
1.250000000e-02	3.005409960e-01	-3.869105136e-02	1.242696194e-13
1.260000000e-02	3.005620541e-01	-3.880312270e-02	7.727152251e-14
1.270000000e-02	3.005832787e-01	-3.891603970e-02	1.087501848e-13
1.280000000e-02	3.006046697e-01	-3.902980127e-02	7.052494599e-14
1.290000000e-02	3.006262271e-01	-3.914440630e-02	1.458588007e-13
1.300000000e-02	3.006479509e-01	-3.925985366e-02	3.187607881e-13
1.310000000e-02	3.006698410e-01	-3.937614223e-02	3.291692755e-13
1.320000000e-02	3.006918974e-01	-3.949327087e-02	1.536420311e-13
1.330000000e-02	3.007141201e-01	-3.961123846e-02	1.022302621e-13
1.340000000e-02	3.007365090e-01	-3.973004383e-02	4.609919802e-13
1.350000000e-02	3.007590641e-01	-3.984968583e-02	5.197930935e-14
1.360000000e-02	3.007817854e-01	-3.997016330e-02	1.804691346e-13
1.370000000e-02	3.008046728e-01	-4.009147506e-02	8.556067555e-14
1.380000000e-02	3.008277264e-01	-4.021361994e-02	8.233275022e-14
1.390000000e-02	3.008509460e-01	-4.033659675e-02	3.691415260e-13
1.400000000e-02	3.008743316e-01	-4.046040430e-02	1.994909827e-13
1.410000000e-02	3.008978832e-01	-4.058504138e-02	1.331860486e-13
1.420000000e-02	3.009216008e-01	-4.071050679e-02	1.287858709e-13
1.430000000e-02	3.009454844e-01	-4.083679930e-02	3.288566807e-13
1.440000000e-02	3.009695338e-01	-4.096391770e-02	1.642049504e-13
1.450000000e-02	3.009937491e-01	-4.109186076e-02	6.675155715e-13
1.460000000e-02	3.010181302e-01	-4.122062723e-02	8.191610388e-14
1.470000000e-02	3.010426771e-01	-4.135021587e-02	1.721193762e-13
1.480000000e-02	3.010673898e-01	-4.148062542e-02	6.770997469e-13
1.490000000e-02	3.010922681e-01	-4.161185463e-02	2.213614329e-13
1.500000000e-02	3.011173122e-01	-4.174390222e-02	5.123796534e-14
1.510000000e-02	3.011425219e-01	-4.187676693e-02	5.874244475e-14
1.520000000e-02	3.011678971e-01	-4.201044747e-02	6.483702464e-14
1.530000000e-02	3.011934380e-01	-4.214494255e-02	2.870135886e-14
1.540000000e-02	3.012191444e-01	-4.228025087e-02	6.395501383e-14
1.550000000e-02	3.012450163e-01	-4.241637113e-02	2.191952543e-13
1.560000000e-02	3.012710536e-01	-4.255330202e-02	3.137986018e-14
1.570000000e-02	3.012972563e-01	-4.269104221e-02	3.605358975e-13
1.580000000e-02	3.013236245e-01	-4.282959040e-02	3.404725133e-13
1.590000000e-02	3.013501579e-01	-4.296894523e-02	1.547579216e-13
1.600000000e-02	3.013768567e-01	-4.310910538e-02	1.115937071e-13
1.610000000e-02	3.014037207e-01	-4.325006949e-02	2.001384484e-13
1.620000000e-02	3.014307499e-01	-4.339183622e-02	1.065814104e-13
1.630000000e-02	3.014579443e-01	-4.353440420e-02	5.460852898e-14
1.640000000e-02	3.014853039e-01	-4.367777207e-02	5.044861242e-14
1.650000000e-02	3.015128285e-01	-4.382193845e-02	1.568238655e-13
1.660000000e-02	3.015405182e-01	-4.396690196e-02	2.066995564e-13
1.670000000e-02	3.015683730e-01	-4.411266121e-02	1.205078437e-13
1.680000000e-02	3.015963927e-01	-4.425921481e-02	1.017381145e-13
1.690000000e-02	3.016245773e-01	-4.440656136e-02	1.357983850e-13
1.700000000e-02	3.016529269e-01	-4.455469944e-02	7.357554449e-14
1.710000000e-02	3.016814413e-01	-4.470362766e-02	1.427316814e-14
1.720000000e-02	3.017101205e-01	-4.485334457e-02	3.305408226e-14
1.730000000e-02	3.017389644e-01	-4.500384876e-02	1.060528549e-12
1.740000000e-02	3.017679732e-01	-4.515513878e-02	1.476087335e-13
1.750000000e-02	3.017971465e-01	-4.530721321e-02	1.315411430e-13
1.760000000e-02	3.018264846e-01	-4.546007058e-02	1.709512747e-13
1.770000000e-02	3.018559872e-01	-4.561370945e-02	2.700193866e-13
1.780000000e-02	3.018856544e-01	-4.576812835e-02	4.244547425e-13
1.790000000e-02	3.019154861e-01	-4.592332582e-02	4.969808677e-13
1.800000000e-02	3.019454822e-01	-4.607930037e-02	1.908576390e-13
1.810000000e-02	3.019756428e-01	-4.623605054e-02	1.705880709e-13
1.820000000e-02	3.020059678e-01	-4.639357483e-02	3.096483469e-13
1.830000000e-02	3.020364571e-01	-4.655187175e-02	7.324106878e-14
1.840000000e-02	3.020671107e-01	-4.671093980e-02	1.890485210e-13
1.850000000e-02	3.020979285e-01	-4.687077747e-02	9.579571447e-14
1.860000000e-02	3.021289106e-01	-4.703138325e-02	6.748899568e-13
1.870000000e-02	3.021600568e-01	-4.719275562e-02	2.577860405e-13
1.880000000e-02	3.021913671e-01	-4.735489306e-02	1.122658928e-13
1.890000000e-02	3.022228415e-01	-4.751779403e-02	4.521222933e-13
1.900000000e-02	3.022544799e-01	-4.768145700e-02	5.123796534e-14
1.910000000e-02	3.022862823e-01	-4.784588042e-02	2.768129556e-13
1.920000000e-02	3.023182486e-01	-4.801106274e-02	2.940085227e-13
1.930000000e-02	3.023503788e-01	-4.817700241e-02	2.142338084e-13
1.940000000e-02	3.023826728e-01	-4.834369786e-02	2.792682105e-13
1.950000000e-02	3.024151306e-01	-4.851114753e-02	7.191592511e-13
1.960000000e-02	3.024477521e-01	-4.867934984e-02	1.688940802e-13
1.970000000e-02	3.024805373e-01	-4.884830321e-02	1.465904781e-13
1.980000000e-02	3.025134862e-01	-4.901800606e-02	1.682910617e-13
1.990000000e-02	3.025465987e-01	-4.918845678e-02	7.194245200e-14
2.000000000e-02	3.025798747e-01	-4.935965379e-02	4.265337575e-14
2.010000000e-02	3.026133142e-01	-4.953159548e-02	1.352548765e-13
2.020000000e-02	3.026469172e-01	-4.970428024e-02	1.478923753e-13
2.030000000e-02	3.026806836e-01	-4.987770645e-02	4.110117012e-13
2.040000000e-02	3.027146133e-01	-5.005187250e-02	2.549493682e-13
2.050000000e-02	3.027487063e-01	-5.022677674e-02	2.579546754e-13
2.060000000e-02	3.027829626e-01	-5.040241756e-02	5.472397291e-14
2.070000000e-02	3.028173821e-01	-5.057879331e-02	1.989762507e-13
2.080000000e-02	3.028519648e-01	-5.075590235e-02	1.785945491e-13
2.090000000e-02	3.028867105e-01	-5.093374303e-02	1.484082089e-13
2.100000000e-02	3.029216193e-01	-5.111231369e-02	1.296740493e-13
2.110000000e-02	3.029566911e-01	-5.129161266e-02	1.197897203e-13
2.120000000e-02	3.029919259e-01	-5.147163829e-02	2.807911844e-13
2.130000000e-02	3.030273235e-01	-5.165238891e-02	1.653539203e-13
2.140000000e-02	3.030628841e-01	-5.183386282e-02	4.179396200e-14
2.150000000e-02	3.030986074e-01	-5.201605835e-02	1.202161877e-13
2.160000000e-02	3.031344934e-01	-5.219897381e-02	8.819392567e-14
2.170000000e-02	3.031705422e-01	-5.238260751e-02	4.682882289e-13
2.180000000e-02	3.032067536e-01	-5.256695774e-02	1.974235032e-13
2.190000000e-02	3.032431276e-01	-5.275202281e-02	1.542371119e-13
2.200000000e-02	3.032796641e-01	-5.293780099e-02	1.559461484e-13
2.210000000e-02	3.033163631e-01	-5.312429058e-02	2.335187276e-13
2.220000000e-02	3.033532245e-01	-5.331148985e-02	1.563704890e-13
2.230000000e-02	3.033902484e-01	-5.349939708e-02	1.153683596e-13
2.240000000e-02	3.034274345e-01	-5.368801053e-02	7.945226352e-14
2.250000000e-02	3.034647829e-01	-5.387732848e-02	9.296750665e-14
2.260000000e-02	3.035022936e-01	-5.406734917e-02	1.060211254e-13
2.270000000e-02	3.035399664e-01	-5.425807086e-02	2.278744590e-13
2.280000000e-02	3.035778013e-01	-5.444949180e-02	7.132575957e-14
2.290000000e-02	3.036157983e-01	-5.464161023e-02	5.575044364e-14
2.300000000e-02	3.036539573e-01	-5.483442440e-02	1.406914988e-13
2.310000000e-02	3.036922782e-01	-5.502793252e-02	9.433525254e-14
2.320000000e-02	3.037307610e-01	-5.522213284e-02	3.739666245e-13
2.330000000e-02	3.037694056e-01	-5.541702357e-02	1.106067454e-13
2.340000000e-02	3.038082121e-01	-5.561260294e-02	7.324106878e-14
2.350000000e-02	3.038471802e-01	-5.580886915e-02	1.730153552e-13
2.360000000e-02	3.038863101e-01	-5.600582042e-02	2.301393516e-13
2.370000000e-02	3.039256015e-01	-5.620345495e-02	9.038606502e-14
2.380000000e-02	3.039650545e-01	-5.640177093e-02	8.881784197e-14
2.390000000e-02	3.040046690e-01	-5.660076657e-02	1.442490350e-13
2.400000000e-02	3.040444449e-01	-5.680044005e-02	1.153683596e-13
2.410000000e-02	3.040843822e-01	-5.700078956e-02	1.197724324e-13
2.420000000e-02	3.041244809e-01	-5.720181327e-02	1.655248154e-12
2.430000000e-02	3.041647408e-01	-5.740350937e-02	7.776634821e-14
2.440000000e-02	3.042051619e-01	-5.760587603e-02	5.778324225e-13
2.450000000e-02	3.042457442e-01	-5.780891141e-02	6.383927202e-14
2.460000000e-02	3.042864876e-01	-5.801261367e-02	3.089239805e-13
2.470000000e-02	3.043273920e-01	-5.821698098e-02	1.240909540e-13
2.480000000e-02	3.043684574e-01	-5.842201148e-02	2.142720083e-13
2.490000000e-02	3.044096837e-01	-5.862770332e-02	1.304504023e-13
2.500000000e-02	3.044510709e-01	-5.883405466e-02	5.598950588e-13
2.510000000e-02	3.044926189e-01	-5.904106362e-02	4.568942077e-14
2.520000000e-02	3.045343277e-01	-5.924872835e-02	1.321633663e-13
2.530000000e-02	3.045761971e-01	-5.945704698e-02	6.985058839e-14
2.540000000e-02	3.046182272e-01	-5.966601764e-02	1.073272759e-13
2.550000000e-02	3.046604178e-01	-5.987563844e-02	1.435693094e-13
2.560000000e-02	3.047027689e-01	-6.008590751e-02	1.890714700e-13
2.570000000e-02	3.047452805e-01	-6.029682296e-02	1.807443084e-13
2.580000000e-02	3.047879524e-01	-6.050838290e-02	2.718003739e-13
2.590000000e-02	3.048307847e-01	-6.072058545e-02	5.901462728e-13
2.600000000e-02	3.048737772e-01	-6.093342869e-02	7.229248576e-14
2.610000000e-02	3.049169300e-01	-6.114691074e-02	1.351965399e-13
2.620000000e-02	3.049602429e-01	-6.136102969e-02	8.647889105e-14
2.630000000e-02	3.050037158e-01	-6.157578362e-02	2.562883423e-13
2.640000000e-02	3.050473488e-01	-6.179117062e-02	2.571794194e-13
2.650000000e-02	3.050911417e-01	-6.200718879e-02	1.514624177e-13
2.660000000e-02	3.051350946e-01	-6.222383618e-02	9.697021187e-14
2.670000000e-02	3.051792072e-01	-6.244111089e-02	1.485629416e-13
2.680000000e-02	3.052234797e-01	-6.265901099e-02	2.042424164e-13
2.690000000e-02	3.052679118e-01	-6.287753453e-02	1.282372475e-13
2.700000000e-02	3.053125036e-01	-6.309667959e-02	2.287749174e-13
2.710000000e-02	3.053572550e-01	-6.331644422e-02	1.534680045e-13
2.720000000e-02	3.054021658e-01	-6.353682649e-02	1.075246271e-13
2.730000000e-02	3.054472362e-01	-6.375782444e-02	3.685940442e-14
2.740000000e-02	3.054924659e-01	-6.397943613e-02	1.293519888e-13
2.750000000e-02	3.055378549e-01	-6.420165960e-02	2.399134158e-13
2.760000000e-02	3.055834032e-01	-6.442449289e-02	1.313130568e-13
2.770000000e-02	3.056291107e-01	-6.464793404e-02	7.859375359e-14
2.780000000e-02	3.056749774e-01	-6.487198109e-02	1.996663807e-13
2.790000000e-02	3.057210031e-01	-6.509663208e-02	2.568356457e-13
2.800000000e-02	3.057671878e-01	-6.532188502e-02	1.260368678e-13
2.810000000e-02	3.058135314e-01	-6.554773794e-02	1.193410742e-13
2.820000000e-02	3.058600340e-01	-6.577418887e-02	5.718241384e-14
2.830000000e-02	3.059066953e-01	-6.600123583e-02	9.948812533e-13
2.840000000e-02	3.059535154e-01	-6.622887683e-02	1.608026118e-13
2.850000000e-02	3.060004941e-01	-6.645710988e-02	1.585497992e-13
2.860000000e-02	3.060476315e-01	-6.668593299e-02	7.119291619e-14
2.870000000e-02	3.060949274e-01	-6.691534417e-02	1.013701108e-13
2.880000000e-02	3.061423817e-01	-6.714534142e-02	6.383927202e-14
2.890000000e-02	3.061899945e-01	-6.737592275e-02	2.289106499e-13
2.900000000e-02	3.062377657e-01	-6.760708614e-02	4.244944667e-14
2.910000000e-02	3.062856951e-01	-6.783882959e-02	4.200513518e-13
2.920000000e-02	3.063337827e-01	-6.807115109e-02	1.392826887e-13
2.930000000e-02	3.063820285e-01	-6.830404863e-02	2.113122805e-13
2.940000000e-02	3.064304323e-01	-6.853752020e-02	1.819709388e-13
2.950000000e-02	3.064789941e-01	-6.877156377e-02	1.570902417e-13
2.960000000e-02	3.065277139e-01	-6.900617733e-02	1.418223766e-13
2.970000000e-02	3.065765916e-01	-6.924135885e-02	1.138012719e-13
2.980000000e-02	3.066256270e-01	-6.947710631e-02	5.050135945e-14
2.990000000e-02	3.066748202e-01	-6.971341767e-02	3.382598681e-13
3.000000000e-02	3.067241711e-01	-6.995029091e-02	1.604637565e-13
3.010000000e-02	3.067736795e-01	-7.018772398e-02	1.003140415e-13
3.020000000e-02	3.068233455e-01	-7.042571486e-02	4.367680030e-14
3.030000000e-02	3.068731690e-01	-7.066426149e-02	1.024759307e-13
