# Ep [eV]     Omega/c [1/micrones]    Im(epsi1)     Eq(det).Opt det SIN kz nano,R = 0.30 $\mu$m, $\mu_c$ = 0.3 eV, modo = 2, $\epsilon_\infty$ = 3.9, $\gamma_{DL}$ = 0.01 eV, solve_det_sinkz_vs_Ep.py
0.000000000e+00	2.446503302e-01	-2.877744442e-02	1.055795829e-13
1.000000000e-04	2.446504321e-01	-2.877827515e-02	1.396702926e-13
2.000000000e-04	2.446507379e-01	-2.878076735e-02	5.175131924e-13
3.000000000e-04	2.446512476e-01	-2.878492097e-02	6.032792960e-14
4.000000000e-04	2.446519611e-01	-2.879073596e-02	8.544563758e-14
5.000000000e-04	2.446528785e-01	-2.879821222e-02	1.388034553e-13
6.000000000e-04	2.446539998e-01	-2.880734966e-02	2.219629885e-13
7.000000000e-04	2.446553249e-01	-2.881814812e-02	1.209882319e-13
8.000000000e-04	2.446568539e-01	-2.883060746e-02	2.642151664e-13
9.000000000e-04	2.446585867e-01	-2.884472750e-02	1.794671313e-13
1.000000000e-03	2.446605234e-01	-2.886050802e-02	9.345730545e-14
1.100000000e-03	2.446626639e-01	-2.887794879e-02	3.764337191e-13
1.200000000e-03	2.446650083e-01	-2.889704956e-02	1.773002186e-13
1.300000000e-03	2.446675565e-01	-2.891781005e-02	1.688940802e-13
1.400000000e-03	2.446703085e-01	-2.894022995e-02	2.858404097e-13
1.500000000e-03	2.446732644e-01	-2.896430893e-02	9.368729992e-14
1.600000000e-03	2.446764240e-01	-2.899004664e-02	1.123607135e-13
1.700000000e-03	2.446797875e-01	-2.901744270e-02	7.106676249e-14
1.800000000e-03	2.446833548e-01	-2.904649672e-02	5.688677042e-14
1.900000000e-03	2.446871259e-01	-2.907720825e-02	1.283417816e-13
2.000000000e-03	2.446911008e-01	-2.910957685e-02	1.689736101e-13
2.100000000e-03	2.446952795e-01	-2.914360206e-02	3.238945099e-13
2.200000000e-03	2.446996619e-01	-2.917928336e-02	1.140161750e-13
2.300000000e-03	2.447042481e-01	-2.921662023e-02	1.018642784e-13
2.400000000e-03	2.447090381e-01	-2.925561213e-02	2.641042999e-13
2.500000000e-03	2.447140318e-01	-2.929625849e-02	2.433852985e-13
2.600000000e-03	2.447192292e-01	-2.933855870e-02	1.473026236e-13
2.700000000e-03	2.447246304e-01	-2.938251215e-02	1.639074257e-13
2.800000000e-03	2.447302353e-01	-2.942811819e-02	1.761687119e-13
2.900000000e-03	2.447360438e-01	-2.947537616e-02	1.862217028e-13
3.000000000e-03	2.447420561e-01	-2.952428536e-02	1.481037515e-13
3.100000000e-03	2.447482720e-01	-2.957484507e-02	1.607236402e-13
3.200000000e-03	2.447546916e-01	-2.962705456e-02	2.200644637e-13
3.300000000e-03	2.447613149e-01	-2.968091306e-02	1.368378590e-13
3.400000000e-03	2.447681417e-01	-2.973641977e-02	2.671196597e-13
3.500000000e-03	2.447751722e-01	-2.979357389e-02	1.407155018e-13
3.600000000e-03	2.447824064e-01	-2.985237458e-02	4.886242763e-14
3.700000000e-03	2.447898441e-01	-2.991282098e-02	1.573506837e-13
3.800000000e-03	2.447974853e-01	-2.997491220e-02	1.878791294e-13
3.900000000e-03	2.448053302e-01	-3.003864734e-02	9.059419881e-14
4.000000000e-03	2.448133785e-01	-3.010402546e-02	1.301507212e-13
4.100000000e-03	2.448216304e-01	-3.017104560e-02	1.076566042e-13
4.200000000e-03	2.448300859e-01	-3.023970678e-02	1.622429043e-13
4.300000000e-03	2.448387448e-01	-3.031000801e-02	1.148681188e-13
4.400000000e-03	2.448476071e-01	-3.038194824e-02	5.277112286e-13
4.500000000e-03	2.448566730e-01	-3.045552644e-02	1.817106471e-13
4.600000000e-03	2.448659422e-01	-3.053074152e-02	1.707476812e-13
4.700000000e-03	2.448754149e-01	-3.060759238e-02	2.419764638e-13
4.800000000e-03	2.448850910e-01	-3.068607791e-02	7.994376728e-14
4.900000000e-03	2.448949705e-01	-3.076619695e-02	9.029874601e-14
5.000000000e-03	2.449050533e-01	-3.084794834e-02	1.187405194e-13
5.100000000e-03	2.449153394e-01	-3.093133087e-02	2.408070413e-13
5.200000000e-03	2.449258289e-01	-3.101634335e-02	1.270485211e-13
5.300000000e-03	2.449365216e-01	-3.110298451e-02	9.570122472e-14
5.400000000e-03	2.449474177e-01	-3.119125311e-02	5.563757270e-14
5.500000000e-03	2.449585169e-01	-3.128114784e-02	2.273278091e-13
5.600000000e-03	2.449698194e-01	-3.137266741e-02	4.507505480e-14
5.700000000e-03	2.449813251e-01	-3.146581047e-02	2.431104515e-13
5.800000000e-03	2.449930340e-01	-3.156057568e-02	6.053352962e-14
5.900000000e-03	2.450049460e-01	-3.165696164e-02	7.145421607e-14
6.000000000e-03	2.450170611e-01	-3.175496695e-02	8.845405402e-14
6.100000000e-03	2.450293794e-01	-3.185459020e-02	1.167751978e-13
6.200000000e-03	2.450419007e-01	-3.195582992e-02	1.203410063e-13
6.300000000e-03	2.450546251e-01	-3.205868464e-02	9.030447891e-14
6.400000000e-03	2.450675525e-01	-3.216315287e-02	1.716460809e-13
6.500000000e-03	2.450806829e-01	-3.226923309e-02	8.371081606e-14
6.600000000e-03	2.450940162e-01	-3.237692375e-02	7.108237054e-14
6.700000000e-03	2.451075525e-01	-3.248622329e-02	1.396914711e-13
6.800000000e-03	2.451212917e-01	-3.259713012e-02	4.010755011e-13
6.900000000e-03	2.451352338e-01	-3.270964264e-02	7.392718276e-14
7.000000000e-03	2.451493788e-01	-3.282375920e-02	6.439293543e-14
7.100000000e-03	2.451637265e-01	-3.293947815e-02	1.293519888e-13
7.200000000e-03	2.451782771e-01	-3.305679781e-02	5.160805781e-14
7.300000000e-03	2.451930304e-01	-3.317571648e-02	6.916965657e-14
7.400000000e-03	2.452079865e-01	-3.329623244e-02	1.464067229e-13
7.500000000e-03	2.452231453e-01	-3.341834393e-02	1.281905255e-13
7.600000000e-03	2.452385067e-01	-3.354204920e-02	1.679033120e-13
7.700000000e-03	2.452540708e-01	-3.366734643e-02	5.995204333e-14
7.800000000e-03	2.452698375e-01	-3.379423384e-02	1.242468042e-13
7.900000000e-03	2.452858068e-01	-3.392270956e-02	7.180834639e-14
8.000000000e-03	2.453019786e-01	-3.405277176e-02	8.907061313e-14
8.100000000e-03	2.453183529e-01	-3.418441853e-02	1.758325507e-13
8.200000000e-03	2.453349297e-01	-3.431764800e-02	2.071741610e-13
8.300000000e-03	2.453517089e-01	-3.445245821e-02	1.305622277e-13
8.400000000e-03	2.453686905e-01	-3.458884724e-02	1.599337827e-13
8.500000000e-03	2.453858745e-01	-3.472681311e-02	8.868479311e-14
8.600000000e-03	2.454032608e-01	-3.486635383e-02	1.011285815e-13
8.700000000e-03	2.454208495e-01	-3.500746738e-02	1.819709388e-13
8.800000000e-03	2.454386404e-01	-3.515015174e-02	1.532643484e-13
8.900000000e-03	2.454566335e-01	-3.529440484e-02	1.873535483e-13
9.000000000e-03	2.454748288e-01	-3.544022460e-02	1.327494372e-13
9.100000000e-03	2.454932262e-01	-3.558760893e-02	1.397244678e-13
9.200000000e-03	2.455118258e-01	-3.573655570e-02	1.159166416e-13
9.300000000e-03	2.455306274e-01	-3.588706277e-02	1.198598752e-13
9.400000000e-03	2.455496311e-01	-3.603912798e-02	8.194985347e-13
9.500000000e-03	2.455688367e-01	-3.619274914e-02	2.574675894e-13
9.600000000e-03	2.455882443e-01	-3.634792403e-02	1.285444582e-13
9.700000000e-03	2.456078539e-01	-3.650465044e-02	1.743750085e-13
9.800000000e-03	2.456276652e-01	-3.666292612e-02	1.602965209e-13
9.900000000e-03	2.456476785e-01	-3.682274878e-02	9.098628223e-14
1.000000000e-02	2.456678935e-01	-3.698411615e-02	1.940888323e-13
1.010000000e-02	2.456883102e-01	-3.714702590e-02	9.572981320e-14
1.020000000e-02	2.457089287e-01	-3.731147570e-02	1.263213299e-13
1.030000000e-02	2.457297488e-01	-3.747746320e-02	6.474723211e-14
1.040000000e-02	2.457507706e-01	-3.764498602e-02	3.762001818e-14
1.050000000e-02	2.457719939e-01	-3.781404176e-02	3.495456045e-13
1.060000000e-02	2.457934188e-01	-3.798462801e-02	3.985863941e-13
1.070000000e-02	2.458150451e-01	-3.815674233e-02	1.444049808e-13
1.080000000e-02	2.458368729e-01	-3.833038226e-02	9.345730545e-14
1.090000000e-02	2.458589021e-01	-3.850554532e-02	4.266955553e-14
1.100000000e-02	2.458811326e-01	-3.868222901e-02	7.374589063e-14
1.110000000e-02	2.459035645e-01	-3.886043081e-02	9.106319693e-14
1.120000000e-02	2.459261976e-01	-3.904014818e-02	1.084750961e-13
1.130000000e-02	2.459490319e-01	-3.922137857e-02	2.518327479e-13
1.140000000e-02	2.459720674e-01	-3.940411938e-02	1.214175959e-13
1.150000000e-02	2.459953040e-01	-3.958836803e-02	1.435947198e-13
1.160000000e-02	2.460187417e-01	-3.977412189e-02	8.672398269e-14
1.170000000e-02	2.460423804e-01	-3.996137831e-02	2.178306238e-13
1.180000000e-02	2.460662200e-01	-4.015013465e-02	4.411767035e-13
1.190000000e-02	2.460902606e-01	-4.034038821e-02	3.986904713e-13
1.200000000e-02	2.461145021e-01	-4.053213631e-02	1.772490847e-12
1.210000000e-02	2.461389444e-01	-4.072537621e-02	1.011863380e-13
1.220000000e-02	2.461635874e-01	-4.092010519e-02	1.435947198e-13
1.230000000e-02	2.461884312e-01	-4.111632048e-02	1.443298472e-13
1.240000000e-02	2.462134757e-01	-4.131401931e-02	8.184535222e-14
1.250000000e-02	2.462387208e-01	-4.151319888e-02	1.295007463e-13
1.260000000e-02	2.462641664e-01	-4.171385637e-02	2.935359133e-13
1.270000000e-02	2.462898126e-01	-4.191598895e-02	8.489889334e-14
1.280000000e-02	2.463156592e-01	-4.211959376e-02	7.016925711e-14
1.290000000e-02	2.463417062e-01	-4.232466793e-02	9.374385571e-14
1.300000000e-02	2.463679536e-01	-4.253120858e-02	7.176679490e-14
1.310000000e-02	2.463944013e-01	-4.273921277e-02	2.763670484e-13
1.320000000e-02	2.464210492e-01	-4.294867760e-02	7.018330853e-14
1.330000000e-02	2.464478974e-01	-4.315960011e-02	7.105427358e-14
1.340000000e-02	2.464749456e-01	-4.337197733e-02	2.124529464e-13
1.350000000e-02	2.465021940e-01	-4.358580628e-02	2.364373660e-13
1.360000000e-02	2.465296424e-01	-4.380108395e-02	1.257078424e-13
1.370000000e-02	2.465572907e-01	-4.401780732e-02	2.887689874e-14
1.380000000e-02	2.465851390e-01	-4.423597335e-02	8.228273223e-14
1.390000000e-02	2.466131871e-01	-4.445557898e-02	5.130143463e-14
1.400000000e-02	2.466414350e-01	-4.467662114e-02	7.111288306e-14
1.410000000e-02	2.466698827e-01	-4.489909674e-02	1.372948675e-13
1.420000000e-02	2.466985300e-01	-4.512300264e-02	1.456612608e-13
1.430000000e-02	2.467273769e-01	-4.534833574e-02	4.474401545e-13
1.440000000e-02	2.467564235e-01	-4.557509288e-02	1.779497382e-13
1.450000000e-02	2.467856695e-01	-4.580327089e-02	4.451758988e-14
1.460000000e-02	2.468151150e-01	-4.603286659e-02	9.664043440e-14
1.470000000e-02	2.468447598e-01	-4.626387679e-02	1.253765773e-13
1.480000000e-02	2.468746040e-01	-4.649629825e-02	1.421711569e-13
1.490000000e-02	2.469046474e-01	-4.673012775e-02	1.560390715e-13
1.500000000e-02	2.469348900e-01	-4.696536204e-02	2.957634138e-13
1.510000000e-02	2.469653318e-01	-4.720199784e-02	5.922392084e-14
1.520000000e-02	2.469959727e-01	-4.744003186e-02	2.035925033e-13
1.530000000e-02	2.470268125e-01	-4.767946081e-02	1.072070812e-13
1.540000000e-02	2.470578513e-01	-4.792028137e-02	9.203795747e-14
1.550000000e-02	2.470890890e-01	-4.816249019e-02	7.061018437e-14
1.560000000e-02	2.471205256e-01	-4.840608392e-02	1.647924047e-13
1.570000000e-02	2.471521608e-01	-4.865105919e-02	8.797478983e-14
1.580000000e-02	2.471839948e-01	-4.889741262e-02	2.273824573e-13
1.590000000e-02	2.472160274e-01	-4.914514079e-02	3.139921916e-13
1.600000000e-02	2.472482586e-01	-4.939424030e-02	1.257033320e-13
1.610000000e-02	2.472806882e-01	-4.964470770e-02	5.051112138e-14
1.620000000e-02	2.473133163e-01	-4.989653955e-02	4.490100441e-13
1.630000000e-02	2.473461428e-01	-5.014973236e-02	7.371880884e-14
1.640000000e-02	2.473791675e-01	-5.040428267e-02	7.588599744e-14
1.650000000e-02	2.474123905e-01	-5.066018697e-02	1.365023611e-13
1.660000000e-02	2.474458117e-01	-5.091744175e-02	1.337632159e-13
1.670000000e-02	2.474794309e-01	-5.117604347e-02	1.143270993e-13
1.680000000e-02	2.475132482e-01	-5.143598858e-02	1.109212262e-13
1.690000000e-02	2.475472634e-01	-5.169727353e-02	7.837419692e-14
1.700000000e-02	2.475814765e-01	-5.195989474e-02	1.873535483e-13
1.710000000e-02	2.476158875e-01	-5.222384861e-02	1.114876210e-13
1.720000000e-02	2.476504962e-01	-5.248913153e-02	1.363478633e-13
1.730000000e-02	2.476853025e-01	-5.275573989e-02	2.279713695e-13
1.740000000e-02	2.477203065e-01	-5.302367004e-02	4.246106560e-13
1.750000000e-02	2.477555080e-01	-5.329291834e-02	4.444268114e-13
1.760000000e-02	2.477909070e-01	-5.356348110e-02	1.410707236e-12
1.770000000e-02	2.478265034e-01	-5.383535466e-02	4.552050875e-13
1.780000000e-02	2.478622970e-01	-5.410853531e-02	1.010027189e-13
1.790000000e-02	2.478982880e-01	-5.438301935e-02	3.144681583e-13
1.800000000e-02	2.479344761e-01	-5.465880304e-02	1.003250995e-13
1.810000000e-02	2.479708613e-01	-5.493588264e-02	1.235502154e-13
1.820000000e-02	2.480074436e-01	-5.521425441e-02	3.072201964e-13
1.830000000e-02	2.480442227e-01	-5.549391457e-02	2.319473522e-13
1.840000000e-02	2.480811988e-01	-5.577485933e-02	1.459108472e-13
1.850000000e-02	2.481183717e-01	-5.605708492e-02	1.774273950e-13
1.860000000e-02	2.481557413e-01	-5.634058750e-02	1.641478915e-13
1.870000000e-02	2.481933076e-01	-5.662536327e-02	1.291576418e-13
1.880000000e-02	2.482310704e-01	-5.691140837e-02	1.825438947e-13
1.890000000e-02	2.482690298e-01	-5.719871897e-02	5.506025701e-13
1.900000000e-02	2.483071855e-01	-5.748729119e-02	1.023873653e-13
1.910000000e-02	2.483455377e-01	-5.777712116e-02	6.679816236e-14
1.920000000e-02	2.483840861e-01	-5.806820499e-02	1.956848000e-13
1.930000000e-02	2.484228306e-01	-5.836053877e-02	1.713414787e-13
1.940000000e-02	2.484617713e-01	-5.865411859e-02	8.587472828e-14
1.950000000e-02	2.485009081e-01	-5.894894051e-02	6.703871927e-14
1.960000000e-02	2.485402408e-01	-5.924500059e-02	9.219772225e-14
1.970000000e-02	2.485797693e-01	-5.954229489e-02	1.109496701e-13
1.980000000e-02	2.486194937e-01	-5.984081942e-02	1.297730571e-13
1.990000000e-02	2.486594138e-01	-6.014057021e-02	2.644326580e-13
2.000000000e-02	2.486995295e-01	-6.044154326e-02	7.246142550e-14
2.010000000e-02	2.487398408e-01	-6.074373458e-02	6.937215044e-14
2.020000000e-02	2.487803476e-01	-6.104714013e-02	3.679354145e-13
2.030000000e-02	2.488210497e-01	-6.135175591e-02	4.726924956e-13
2.040000000e-02	2.488619472e-01	-6.165757785e-02	3.037785253e-13
2.050000000e-02	2.489030399e-01	-6.196460191e-02	1.072475442e-13
2.060000000e-02	2.489443277e-01	-6.227282402e-02	1.192278219e-13
2.070000000e-02	2.489858106e-01	-6.258224012e-02	1.581931851e-13
2.080000000e-02	2.490274885e-01	-6.289284609e-02	1.764248838e-13
2.090000000e-02	2.490693613e-01	-6.320463786e-02	1.195963244e-13
2.100000000e-02	2.491114290e-01	-6.351761131e-02	1.711213511e-13
2.110000000e-02	2.491536913e-01	-6.383176230e-02	1.192278219e-13
2.120000000e-02	2.491961483e-01	-6.414708672e-02	5.021779655e-13
2.130000000e-02	2.492387998e-01	-6.446358042e-02	1.040697291e-12
2.140000000e-02	2.492816459e-01	-6.478123923e-02	1.657693848e-13
2.150000000e-02	2.493246863e-01	-6.510005900e-02	3.254692410e-13
2.160000000e-02	2.493679210e-01	-6.542003555e-02	1.324000889e-13
2.170000000e-02	2.494113499e-01	-6.574116469e-02	8.109219757e-14
2.180000000e-02	2.494549730e-01	-6.606344222e-02	1.934314401e-13
2.190000000e-02	2.494987901e-01	-6.638686393e-02	3.080712658e-13
2.200000000e-02	2.495428012e-01	-6.671142560e-02	2.238263586e-13
2.210000000e-02	2.495870061e-01	-6.703712300e-02	1.298960939e-13
2.220000000e-02	2.496314048e-01	-6.736395191e-02	1.078798634e-13
2.230000000e-02	2.496759972e-01	-6.769190805e-02	6.885567039e-14
2.240000000e-02	2.497207833e-01	-6.802098719e-02	1.464284423e-13
2.250000000e-02	2.497657628e-01	-6.835118503e-02	1.045245350e-13
2.260000000e-02	2.498109357e-01	-6.868249732e-02	7.032831289e-14
2.270000000e-02	2.498563020e-01	-6.901491976e-02	2.415865965e-13
2.280000000e-02	2.499018616e-01	-6.934844805e-02	8.593126211e-14
2.290000000e-02	2.499476143e-01	-6.968307789e-02	2.502331377e-13
2.300000000e-02	2.499935600e-01	-7.001880495e-02	1.539789682e-13
2.310000000e-02	2.500396987e-01	-7.035562492e-02	1.242661006e-12
2.320000000e-02	2.500860303e-01	-7.069353345e-02	1.920412750e-13
2.330000000e-02	2.501325547e-01	-7.103252622e-02	6.774798862e-14
2.340000000e-02	2.501792718e-01	-7.137259885e-02	2.957437425e-13
2.350000000e-02	2.502261815e-01	-7.171374700e-02	2.352098073e-13
2.360000000e-02	2.502732837e-01	-7.205596629e-02	1.600395251e-13
2.370000000e-02	2.503205783e-01	-7.239925234e-02	7.454611493e-13
2.380000000e-02	2.503680653e-01	-7.274360077e-02	2.588891790e-13
2.390000000e-02	2.504157444e-01	-7.308900718e-02	3.513883058e-13
2.400000000e-02	2.504636157e-01	-7.343546717e-02	1.316086396e-13
2.410000000e-02	2.505116791e-01	-7.378297633e-02	1.287729017e-13
2.420000000e-02	2.505599344e-01	-7.413153024e-02	1.690867844e-13
2.430000000e-02	2.506083815e-01	-7.448112447e-02	2.563992233e-13
2.440000000e-02	2.506570204e-01	-7.483175459e-02	8.568160129e-14
2.450000000e-02	2.507058510e-01	-7.518341615e-02	2.327373054e-13
2.460000000e-02	2.507548731e-01	-7.553610470e-02	6.323487682e-14
2.470000000e-02	2.508040867e-01	-7.588981580e-02	3.733800692e-14
2.480000000e-02	2.508534917e-01	-7.624454496e-02	2.086565156e-13
2.490000000e-02	2.509030879e-01	-7.660028772e-02	1.414675088e-13
2.500000000e-02	2.509528753e-01	-7.695703961e-02	7.169952322e-14
2.510000000e-02	2.510028538e-01	-7.731479612e-02	4.707397993e-14
2.520000000e-02	2.510530233e-01	-7.767355278e-02	1.109018451e-12
2.530000000e-02	2.511033836e-01	-7.803330508e-02	1.813586607e-13
2.540000000e-02	2.511539348e-01	-7.839404851e-02	9.712084816e-14
2.550000000e-02	2.512046766e-01	-7.875577857e-02	1.088482946e-13
2.560000000e-02	2.512556090e-01	-7.911849072e-02	1.011890788e-13
2.570000000e-02	2.513067318e-01	-7.948218044e-02	2.199676840e-13
2.580000000e-02	2.513580451e-01	-7.984684321e-02	2.557105862e-13
2.590000000e-02	2.514095486e-01	-8.021247448e-02	1.846066880e-13
2.600000000e-02	2.514612424e-01	-8.057906971e-02	3.534648831e-13
2.610000000e-02	2.515131262e-01	-8.094662434e-02	2.233245833e-13
2.620000000e-02	2.515652000e-01	-8.131513383e-02	4.886003111e-14
2.630000000e-02	2.516174636e-01	-8.168459360e-02	9.526574000e-14
2.640000000e-02	2.516699170e-01	-8.205499909e-02	1.171588327e-13
2.650000000e-02	2.517225602e-01	-8.242634572e-02	9.214075253e-14
2.660000000e-02	2.517753928e-01	-8.279862892e-02	1.564758036e-13
2.670000000e-02	2.518284150e-01	-8.317184410e-02	1.958634806e-13
2.680000000e-02	2.518816265e-01	-8.354598667e-02	1.168697349e-13
2.690000000e-02	2.519350273e-01	-8.392105204e-02	8.704148513e-14
2.700000000e-02	2.519886172e-01	-8.429703561e-02	1.486261497e-13
2.710000000e-02	2.520423962e-01	-8.467393276e-02	1.371844420e-13
2.720000000e-02	2.520963641e-01	-8.505173890e-02	1.262346525e-13
2.730000000e-02	2.521505209e-01	-8.543044940e-02	8.569260569e-14
2.740000000e-02	2.522048664e-01	-8.581005965e-02	2.612649184e-13
2.750000000e-02	2.522594005e-01	-8.619056503e-02	1.983244935e-13
2.760000000e-02	2.523141232e-01	-8.657196090e-02	2.836187003e-13
2.770000000e-02	2.523690343e-01	-8.695424263e-02	1.279470262e-13
2.780000000e-02	2.524241337e-01	-8.733740559e-02	1.695514124e-13
2.790000000e-02	2.524794213e-01	-8.772144513e-02	4.219546438e-13
2.800000000e-02	2.525348970e-01	-8.810635662e-02	1.292827898e-13
2.810000000e-02	2.525905607e-01	-8.849213540e-02	1.659587357e-13
2.820000000e-02	2.526464123e-01	-8.887877682e-02	1.900881119e-13
2.830000000e-02	2.527024516e-01	-8.926627622e-02	8.885141987e-14
2.840000000e-02	2.527586786e-01	-8.965462894e-02	1.290079155e-13
2.850000000e-02	2.528150932e-01	-9.004383033e-02	1.994124977e-13
2.860000000e-02	2.528716953e-01	-9.043387571e-02	6.076440381e-14
2.870000000e-02	2.529284847e-01	-9.082476041e-02	2.816674980e-13
2.880000000e-02	2.529854613e-01	-9.121647977e-02	1.705268232e-13
2.890000000e-02	2.530426250e-01	-9.160902910e-02	3.638540814e-13
2.900000000e-02	2.530999758e-01	-9.200240372e-02	3.178720527e-13
2.910000000e-02	2.531575134e-01	-9.239659896e-02	1.279169657e-13
2.920000000e-02	2.532152379e-01	-9.279161012e-02	1.293924331e-13
2.930000000e-02	2.532731490e-01	-9.318743253e-02	1.309333323e-13
2.940000000e-02	2.533312467e-01	-9.358406149e-02	8.173601853e-14
2.950000000e-02	2.533895309e-01	-9.398149230e-02	1.140899342e-13
2.960000000e-02	2.534480014e-01	-9.437972028e-02	1.327522227e-13
2.970000000e-02	2.535066582e-01	-9.477874072e-02	8.474544047e-14
2.980000000e-02	2.535655010e-01	-9.517854893e-02	5.893193074e-14
2.990000000e-02	2.536245299e-01	-9.557914020e-02	2.620856584e-13
3.000000000e-02	2.536837447e-01	-9.598050984e-02	2.434235063e-13
3.010000000e-02	2.537431453e-01	-9.638265313e-02	1.992367834e-13
3.020000000e-02	2.538027315e-01	-9.678556537e-02	1.894679434e-13
3.030000000e-02	2.538625033e-01	-9.718924185e-02	7.538536968e-14
