# Ep [eV]     Omega/c [1/micrones]    Im(epsi1)     Eq(det).Opt det SIN kz nano,R = 0.30 $\mu$m, $\mu_c$ = 0.3 eV, modo = 1, $\epsilon_\infty$ = 3.9, $\gamma_{DL}$ = 0.01 eV, solve_det_sinkz_vs_Ep.py
0.000000000e+00	1.730880560e-01	-3.138803148e-02	6.667589471e-14
1.000000000e-04	1.730881945e-01	-3.139030137e-02	5.955278113e-14
2.000000000e-04	1.730886102e-01	-3.139711098e-02	7.857877478e-14
3.000000000e-04	1.730893029e-01	-3.140846011e-02	1.413373214e-13
4.000000000e-04	1.730902728e-01	-3.142434847e-02	3.697279379e-13
5.000000000e-04	1.730915197e-01	-3.144477561e-02	9.670960251e-14
6.000000000e-04	1.730930437e-01	-3.146974098e-02	4.243332820e-14
7.000000000e-04	1.730948448e-01	-3.149924389e-02	1.894071717e-13
8.000000000e-04	1.730969230e-01	-3.153328354e-02	1.681722214e-13
9.000000000e-04	1.730992783e-01	-3.157185900e-02	3.247996499e-13
1.000000000e-03	1.731019106e-01	-3.161496921e-02	7.078731857e-14
1.100000000e-03	1.731048200e-01	-3.166261300e-02	1.648337248e-13
1.200000000e-03	1.731080064e-01	-3.171478905e-02	1.038557118e-13
1.300000000e-03	1.731114698e-01	-3.177149595e-02	9.404060884e-14
1.400000000e-03	1.731152103e-01	-3.183273215e-02	1.462430085e-13
1.500000000e-03	1.731192278e-01	-3.189849597e-02	9.772138664e-14
1.600000000e-03	1.731235223e-01	-3.196878562e-02	5.740983013e-13
1.700000000e-03	1.731280937e-01	-3.204359917e-02	6.573279789e-14
1.800000000e-03	1.731329421e-01	-3.212293458e-02	1.061995497e-13
1.900000000e-03	1.731380675e-01	-3.220678969e-02	4.247870566e-13
2.000000000e-03	1.731434698e-01	-3.229516220e-02	1.155588583e-13
2.100000000e-03	1.731491491e-01	-3.238804970e-02	3.630564416e-13
2.200000000e-03	1.731551052e-01	-3.248544966e-02	3.764703906e-14
2.300000000e-03	1.731613382e-01	-3.258735942e-02	2.820889696e-13
2.400000000e-03	1.731678480e-01	-3.269377620e-02	5.719372935e-14
2.500000000e-03	1.731746347e-01	-3.280469709e-02	6.240678079e-14
2.600000000e-03	1.731816982e-01	-3.292011907e-02	2.162565125e-13
2.700000000e-03	1.731890385e-01	-3.304003899e-02	8.597571690e-14
2.800000000e-03	1.731966556e-01	-3.316445359e-02	1.908692957e-13
2.900000000e-03	1.732045494e-01	-3.329335946e-02	1.208444996e-13
3.000000000e-03	1.732127199e-01	-3.342675310e-02	1.874629905e-13
3.100000000e-03	1.732211671e-01	-3.356463087e-02	2.031251861e-13
3.200000000e-03	1.732298910e-01	-3.370698902e-02	8.580932359e-14
3.300000000e-03	1.732388914e-01	-3.385382368e-02	1.580471400e-13
3.400000000e-03	1.732481685e-01	-3.400513083e-02	1.519110095e-13
3.500000000e-03	1.732577222e-01	-3.416090637e-02	8.263520564e-14
3.600000000e-03	1.732675524e-01	-3.432114606e-02	2.434909185e-14
3.700000000e-03	1.732776591e-01	-3.448584554e-02	1.137198469e-13
3.800000000e-03	1.732880422e-01	-3.465500033e-02	9.220387180e-14
3.900000000e-03	1.732987018e-01	-3.482860584e-02	4.989831893e-14
4.000000000e-03	1.733096379e-01	-3.500665734e-02	1.931583873e-13
4.100000000e-03	1.733208502e-01	-3.518915000e-02	1.598875346e-13
4.200000000e-03	1.733323389e-01	-3.537607886e-02	2.945168703e-13
4.300000000e-03	1.733441039e-01	-3.556743885e-02	1.642049504e-13
4.400000000e-03	1.733561452e-01	-3.576322479e-02	2.970562028e-13
4.500000000e-03	1.733684626e-01	-3.596343134e-02	1.267145840e-13
4.600000000e-03	1.733810562e-01	-3.616805310e-02	1.412233363e-13
4.700000000e-03	1.733939260e-01	-3.637708451e-02	7.715530835e-14
4.800000000e-03	1.734070718e-01	-3.659051991e-02	1.801208809e-13
4.900000000e-03	1.734204937e-01	-3.680835352e-02	4.045477359e-13
5.000000000e-03	1.734341916e-01	-3.703057944e-02	1.549064710e-13
5.100000000e-03	1.734481654e-01	-3.725719166e-02	2.637459987e-13
5.200000000e-03	1.734624152e-01	-3.748818405e-02	1.513582160e-13
5.300000000e-03	1.734769407e-01	-3.772355037e-02	1.133772560e-13
5.400000000e-03	1.734917422e-01	-3.796328425e-02	1.149063667e-13
5.500000000e-03	1.735068193e-01	-3.820737922e-02	1.145053371e-13
5.600000000e-03	1.735221722e-01	-3.845582869e-02	3.029158022e-13
5.700000000e-03	1.735378007e-01	-3.870862596e-02	1.309928148e-13
5.800000000e-03	1.735537049e-01	-3.896576420e-02	8.436124460e-14
5.900000000e-03	1.735698846e-01	-3.922723649e-02	1.337615572e-13
6.000000000e-03	1.735863398e-01	-3.949303578e-02	1.202256715e-13
6.100000000e-03	1.736030705e-01	-3.976315491e-02	1.146817393e-13
6.200000000e-03	1.736200765e-01	-4.003758661e-02	1.567968650e-13
6.300000000e-03	1.736373579e-01	-4.031632349e-02	4.058849049e-13
6.400000000e-03	1.736549146e-01	-4.059935807e-02	7.144740194e-14
6.500000000e-03	1.736727465e-01	-4.088668274e-02	4.441546110e-13
6.600000000e-03	1.736908536e-01	-4.117828978e-02	1.299482734e-13
6.700000000e-03	1.737092357e-01	-4.147417135e-02	1.776781796e-13
6.800000000e-03	1.737278929e-01	-4.177431954e-02	1.079393174e-13
6.900000000e-03	1.737468251e-01	-4.207872627e-02	7.199759935e-14
7.000000000e-03	1.737660322e-01	-4.238738341e-02	7.817988420e-14
7.100000000e-03	1.737855141e-01	-4.270028268e-02	1.786936637e-13
7.200000000e-03	1.738052709e-01	-4.301741571e-02	7.849488776e-14
7.300000000e-03	1.738253023e-01	-4.333877402e-02	7.049916206e-14
7.400000000e-03	1.738456085e-01	-4.366434901e-02	1.513205881e-13
7.500000000e-03	1.738661892e-01	-4.399413199e-02	1.800194711e-13
7.600000000e-03	1.738870444e-01	-4.432811416e-02	1.369182292e-13
7.700000000e-03	1.739081741e-01	-4.466628660e-02	1.066069077e-13
7.800000000e-03	1.739295782e-01	-4.500864030e-02	2.138104212e-13
7.900000000e-03	1.739512566e-01	-4.535516614e-02	4.342708993e-13
8.000000000e-03	1.739732092e-01	-4.570585488e-02	5.098930436e-13
8.100000000e-03	1.739954360e-01	-4.606069721e-02	9.712928755e-14
8.200000000e-03	1.740179369e-01	-4.641968368e-02	2.003447821e-13
8.300000000e-03	1.740407118e-01	-4.678280476e-02	1.252758659e-13
8.400000000e-03	1.740637607e-01	-4.715005081e-02	1.471725310e-13
8.500000000e-03	1.740870834e-01	-4.752141207e-02	1.771237232e-13
8.600000000e-03	1.741106799e-01	-4.789687872e-02	1.620263910e-13
8.700000000e-03	1.741345501e-01	-4.827644079e-02	1.572528922e-13
8.800000000e-03	1.741586940e-01	-4.866008825e-02	6.898988765e-14
8.900000000e-03	1.741831114e-01	-4.904781094e-02	1.471847582e-13
9.000000000e-03	1.742078023e-01	-4.943959861e-02	2.329273306e-13
9.100000000e-03	1.742327666e-01	-4.983544093e-02	1.285744199e-13
9.200000000e-03	1.742580042e-01	-5.023532743e-02	1.335099851e-13
9.300000000e-03	1.742835151e-01	-5.063924758e-02	1.410498920e-13
9.400000000e-03	1.743092990e-01	-5.104719074e-02	2.943062195e-13
9.500000000e-03	1.743353561e-01	-5.145914615e-02	1.232177511e-13
9.600000000e-03	1.743616861e-01	-5.187510300e-02	2.499778764e-13
9.700000000e-03	1.743882890e-01	-5.229505034e-02	8.215650382e-14
9.800000000e-03	1.744151646e-01	-5.271897715e-02	1.227519632e-13
9.900000000e-03	1.744423130e-01	-5.314687230e-02	1.301130230e-13
1.000000000e-02	1.744697340e-01	-5.357872458e-02	8.827913789e-14
1.010000000e-02	1.744974276e-01	-5.401452267e-02	7.105982447e-13
1.020000000e-02	1.745253936e-01	-5.445425516e-02	1.108489724e-13
1.030000000e-02	1.745536319e-01	-5.489791057e-02	1.497311822e-13
1.040000000e-02	1.745821425e-01	-5.534547730e-02	7.819281137e-14
1.050000000e-02	1.746109252e-01	-5.579694367e-02	6.395501383e-14
1.060000000e-02	1.746399800e-01	-5.625229790e-02	1.538743479e-13
1.070000000e-02	1.746693067e-01	-5.671152813e-02	1.188967482e-13
1.080000000e-02	1.746989054e-01	-5.717462242e-02	2.526060661e-13
1.090000000e-02	1.747287757e-01	-5.764156871e-02	7.289229277e-14
1.100000000e-02	1.747589178e-01	-5.811235488e-02	1.064926134e-13
1.110000000e-02	1.747893315e-01	-5.858696871e-02	9.789422604e-14
1.120000000e-02	1.748200166e-01	-5.906539789e-02	1.091251534e-13
1.130000000e-02	1.748509731e-01	-5.954763002e-02	1.188011784e-13
1.140000000e-02	1.748822008e-01	-6.003365264e-02	1.082011307e-13
1.150000000e-02	1.749136998e-01	-6.052345317e-02	1.665565817e-13
1.160000000e-02	1.749454698e-01	-6.101701896e-02	1.326221699e-13
1.170000000e-02	1.749775107e-01	-6.151433728e-02	4.776398291e-14
1.180000000e-02	1.750098225e-01	-6.201539532e-02	6.164057816e-14
1.190000000e-02	1.750424051e-01	-6.252018016e-02	6.675247673e-14
1.200000000e-02	1.750752582e-01	-6.302867883e-02	5.431260511e-14
1.210000000e-02	1.751083820e-01	-6.354087827e-02	1.373970408e-13
1.220000000e-02	1.751417761e-01	-6.405676532e-02	8.207394577e-14
1.230000000e-02	1.751754406e-01	-6.457632676e-02	1.010027189e-13
1.240000000e-02	1.752093752e-01	-6.509954928e-02	1.385558335e-13
1.250000000e-02	1.752435800e-01	-6.562641949e-02	8.880403250e-14
1.260000000e-02	1.752780547e-01	-6.615692394e-02	1.553074636e-13
1.270000000e-02	1.753127993e-01	-6.669104907e-02	8.987630823e-14
1.280000000e-02	1.753478136e-01	-6.722878128e-02	3.639197273e-13
1.290000000e-02	1.753830976e-01	-6.777010686e-02	1.659204074e-13
1.300000000e-02	1.754186511e-01	-6.831501204e-02	9.900556606e-14
1.310000000e-02	1.754544740e-01	-6.886348297e-02	4.303671832e-14
1.320000000e-02	1.754905661e-01	-6.941550573e-02	1.013633621e-13
1.330000000e-02	1.755269275e-01	-6.997106633e-02	1.803965860e-13
1.340000000e-02	1.755635579e-01	-7.053015070e-02	5.832476116e-14
1.350000000e-02	1.756004572e-01	-7.109274469e-02	1.351462043e-13
1.360000000e-02	1.756376253e-01	-7.165883409e-02	1.470130232e-13
1.370000000e-02	1.756750621e-01	-7.222840462e-02	1.846180718e-13
1.380000000e-02	1.757127674e-01	-7.280144192e-02	3.988368630e-13
1.390000000e-02	1.757507412e-01	-7.337793157e-02	1.408211016e-13
1.400000000e-02	1.757889833e-01	-7.395785906e-02	7.154050092e-14
1.410000000e-02	1.758274936e-01	-7.454120985e-02	1.177670349e-13
1.420000000e-02	1.758662719e-01	-7.512796930e-02	2.003393680e-13
1.430000000e-02	1.759053182e-01	-7.571812271e-02	9.782828947e-14
1.440000000e-02	1.759446322e-01	-7.631165532e-02	3.300604920e-13
1.450000000e-02	1.759842140e-01	-7.690855230e-02	1.048241043e-13
1.460000000e-02	1.760240633e-01	-7.750879875e-02	1.066984399e-13
1.470000000e-02	1.760641800e-01	-7.811237972e-02	1.138567137e-13
1.480000000e-02	1.761045639e-01	-7.871928018e-02	7.218635614e-14
1.490000000e-02	1.761452151e-01	-7.932948506e-02	2.810338312e-13
1.500000000e-02	1.761861332e-01	-7.994297919e-02	2.115516500e-13
1.510000000e-02	1.762273182e-01	-8.055974738e-02	2.856653679e-13
1.520000000e-02	1.762687700e-01	-8.117977436e-02	1.304929148e-13
1.530000000e-02	1.763104884e-01	-8.180304479e-02	9.674649319e-14
1.540000000e-02	1.763524732e-01	-8.242954329e-02	1.349217002e-13
1.550000000e-02	1.763947244e-01	-8.305925441e-02	1.716659353e-13
1.560000000e-02	1.764372418e-01	-8.369216265e-02	9.411574777e-14
1.570000000e-02	1.764800252e-01	-8.432825245e-02	4.280209697e-13
1.580000000e-02	1.765230746e-01	-8.496750818e-02	8.956637810e-14
1.590000000e-02	1.765663897e-01	-8.560991417e-02	8.611960714e-14
1.600000000e-02	1.766099705e-01	-8.625545470e-02	2.225243968e-13
1.610000000e-02	1.766538168e-01	-8.690411398e-02	1.604065963e-13
1.620000000e-02	1.766979284e-01	-8.755587618e-02	2.976670255e-13
1.630000000e-02	1.767423052e-01	-8.821072540e-02	4.776437000e-14
1.640000000e-02	1.767869471e-01	-8.886864570e-02	8.218657936e-14
1.650000000e-02	1.768318539e-01	-8.952962110e-02	1.403506343e-13
1.660000000e-02	1.768770255e-01	-9.019363554e-02	2.636177523e-13
1.670000000e-02	1.769224617e-01	-9.086067295e-02	9.518963126e-14
1.680000000e-02	1.769681623e-01	-9.153071716e-02	3.034660147e-13
1.690000000e-02	1.770141273e-01	-9.220375200e-02	2.459280080e-13
1.700000000e-02	1.770603565e-01	-9.287976122e-02	8.837375276e-14
1.710000000e-02	1.771068497e-01	-9.355872854e-02	1.700080280e-13
1.720000000e-02	1.771536067e-01	-9.424063763e-02	8.896101473e-14
1.730000000e-02	1.772006275e-01	-9.492547212e-02	1.954131612e-13
1.740000000e-02	1.772479118e-01	-9.561321557e-02	6.566390592e-13
1.750000000e-02	1.772954595e-01	-9.630385152e-02	4.572985323e-13
1.760000000e-02	1.773432705e-01	-9.699736347e-02	4.217454226e-13
1.770000000e-02	1.773913446e-01	-9.769373487e-02	2.042192409e-13
1.780000000e-02	1.774396817e-01	-9.839294912e-02	1.586822548e-13
1.790000000e-02	1.774882815e-01	-9.909498958e-02	2.570130573e-13
1.800000000e-02	1.775371439e-01	-9.979983958e-02	8.277738294e-14
1.810000000e-02	1.775862689e-01	-1.005074824e-01	1.469433754e-13
1.820000000e-02	1.776356561e-01	-1.012179013e-01	2.006865930e-13
1.830000000e-02	1.776853055e-01	-1.019310795e-01	1.168756409e-13
1.840000000e-02	1.777352168e-01	-1.026470002e-01	2.569189696e-13
1.850000000e-02	1.777853900e-01	-1.033656464e-01	1.220930892e-13
1.860000000e-02	1.778358248e-01	-1.040870013e-01	1.208053258e-13
1.870000000e-02	1.778865212e-01	-1.048110480e-01	1.566661198e-13
1.880000000e-02	1.779374789e-01	-1.055377695e-01	5.642041558e-14
1.890000000e-02	1.779886977e-01	-1.062671487e-01	5.795832080e-14
1.900000000e-02	1.780401775e-01	-1.069991687e-01	1.445660447e-13
1.910000000e-02	1.780919182e-01	-1.077338123e-01	1.025473530e-13
1.920000000e-02	1.781439195e-01	-1.084710625e-01	2.826494600e-13
1.930000000e-02	1.781961814e-01	-1.092109022e-01	5.654872777e-14
1.940000000e-02	1.782487035e-01	-1.099533141e-01	4.600841908e-13
1.950000000e-02	1.783014859e-01	-1.106982811e-01	2.433700289e-13
1.960000000e-02	1.783545282e-01	-1.114457860e-01	7.458922488e-14
1.970000000e-02	1.784078303e-01	-1.121958115e-01	8.881895219e-14
1.980000000e-02	1.784613920e-01	-1.129483403e-01	1.359001870e-13
1.990000000e-02	1.785152133e-01	-1.137033552e-01	6.177510771e-14
2.000000000e-02	1.785692938e-01	-1.144608388e-01	1.267145840e-13
2.010000000e-02	1.786236334e-01	-1.152207737e-01	9.210067878e-14
2.020000000e-02	1.786782320e-01	-1.159831426e-01	1.694885901e-13
2.030000000e-02	1.787330893e-01	-1.167479281e-01	1.246309289e-13
2.040000000e-02	1.787882053e-01	-1.175151128e-01	1.031284249e-13
2.050000000e-02	1.788435796e-01	-1.182846792e-01	4.528961567e-14
2.060000000e-02	1.788992122e-01	-1.190566098e-01	2.492764945e-13
2.070000000e-02	1.789551028e-01	-1.198308872e-01	8.410663041e-14
2.080000000e-02	1.790112513e-01	-1.206074939e-01	9.016214077e-14
2.090000000e-02	1.790676575e-01	-1.213864123e-01	1.569982941e-13
2.100000000e-02	1.791243212e-01	-1.221676248e-01	2.264724624e-13
2.110000000e-02	1.791812423e-01	-1.229511140e-01	2.135142174e-13
2.120000000e-02	1.792384204e-01	-1.237368623e-01	6.598830939e-13
2.130000000e-02	1.792958556e-01	-1.245248520e-01	1.353854957e-13
2.140000000e-02	1.793535475e-01	-1.253150655e-01	1.629050942e-13
2.150000000e-02	1.794114960e-01	-1.261074852e-01	1.023681018e-13
2.160000000e-02	1.794697009e-01	-1.269020935e-01	8.025123320e-14
2.170000000e-02	1.795281620e-01	-1.276988728e-01	4.832213033e-14
2.180000000e-02	1.795868791e-01	-1.284978053e-01	1.779022497e-13
2.190000000e-02	1.796458521e-01	-1.292988733e-01	1.287600269e-13
2.200000000e-02	1.797050807e-01	-1.301020593e-01	1.083577672e-13
2.210000000e-02	1.797645648e-01	-1.309073454e-01	6.268750215e-14
2.220000000e-02	1.798243041e-01	-1.317147140e-01	1.604735885e-13
2.230000000e-02	1.798842985e-01	-1.325241474e-01	7.136407208e-13
2.240000000e-02	1.799445478e-01	-1.333356277e-01	1.684544582e-13
2.250000000e-02	1.800050518e-01	-1.341491374e-01	7.039207972e-14
2.260000000e-02	1.800658103e-01	-1.349646586e-01	1.570684272e-13
2.270000000e-02	1.801268231e-01	-1.357821736e-01	2.774544853e-13
2.280000000e-02	1.801880899e-01	-1.366016647e-01	1.159864293e-13
2.290000000e-02	1.802496107e-01	-1.374231140e-01	1.877783320e-13
2.300000000e-02	1.803113852e-01	-1.382465038e-01	8.666455261e-14
2.310000000e-02	1.803734133e-01	-1.390718164e-01	3.023972192e-13
2.320000000e-02	1.804356946e-01	-1.398990339e-01	1.149161815e-13
2.330000000e-02	1.804982291e-01	-1.407281386e-01	1.159864293e-13
2.340000000e-02	1.805610164e-01	-1.415591128e-01	2.357942251e-13
2.350000000e-02	1.806240565e-01	-1.423919385e-01	1.107065501e-13
2.360000000e-02	1.806873491e-01	-1.432265982e-01	2.558590076e-13
2.370000000e-02	1.807508940e-01	-1.440630739e-01	1.854587271e-13
2.380000000e-02	1.808146911e-01	-1.449013479e-01	1.160084783e-13
2.390000000e-02	1.808787400e-01	-1.457414024e-01	5.516167314e-13
2.400000000e-02	1.809430407e-01	-1.465832197e-01	1.150474468e-13
2.410000000e-02	1.810075928e-01	-1.474267820e-01	1.049940562e-13
2.420000000e-02	1.810723962e-01	-1.482720715e-01	1.288396480e-13
2.430000000e-02	1.811374507e-01	-1.491190704e-01	8.963461067e-14
2.440000000e-02	1.812027561e-01	-1.499677610e-01	2.116219053e-13
2.450000000e-02	1.812683122e-01	-1.508181256e-01	1.767320231e-13
2.460000000e-02	1.813341188e-01	-1.516701463e-01	7.240833371e-14
2.470000000e-02	1.814001755e-01	-1.525238055e-01	2.726708653e-13
2.480000000e-02	1.814664824e-01	-1.533790855e-01	1.977937957e-13
2.490000000e-02	1.815330391e-01	-1.542359684e-01	1.598821381e-13
2.500000000e-02	1.815998454e-01	-1.550944366e-01	1.015616221e-13
2.510000000e-02	1.816669011e-01	-1.559544723e-01	1.008278733e-13
2.520000000e-02	1.817342060e-01	-1.568160579e-01	1.134647931e-13
2.530000000e-02	1.818017599e-01	-1.576791757e-01	4.736990025e-13
2.540000000e-02	1.818695626e-01	-1.585438080e-01	1.245842890e-13
2.550000000e-02	1.819376138e-01	-1.594099372e-01	8.400214757e-14
2.560000000e-02	1.820059134e-01	-1.602775455e-01	5.685425985e-14
2.570000000e-02	1.820744611e-01	-1.611466154e-01	1.160395524e-13
2.580000000e-02	1.821432567e-01	-1.620171293e-01	1.974399851e-13
2.590000000e-02	1.822123000e-01	-1.628890694e-01	1.192084363e-13
2.600000000e-02	1.822815908e-01	-1.637624183e-01	7.502224783e-14
2.610000000e-02	1.823511289e-01	-1.646371582e-01	8.801065011e-14
2.620000000e-02	1.824209140e-01	-1.655132718e-01	1.034990491e-13
2.630000000e-02	1.824909459e-01	-1.663907414e-01	1.776434900e-13
2.640000000e-02	1.825612244e-01	-1.672695495e-01	2.495410928e-13
2.650000000e-02	1.826317493e-01	-1.681496786e-01	2.619652334e-13
2.660000000e-02	1.827025203e-01	-1.690311111e-01	1.097916271e-13
2.670000000e-02	1.827735373e-01	-1.699138297e-01	1.046172411e-13
2.680000000e-02	1.828448000e-01	-1.707978168e-01	9.868533844e-14
2.690000000e-02	1.829163082e-01	-1.716830550e-01	4.992449633e-14
2.700000000e-02	1.829880616e-01	-1.725695270e-01	2.457900386e-13
2.710000000e-02	1.830600601e-01	-1.734572152e-01	1.335605682e-13
2.720000000e-02	1.831323034e-01	-1.743461024e-01	1.962362144e-13
2.730000000e-02	1.832047913e-01	-1.752361711e-01	5.381164875e-13
2.740000000e-02	1.832775236e-01	-1.761274041e-01	2.066462384e-13
2.750000000e-02	1.833504999e-01	-1.770197840e-01	4.270496929e-13
2.760000000e-02	1.834237202e-01	-1.779132936e-01	8.605968808e-14
2.770000000e-02	1.834971842e-01	-1.788079156e-01	1.161044890e-13
2.780000000e-02	1.835708916e-01	-1.797036328e-01	3.781383114e-13
2.790000000e-02	1.836448422e-01	-1.806004280e-01	1.814456683e-13
2.800000000e-02	1.837190359e-01	-1.814982839e-01	1.193336376e-13
2.810000000e-02	1.837934722e-01	-1.823971835e-01	1.705585880e-13
2.820000000e-02	1.838681511e-01	-1.832971096e-01	8.533911106e-14
2.830000000e-02	1.839430723e-01	-1.841980451e-01	2.528425144e-13
2.840000000e-02	1.840182356e-01	-1.850999729e-01	7.884584750e-14
2.850000000e-02	1.840936407e-01	-1.860028761e-01	9.242665025e-14
2.860000000e-02	1.841692873e-01	-1.869067375e-01	1.350148058e-13
2.870000000e-02	1.842451754e-01	-1.878115402e-01	3.221167227e-13
2.880000000e-02	1.843213045e-01	-1.887172673e-01	8.261081421e-14
2.890000000e-02	1.843976745e-01	-1.896239019e-01	2.254169719e-13
2.900000000e-02	1.844742852e-01	-1.905314269e-01	1.504800727e-13
2.910000000e-02	1.845511363e-01	-1.914398257e-01	1.279636431e-13
2.920000000e-02	1.846282276e-01	-1.923490813e-01	1.339694674e-13
2.930000000e-02	1.847055588e-01	-1.932591770e-01	1.537578727e-13
2.940000000e-02	1.847831297e-01	-1.941700960e-01	9.273811948e-14
2.950000000e-02	1.848609401e-01	-1.950818215e-01	2.020442720e-13
2.960000000e-02	1.849389897e-01	-1.959943370e-01	9.289754256e-14
2.970000000e-02	1.850172782e-01	-1.969076256e-01	1.938427781e-13
2.980000000e-02	1.850958055e-01	-1.978216709e-01	8.607894977e-14
2.990000000e-02	1.851745713e-01	-1.987364562e-01	1.887382081e-13
3.000000000e-02	1.852535753e-01	-1.996519649e-01	1.224577506e-13
3.010000000e-02	1.853328174e-01	-2.005681806e-01	2.613679348e-13
3.020000000e-02	1.854122972e-01	-2.014850868e-01	1.810055812e-13
3.030000000e-02	1.854920146e-01	-2.024026670e-01	7.816356454e-14
