# R [micrones]     Omega/c [1/micrones]    Im(epsi1)     Eq(det)$\mu$ = 0.3 eV, $E_p$ = 0.250 eV, modo = 4, $\epsilon_\infty$ = 3.9, $\gamma_{DL}$ = 0.01 eV, solve_det_sinkz_vs_R2.py
5.000000000e-03	1.985485469e+00	-7.308439728e-01	1.016845989e-12
6.000000000e-03	1.904342482e+00	-5.948560853e-01	3.215549355e-13
7.000000000e-03	1.832419177e+00	-5.028822513e-01	2.842170943e-13
8.000000000e-03	1.768342637e+00	-4.371553006e-01	0.000000000e+00
9.000000000e-03	1.710945862e+00	-3.882012342e-01	7.626344919e-13
1.100000000e-02	1.612459027e+00	-3.208526314e-01	1.421085472e-13
1.200000000e-02	1.569889587e+00	-2.969387305e-01	7.190186944e-13
1.300000000e-02	1.530988230e+00	-2.773579321e-01	1.421085472e-13
1.400000000e-02	1.495289194e+00	-2.611013562e-01	3.457650183e-13
1.500000000e-02	1.462401432e+00	-2.474478648e-01	8.961856693e-13
1.700000000e-02	1.403788807e+00	-2.259694757e-01	1.421085472e-13
1.800000000e-02	1.377544084e+00	-2.174472938e-01	9.947598301e-14
1.900000000e-02	1.353054941e+00	-2.100684936e-01	3.061111788e-13
2.000000000e-02	1.330143827e+00	-2.036488265e-01	5.728578677e-13
2.100000000e-02	1.308656668e+00	-1.980413101e-01	2.957087311e-13
2.200000000e-02	1.288459124e+00	-1.931272839e-01	1.334988598e-13
2.300000000e-02	1.269433522e+00	-1.888099126e-01	5.859285502e-14
2.500000000e-02	1.234496142e+00	-1.816593713e-01	6.703246763e-14
2.600000000e-02	1.218411836e+00	-1.787042177e-01	0.000000000e+00
2.700000000e-02	1.203151258e+00	-1.760969476e-01	2.873967505e-13
2.800000000e-02	1.188649955e+00	-1.737976000e-01	9.664426066e-14
3.000000000e-02	1.161700023e+00	-1.699906099e-01	1.108452361e-12
3.100000000e-02	1.149152697e+00	-1.684280216e-01	1.869146109e-13
3.200000000e-02	1.137165904e+00	-1.670620205e-01	2.503087864e-13
3.300000000e-02	1.125701305e+00	-1.658732102e-01	2.885363487e-13
3.400000000e-02	1.114724063e+00	-1.648445571e-01	1.065814104e-13
3.500000000e-02	1.104202447e+00	-1.639610412e-01	8.556067555e-14
3.600000000e-02	1.094107488e+00	-1.632093660e-01	5.404330315e-13
3.700000000e-02	1.084412681e+00	-1.625777184e-01	3.259989895e-13
3.800000000e-02	1.075093725e+00	-1.620555670e-01	3.776586444e-14
3.900000000e-02	1.066128295e+00	-1.616334932e-01	3.796087450e-13
4.000000000e-02	1.057495843e+00	-1.613030480e-01	1.432144669e-13
4.100000000e-02	1.049177422e+00	-1.610566304e-01	1.143648277e-13
4.200000000e-02	1.041155530e+00	-1.608873845e-01	1.563597684e-13
4.300000000e-02	1.033413972e+00	-1.607891102e-01	6.196914463e-14
4.400000000e-02	1.025937743e+00	-1.607561874e-01	8.824757706e-14
4.500000000e-02	1.018712912e+00	-1.607835100e-01	3.102273851e-14
4.600000000e-02	1.011726532e+00	-1.608664289e-01	5.176853655e-13
4.700000000e-02	1.004966551e+00	-1.610007028e-01	6.898122194e-14
4.800000000e-02	9.984217349e-01	-1.611824547e-01	3.102273851e-14
4.900000000e-02	9.920815980e-01	-1.614081343e-01	9.099386826e-14
5.000000000e-02	9.859363412e-01	-1.616744845e-01	4.278033777e-14
5.100000000e-02	9.799767958e-01	-1.619785127e-01	6.285392122e-14
5.200000000e-02	9.741943728e-01	-1.623174648e-01	8.592868015e-14
5.300000000e-02	9.685810169e-01	-1.626888024e-01	1.236961847e-13
5.400000000e-02	9.631291652e-01	-1.630901828e-01	1.680042951e-13
5.500000000e-02	9.578317097e-01	-1.635194405e-01	1.928390600e-13
5.600000000e-02	9.526819629e-01	-1.639745719e-01	3.718700266e-14
5.700000000e-02	9.476736266e-01	-1.644537205e-01	8.604335881e-14
5.800000000e-02	9.428007637e-01	-1.649551642e-01	4.184677862e-13
5.900000000e-02	9.380577725e-01	-1.654773037e-01	1.951265528e-13
6.000000000e-02	9.334393624e-01	-1.660186525e-01	6.145912289e-13
6.100000000e-02	9.289405329e-01	-1.665778271e-01	5.977117422e-13
6.200000000e-02	9.245565533e-01	-1.671535393e-01	5.343852989e-14
6.300000000e-02	9.202829446e-01	-1.677445876e-01	1.755720044e-13
6.400000000e-02	9.161154627e-01	-1.683498512e-01	4.760669470e-14
6.500000000e-02	9.120500829e-01	-1.689682835e-01	1.163513730e-13
6.600000000e-02	9.080829859e-01	-1.695989063e-01	1.597561168e-13
6.700000000e-02	9.042105446e-01	-1.702408045e-01	1.665257560e-13
6.800000000e-02	9.004293116e-01	-1.708931218e-01	1.589839371e-13
6.900000000e-02	8.967360088e-01	-1.715550563e-01	1.630478841e-13
7.000000000e-02	8.931275161e-01	-1.722258562e-01	1.387379043e-13
7.100000000e-02	8.896008627e-01	-1.729048167e-01	1.637166057e-13
7.200000000e-02	8.861532175e-01	-1.735912765e-01	1.304413311e-13
7.300000000e-02	8.827818811e-01	-1.742846145e-01	5.826883675e-14
7.400000000e-02	8.794842784e-01	-1.749842477e-01	1.222463946e-13
7.500000000e-02	8.762579508e-01	-1.756896279e-01	1.077454143e-13
7.600000000e-02	8.731005502e-01	-1.764002398e-01	9.739636741e-14
7.700000000e-02	8.700098324e-01	-1.771155988e-01	7.669383368e-14
7.800000000e-02	8.669836515e-01	-1.778352487e-01	1.046025715e-13
7.900000000e-02	8.640199544e-01	-1.785587602e-01	7.119984124e-14
8.000000000e-02	8.611167760e-01	-1.792857291e-01	1.628857232e-13
8.100000000e-02	8.582722340e-01	-1.800157744e-01	1.150328216e-13
8.200000000e-02	8.554845250e-01	-1.807485373e-01	1.300514322e-13
8.300000000e-02	8.527519202e-01	-1.814836797e-01	1.066147119e-13
8.400000000e-02	8.500727614e-01	-1.822208826e-01	6.469085795e-14
8.500000000e-02	8.474454576e-01	-1.829598453e-01	6.474723211e-14
8.600000000e-02	8.448684812e-01	-1.837002842e-01	6.976770105e-13
8.700000000e-02	8.423403655e-01	-1.844419318e-01	1.444874119e-13
8.800000000e-02	8.398597009e-01	-1.851845356e-01	1.163242499e-13
8.900000000e-02	8.374251327e-01	-1.859278574e-01	2.060593075e-13
9.000000000e-02	8.350353579e-01	-1.866716723e-01	1.492146354e-13
9.100000000e-02	8.326891233e-01	-1.874157681e-01	9.449922043e-14
9.200000000e-02	8.303852227e-01	-1.881599447e-01	2.288783399e-13
9.300000000e-02	8.281224948e-01	-1.889040128e-01	2.756706797e-13
9.400000000e-02	8.258998211e-01	-1.896477941e-01	5.691666374e-13
9.500000000e-02	8.237161238e-01	-1.903911201e-01	1.320372145e-13
9.600000000e-02	8.215703644e-01	-1.911338317e-01	2.384229730e-13
9.700000000e-02	8.194615413e-01	-1.918757788e-01	1.686172578e-13
9.800000000e-02	8.173886886e-01	-1.926168200e-01	1.557862480e-13
9.900000000e-02	8.153508740e-01	-1.933568214e-01	8.148159666e-14
1.000000000e-01	8.133471982e-01	-1.940956570e-01	1.345071735e-13
1.010000000e-01	8.113767924e-01	-1.948332078e-01	9.052914033e-14
1.020000000e-01	8.094388178e-01	-1.955693616e-01	3.487138237e-13
1.030000000e-01	8.075324638e-01	-1.963040128e-01	7.367197733e-14
1.040000000e-01	8.056569473e-01	-1.970370615e-01	2.999364847e-13
1.050000000e-01	8.038115110e-01	-1.977684138e-01	2.414090553e-13
1.060000000e-01	8.019954226e-01	-1.984979812e-01	2.699887092e-13
1.070000000e-01	8.002079738e-01	-1.992256804e-01	4.632610947e-13
1.080000000e-01	7.984484792e-01	-1.999514331e-01	2.544487789e-13
1.090000000e-01	7.967162756e-01	-2.006751653e-01	8.867812153e-14
1.100000000e-01	7.950107207e-01	-2.013968079e-01	9.580086110e-14
1.110000000e-01	7.933311926e-01	-2.021162956e-01	1.224464767e-13
1.120000000e-01	7.916770888e-01	-2.028335672e-01	1.676617628e-13
1.130000000e-01	7.900478257e-01	-2.035485655e-01	6.047608099e-14
1.140000000e-01	7.884428376e-01	-2.042612365e-01	1.511902025e-13
1.150000000e-01	7.868615759e-01	-2.049715300e-01	1.023719548e-13
1.160000000e-01	7.853035090e-01	-2.056793987e-01	7.240833371e-14
1.170000000e-01	7.837681210e-01	-2.063847986e-01	1.378888058e-13
1.180000000e-01	7.822549115e-01	-2.070876886e-01	1.479990173e-13
1.190000000e-01	7.807633949e-01	-2.077880303e-01	4.656724304e-13
1.200000000e-01	7.792930999e-01	-2.084857880e-01	1.067240249e-13
1.210000000e-01	7.778435689e-01	-2.091809285e-01	7.874612422e-14
1.220000000e-01	7.764143577e-01	-2.098734211e-01	1.785363243e-13
1.230000000e-01	7.750050345e-01	-2.105632372e-01	8.539462825e-14
1.240000000e-01	7.736151802e-01	-2.112503505e-01	1.373281259e-13
1.250000000e-01	7.722443872e-01	-2.119347367e-01	1.167675978e-13
1.260000000e-01	7.708922597e-01	-2.126163734e-01	9.446086493e-14
1.270000000e-01	7.695584126e-01	-2.132952403e-01	2.520352254e-13
1.280000000e-01	7.682424717e-01	-2.139713185e-01	1.767918879e-13
1.290000000e-01	7.669440729e-01	-2.146445912e-01	2.395502418e-13
1.300000000e-01	7.656628622e-01	-2.153150429e-01	1.341303807e-13
1.310000000e-01	7.643984950e-01	-2.159826598e-01	1.040460836e-13
1.320000000e-01	7.631506361e-01	-2.166474294e-01	1.039360887e-13
1.330000000e-01	7.619189591e-01	-2.173093408e-01	8.961363744e-14
1.340000000e-01	7.607031465e-01	-2.179683843e-01	2.149921876e-13
1.350000000e-01	7.595028890e-01	-2.186245513e-01	1.592052075e-13
1.360000000e-01	7.583178853e-01	-2.192778347e-01	1.474631974e-13
1.370000000e-01	7.571478421e-01	-2.199282284e-01	9.856079546e-14
1.380000000e-01	7.559924735e-01	-2.205757272e-01	1.199567079e-13
1.390000000e-01	7.548515010e-01	-2.212203273e-01	7.035985316e-14
1.400000000e-01	7.537246532e-01	-2.218620255e-01	1.638888125e-13
1.410000000e-01	7.526116657e-01	-2.225008199e-01	1.383680002e-13
1.420000000e-01	7.515122804e-01	-2.231367091e-01	1.447853846e-13
1.430000000e-01	7.504262459e-01	-2.237696928e-01	1.061735482e-13
1.440000000e-01	7.493533169e-01	-2.243997715e-01	2.410583359e-13
1.450000000e-01	7.482932543e-01	-2.250269463e-01	8.235438032e-14
1.460000000e-01	7.472458246e-01	-2.256512192e-01	1.165937303e-13
1.470000000e-01	7.462108002e-01	-2.262725928e-01	6.731781716e-14
1.480000000e-01	7.451879590e-01	-2.268910702e-01	1.392781311e-13
1.490000000e-01	7.441770839e-01	-2.275066555e-01	1.657114885e-13
1.500000000e-01	7.431779635e-01	-2.281193531e-01	1.254070501e-13
1.510000000e-01	7.421903910e-01	-2.287291680e-01	1.373022739e-13
1.520000000e-01	7.412141646e-01	-2.293361058e-01	1.384423183e-13
1.530000000e-01	7.402490872e-01	-2.299401725e-01	9.459961791e-14
1.540000000e-01	7.392949664e-01	-2.305413747e-01	7.942792274e-14
1.550000000e-01	7.383516141e-01	-2.311397193e-01	1.243995982e-13
1.560000000e-01	7.374188467e-01	-2.317352139e-01	9.719221082e-14
1.570000000e-01	7.364964845e-01	-2.323278662e-01	1.134511589e-13
1.580000000e-01	7.355843523e-01	-2.329176844e-01	7.326799069e-14
1.590000000e-01	7.346822784e-01	-2.335046772e-01	1.021029206e-13
1.600000000e-01	7.337900953e-01	-2.340888534e-01	8.380264621e-14
1.610000000e-01	7.329076391e-01	-2.346702223e-01	1.181438108e-13
1.620000000e-01	7.320347496e-01	-2.352487935e-01	1.226131761e-13
1.630000000e-01	7.311712700e-01	-2.358245768e-01	7.878878603e-14
1.640000000e-01	7.303170471e-01	-2.363975823e-01	1.124870167e-13
1.650000000e-01	7.294719310e-01	-2.369678204e-01	8.547830507e-14
1.660000000e-01	7.286357749e-01	-2.375353017e-01	8.099563957e-14
1.670000000e-01	7.278084354e-01	-2.381000371e-01	7.861117952e-14
1.680000000e-01	7.269897721e-01	-2.386620376e-01	1.285625919e-13
1.690000000e-01	7.261796474e-01	-2.392213145e-01	8.860337939e-14
1.700000000e-01	7.253779269e-01	-2.397778793e-01	9.434158939e-14
1.710000000e-01	7.245844788e-01	-2.403317436e-01	9.589403157e-14
1.720000000e-01	7.237991743e-01	-2.408829191e-01	1.212355409e-13
1.730000000e-01	7.230218872e-01	-2.414314178e-01	8.140054975e-14
1.740000000e-01	7.222524937e-01	-2.419772519e-01	6.315061381e-14
1.750000000e-01	7.214908728e-01	-2.425204335e-01	3.405345587e-14
1.760000000e-01	7.207369061e-01	-2.430609750e-01	6.497233446e-14
1.770000000e-01	7.199904772e-01	-2.435988888e-01	9.331059614e-14
1.780000000e-01	7.192514724e-01	-2.441341875e-01	1.330647569e-13
1.790000000e-01	7.185197802e-01	-2.446668838e-01	5.747595352e-14
1.800000000e-01	7.177952914e-01	-2.451969904e-01	3.984761188e-14
1.810000000e-01	7.170778988e-01	-2.457245202e-01	6.307982015e-14
1.820000000e-01	7.163674975e-01	-2.462494860e-01	6.576234846e-14
1.830000000e-01	7.156639848e-01	-2.467719009e-01	9.113470874e-14
1.840000000e-01	7.149672596e-01	-2.472917778e-01	1.099019860e-13
1.850000000e-01	7.142772232e-01	-2.478091299e-01	4.694369683e-14
1.860000000e-01	7.135937786e-01	-2.483239703e-01	7.767317376e-14
1.870000000e-01	7.129168307e-01	-2.488363122e-01	4.565248012e-14
1.880000000e-01	7.122462864e-01	-2.493461687e-01	6.714896950e-14
1.890000000e-01	7.115820542e-01	-2.498535532e-01	3.957271573e-14
1.900000000e-01	7.109240443e-01	-2.503584789e-01	6.720958620e-14
1.910000000e-01	7.102721689e-01	-2.508609590e-01	4.489820188e-14
1.920000000e-01	7.096263416e-01	-2.513610069e-01	6.755728201e-14
1.930000000e-01	7.089864777e-01	-2.518586359e-01	1.197631732e-13
1.940000000e-01	7.083524941e-01	-2.523538592e-01	4.181257479e-14
1.950000000e-01	7.077243092e-01	-2.528466904e-01	6.529438254e-14
1.960000000e-01	7.071018430e-01	-2.533371426e-01	2.073326636e-14
1.970000000e-01	7.064850169e-01	-2.538252291e-01	1.151235566e-13
1.980000000e-01	7.058737539e-01	-2.543109634e-01	5.542518115e-14
1.990000000e-01	7.052679781e-01	-2.547943586e-01	5.120574986e-14
2.000000000e-01	7.046676152e-01	-2.552754281e-01	8.364381143e-15
2.010000000e-01	7.040725923e-01	-2.557541851e-01	4.429985509e-14
2.020000000e-01	7.034828377e-01	-2.562306429e-01	3.936930526e-14
2.030000000e-01	7.028982810e-01	-2.567048147e-01	2.192880187e-14
2.040000000e-01	7.023188531e-01	-2.571767137e-01	8.772385358e-14
2.050000000e-01	7.017444860e-01	-2.576463530e-01	4.950178704e-14
2.060000000e-01	7.011751131e-01	-2.581137458e-01	5.213103757e-14
2.070000000e-01	7.006106688e-01	-2.585789052e-01	3.724910964e-14
2.080000000e-01	7.000510888e-01	-2.590418442e-01	5.064838929e-14
2.090000000e-01	6.994963099e-01	-2.595025760e-01	2.586189710e-14
2.100000000e-01	6.989462698e-01	-2.599611134e-01	4.449169424e-14
2.110000000e-01	6.984009075e-01	-2.604174694e-01	2.548041963e-14
2.120000000e-01	6.978601630e-01	-2.608716569e-01	4.612652674e-14
2.130000000e-01	6.973239772e-01	-2.613236887e-01	4.352748844e-14
2.140000000e-01	6.967922923e-01	-2.617735778e-01	2.858626220e-14
2.150000000e-01	6.962650512e-01	-2.622213368e-01	3.624946182e-14
2.160000000e-01	6.957421978e-01	-2.626669785e-01	3.017622126e-14
2.170000000e-01	6.952236772e-01	-2.631105154e-01	1.556185227e-14
2.180000000e-01	6.947094350e-01	-2.635519604e-01	4.241125520e-14
2.190000000e-01	6.941994181e-01	-2.639913257e-01	1.899431175e-14
2.200000000e-01	6.936935741e-01	-2.644286241e-01	1.451425540e-14
2.210000000e-01	6.931918514e-01	-2.648638680e-01	1.047382307e-14
2.220000000e-01	6.926941995e-01	-2.652970696e-01	2.190665841e-14
2.230000000e-01	6.922005684e-01	-2.657282414e-01	1.734223804e-14
2.240000000e-01	6.917109092e-01	-2.661573957e-01	3.068397401e-14
2.250000000e-01	6.912251737e-01	-2.665845446e-01	2.100613037e-14
2.260000000e-01	6.907433144e-01	-2.670097003e-01	4.274385905e-14
2.270000000e-01	6.902652847e-01	-2.674328749e-01	2.726162754e-14
2.280000000e-01	6.897910387e-01	-2.678540804e-01	4.002184618e-14
2.290000000e-01	6.893205312e-01	-2.682733289e-01	2.879097511e-14
2.300000000e-01	6.888537176e-01	-2.686906322e-01	1.561455273e-14
2.310000000e-01	6.883905544e-01	-2.691060022e-01	3.029175227e-14
2.320000000e-01	6.879309984e-01	-2.695194506e-01	2.237278886e-14
2.330000000e-01	6.874750072e-01	-2.699309892e-01	1.756574927e-14
2.340000000e-01	6.870225391e-01	-2.703406297e-01	1.390274538e-14
2.350000000e-01	6.865735531e-01	-2.707483835e-01	1.685420049e-14
2.360000000e-01	6.861280088e-01	-2.711542624e-01	1.539694120e-14
2.370000000e-01	6.856858663e-01	-2.715582776e-01	3.042988453e-14
2.380000000e-01	6.852470864e-01	-2.719604407e-01	6.378772354e-15
2.390000000e-01	6.848116307e-01	-2.723607629e-01	3.406595247e-14
2.400000000e-01	6.843794610e-01	-2.727592555e-01	1.523232463e-14
2.410000000e-01	6.839505400e-01	-2.731559297e-01	2.104028248e-14
2.420000000e-01	6.835248309e-01	-2.735507967e-01	1.878850031e-14
2.430000000e-01	6.831022973e-01	-2.739438675e-01	1.123826650e-14
2.440000000e-01	6.826829036e-01	-2.743351531e-01	2.396616810e-14
2.450000000e-01	6.822666145e-01	-2.747246644e-01	1.663015911e-14
2.460000000e-01	6.818533954e-01	-2.751124124e-01	2.644269261e-14
2.470000000e-01	6.814432121e-01	-2.754984078e-01	2.272073289e-14
2.480000000e-01	6.810360310e-01	-2.758826613e-01	1.534301163e-14
2.490000000e-01	6.806318189e-01	-2.762651836e-01	2.567872671e-14
2.500000000e-01	6.802305431e-01	-2.766459853e-01	1.174752894e-14
2.510000000e-01	6.798321716e-01	-2.770250770e-01	1.053206383e-14
2.520000000e-01	6.794366725e-01	-2.774024691e-01	1.512108374e-14
2.530000000e-01	6.790440146e-01	-2.777781720e-01	1.320528391e-14
2.540000000e-01	6.786541672e-01	-2.781521961e-01	2.993739597e-14
2.550000000e-01	6.782670999e-01	-2.785245516e-01	1.432301328e-14
2.560000000e-01	6.778827828e-01	-2.788952487e-01	1.350976092e-14
2.570000000e-01	6.775011864e-01	-2.792642975e-01	1.472385544e-14
2.580000000e-01	6.771222816e-01	-2.796317082e-01	2.909415907e-14
2.590000000e-01	6.767460398e-01	-2.799974907e-01	2.141365593e-14
2.600000000e-01	6.763724328e-01	-2.803616550e-01	6.589012307e-15
2.610000000e-01	6.760014327e-01	-2.807242110e-01	7.081765906e-15
2.620000000e-01	6.390891983e-01	-3.090410324e-01	6.241641721e-27
2.630000000e-01	6.390891983e-01	-3.090410324e-01	3.046283146e-27
2.640000000e-01	6.390891983e-01	-3.090410324e-01	2.941130290e-27
2.650000000e-01	6.390891983e-01	-3.090410324e-01	2.841238251e-27
2.660000000e-01	6.390891983e-01	-3.090410324e-01	2.544526132e-27
2.670000000e-01	6.390891983e-01	-3.090410324e-01	2.508506781e-27
2.680000000e-01	6.390891983e-01	-3.090410324e-01	2.472952640e-27
2.690000000e-01	6.390891983e-01	-3.090410324e-01	2.437856337e-27
2.700000000e-01	6.390891983e-01	-3.090410324e-01	2.403210642e-27
2.710000000e-01	6.390891983e-01	-3.090410324e-01	2.369008465e-27
2.720000000e-01	6.390891983e-01	-3.090410324e-01	2.335242850e-27
2.730000000e-01	6.390891983e-01	-3.090410324e-01	2.301906972e-27
2.740000000e-01	6.390891983e-01	-3.090410324e-01	2.268994138e-27
2.750000000e-01	6.390891983e-01	-3.090410324e-01	2.236497779e-27
2.760000000e-01	6.390891983e-01	-3.090410324e-01	2.204411451e-27
2.770000000e-01	6.390891983e-01	-3.090410324e-01	2.172728829e-27
2.780000000e-01	6.390891983e-01	-3.090410324e-01	2.141443707e-27
2.790000000e-01	6.390891983e-01	-3.090410324e-01	2.110549995e-27
2.800000000e-01	6.390891983e-01	-3.090410324e-01	2.080041716e-27
2.810000000e-01	6.390891983e-01	-3.090410324e-01	2.049913002e-27
2.820000000e-01	6.390891983e-01	-3.090410324e-01	2.020158094e-27
2.830000000e-01	6.390891983e-01	-3.090410324e-01	1.990771341e-27
2.840000000e-01	6.390891983e-01	-3.090410324e-01	1.961747191e-27
2.850000000e-01	6.390891983e-01	-3.090410324e-01	1.933080197e-27
2.860000000e-01	6.390891983e-01	-3.090410324e-01	3.681374475e-28
2.870000000e-01	6.390891983e-01	-3.090410324e-01	3.627318981e-28
2.880000000e-01	6.390891983e-01	-3.090410324e-01	3.573923310e-28
2.890000000e-01	6.390891983e-01	-3.090410324e-01	3.521177674e-28
2.900000000e-01	6.390891983e-01	-3.090410324e-01	3.469072460e-28
2.910000000e-01	6.390891983e-01	-3.090410324e-01	3.417598228e-28
2.920000000e-01	6.390891983e-01	-3.090410324e-01	3.366745705e-28
2.930000000e-01	6.390891983e-01	-3.090410324e-01	3.316505784e-28
2.940000000e-01	6.390891983e-01	-3.090410324e-01	3.266869518e-28
2.950000000e-01	6.390891983e-01	-3.090410324e-01	3.217828121e-28
2.960000000e-01	6.390891983e-01	-3.090410324e-01	3.169372958e-28
2.970000000e-01	6.390891983e-01	-3.090410324e-01	3.121495548e-28
2.980000000e-01	6.390891983e-01	-3.090410324e-01	3.074187558e-28
2.990000000e-01	6.390891983e-01	-3.090410324e-01	3.027440801e-28
3.000000000e-01	6.390891983e-01	-3.090410324e-01	2.981247231e-28
3.010000000e-01	6.390891983e-01	-3.090410324e-01	2.935598942e-28
3.020000000e-01	6.390891983e-01	-3.090410324e-01	2.890488166e-28
3.030000000e-01	6.390891983e-01	-3.090410324e-01	2.845907268e-28
3.040000000e-01	6.390891983e-01	-3.090410324e-01	2.801848745e-28
3.050000000e-01	6.390891983e-01	-3.090410324e-01	2.758305220e-28
3.060000000e-01	6.390891983e-01	-3.090410324e-01	2.715269447e-28
3.070000000e-01	6.390891983e-01	-3.090410324e-01	2.672734298e-28
3.080000000e-01	6.390891983e-01	-3.090410324e-01	2.630692769e-28
3.090000000e-01	6.390891983e-01	-3.090410324e-01	2.589137976e-28
3.100000000e-01	6.390891983e-01	-3.090410324e-01	2.548063150e-28
3.110000000e-01	6.390891983e-01	-3.090410324e-01	2.507461634e-28
3.120000000e-01	6.390891983e-01	-3.090410324e-01	2.467326886e-28
