# R [micrones]     Omega/c [1/micrones]    Im(epsi1)     Eq(det)$\mu$ = 0.3 eV, $E_p$ = 0.250 eV, modo = 1, $\epsilon_\infty$ = 3.9, $\gamma_{DL}$ = 0.01 eV, solve_det_sinkz_vs_R2.py
5.000000000e-03	1.330128505e+00	-2.037267470e-01	9.592326933e-14
6.000000000e-03	1.251457456e+00	-1.851075884e-01	2.516414961e-13
7.000000000e-03	1.188627463e+00	-1.739172880e-01	1.473841032e-13
8.000000000e-03	1.137139749e+00	-1.672044199e-01	3.131430439e-13
9.000000000e-03	1.094077604e+00	-1.633756977e-01	1.024759307e-13
1.000000000e-02	1.057462160e+00	-1.614945369e-01	1.595263389e-13
1.100000000e-02	1.025900185e+00	-1.609740622e-01	8.810891083e-14
1.200000000e-02	9.983802275e-01	-1.614279474e-01	8.788928253e-14
1.300000000e-02	9.741488391e-01	-1.625918101e-01	8.961363744e-14
1.400000000e-02	9.526323268e-01	-1.642790063e-01	3.280830578e-13
1.500000000e-02	9.333855483e-01	-1.663544138e-01	3.378655108e-13
1.600000000e-02	9.160573957e-01	-1.687181782e-01	2.893131285e-13
1.700000000e-02	9.003669182e-01	-1.712952533e-01	1.856632839e-13
1.800000000e-02	8.860864250e-01	-1.740284510e-01	1.233896895e-13
1.900000000e-02	8.730292876e-01	-1.768736954e-01	1.258865629e-13
2.000000000e-02	8.610409731e-01	-1.797967027e-01	1.137570723e-13
2.100000000e-02	8.499923497e-01	-1.827706102e-01	4.980885652e-13
2.200000000e-02	8.397746130e-01	-1.857742516e-01	3.058275729e-13
2.300000000e-02	8.302953924e-01	-1.887908818e-01	2.607443806e-13
2.400000000e-02	8.214757269e-01	-1.918072209e-01	2.665357622e-13
2.500000000e-02	8.132476899e-01	-1.948127274e-01	4.307885085e-13
2.600000000e-02	8.055525058e-01	-1.977990402e-01	3.799634780e-13
2.700000000e-02	7.983390433e-01	-2.007595450e-01	2.344997083e-13
2.800000000e-02	7.915625984e-01	-2.036890353e-01	1.978547014e-13
2.900000000e-02	7.851839051e-01	-2.065834435e-01	1.688590460e-13
3.000000000e-02	7.791683246e-01	-2.094396281e-01	9.220387180e-14
3.100000000e-02	7.734851767e-01	-2.122552020e-01	8.657256891e-13
3.200000000e-02	7.681071842e-01	-2.150283953e-01	1.270329973e-13
3.300000000e-02	7.630100098e-01	-2.177579432e-01	3.251715877e-13
3.400000000e-02	7.581718664e-01	-2.204429950e-01	1.088806764e-13
3.500000000e-02	7.535731888e-01	-2.230830395e-01	1.057762911e-13
3.600000000e-02	7.491963549e-01	-2.256778441e-01	3.095943848e-13
3.700000000e-02	7.450254484e-01	-2.282274043e-01	9.463796603e-14
3.800000000e-02	7.410460553e-01	-2.307319020e-01	3.564854214e-13
3.900000000e-02	7.372450893e-01	-2.331916707e-01	8.757239072e-14
4.000000000e-02	7.336106413e-01	-2.356071672e-01	5.289370950e-14
4.100000000e-02	7.301318488e-01	-2.379789474e-01	1.900424566e-13
4.200000000e-02	7.267987825e-01	-2.403076463e-01	4.598405993e-13
4.300000000e-02	7.236023474e-01	-2.425939616e-01	9.545361575e-14
4.400000000e-02	7.205341964e-01	-2.448386397e-01	1.121662118e-13
4.500000000e-02	7.175866544e-01	-2.470424636e-01	8.857882240e-14
4.600000000e-02	7.147526514e-01	-2.492062440e-01	1.285115162e-13
4.700000000e-02	7.120256638e-01	-2.513308105e-01	2.441341366e-13
4.800000000e-02	7.093996622e-01	-2.534170050e-01	2.115434054e-13
4.900000000e-02	7.068690649e-01	-2.554656761e-01	1.168204844e-13
5.000000000e-02	7.044286973e-01	-2.574776742e-01	1.131756799e-13
5.100000000e-02	7.020737549e-01	-2.594538480e-01	2.049779608e-13
5.200000000e-02	6.997997706e-01	-2.613950406e-01	3.247954944e-13
5.300000000e-02	6.976025855e-01	-2.633020875e-01	2.703727479e-13
5.400000000e-02	6.954783226e-01	-2.651758140e-01	1.204930245e-13
5.500000000e-02	6.934233630e-01	-2.670170337e-01	1.555582128e-13
5.600000000e-02	6.914343251e-01	-2.688265468e-01	8.205472034e-14
5.700000000e-02	6.895080448e-01	-2.706051392e-01	6.120685312e-14
5.800000000e-02	6.876415585e-01	-2.723535815e-01	1.044249744e-13
5.900000000e-02	6.858320874e-01	-2.740726286e-01	1.373609276e-13
6.000000000e-02	6.840770231e-01	-2.757630189e-01	2.870558492e-13
6.100000000e-02	6.823739147e-01	-2.774254740e-01	8.203286096e-14
6.200000000e-02	6.807204572e-01	-2.790606988e-01	1.423337202e-13
6.300000000e-02	6.791144804e-01	-2.806693810e-01	1.411685248e-13
6.400000000e-02	6.775539397e-01	-2.822521914e-01	1.225872374e-13
6.500000000e-02	6.760369064e-01	-2.838097840e-01	1.192338308e-13
6.600000000e-02	6.745615600e-01	-2.853427956e-01	9.523890502e-14
6.700000000e-02	6.731261808e-01	-2.868518468e-01	8.281043321e-14
6.800000000e-02	6.717291426e-01	-2.883375417e-01	1.512619386e-13
6.900000000e-02	6.703689065e-01	-2.898004680e-01	2.076653174e-13
7.000000000e-02	6.690440155e-01	-2.912411980e-01	1.764228227e-13
7.100000000e-02	6.677530885e-01	-2.926602882e-01	1.359307603e-13
7.200000000e-02	6.664948157e-01	-2.940582799e-01	1.608679450e-13
7.300000000e-02	6.652679543e-01	-2.954356995e-01	8.631307950e-14
7.400000000e-02	6.640713237e-01	-2.967930591e-01	1.790369484e-13
7.500000000e-02	6.629038019e-01	-2.981308565e-01	1.023169494e-13
7.600000000e-02	6.617643222e-01	-2.994495757e-01	1.475466873e-13
7.700000000e-02	6.606518692e-01	-3.007496872e-01	1.407068762e-13
7.800000000e-02	6.595654763e-01	-3.020316485e-01	1.146752904e-13
7.900000000e-02	6.585042225e-01	-3.032959045e-01	1.055436520e-13
8.000000000e-02	6.574672298e-01	-3.045428875e-01	6.335547418e-14
8.100000000e-02	6.564536606e-01	-3.057730180e-01	7.071284029e-14
8.200000000e-02	6.554627158e-01	-3.069867045e-01	9.893052784e-14
8.300000000e-02	6.544936320e-01	-3.081843446e-01	6.180174538e-14
8.400000000e-02	6.535456801e-01	-3.093663246e-01	1.070066679e-13
8.500000000e-02	6.526181629e-01	-3.105330202e-01	9.727825601e-14
8.600000000e-02	6.517104136e-01	-3.116847968e-01	5.866349546e-14
8.700000000e-02	6.508217945e-01	-3.128220096e-01	7.494903821e-14
8.800000000e-02	6.499516946e-01	-3.139450042e-01	5.596228903e-14
8.900000000e-02	6.490995290e-01	-3.150541169e-01	5.578117381e-14
9.000000000e-02	6.482647370e-01	-3.161496744e-01	8.156936326e-14
9.100000000e-02	6.474467814e-01	-3.172319949e-01	9.545066185e-14
9.200000000e-02	6.466451465e-01	-3.183013878e-01	1.104847634e-13
9.300000000e-02	6.458593378e-01	-3.193581543e-01	3.896694019e-14
9.400000000e-02	6.450888805e-01	-3.204025873e-01	9.301060285e-14
9.500000000e-02	6.443333185e-01	-3.214349721e-01	5.210904385e-14
9.600000000e-02	6.435922139e-01	-3.224555863e-01	4.043210060e-14
9.700000000e-02	6.428651454e-01	-3.234646999e-01	3.788940049e-14
9.800000000e-02	6.421517084e-01	-3.244625762e-01	3.547436200e-14
9.900000000e-02	6.414515133e-01	-3.254494713e-01	2.856451954e-14
1.000000000e-01	6.407641854e-01	-3.264256345e-01	5.551759015e-14
1.010000000e-01	6.390891983e-01	-3.090410324e-01	2.609042994e-09
1.020000000e-01	6.390891983e-01	-3.090410324e-01	2.104065211e-09
1.030000000e-01	6.390891983e-01	-3.090410324e-01	2.074749928e-09
1.040000000e-01	6.390891983e-01	-3.090410324e-01	2.488483511e-09
1.050000000e-01	6.390891983e-01	-3.090410324e-01	3.141143961e-09
1.060000000e-01	6.390891983e-01	-3.090410324e-01	3.888938488e-09
1.070000000e-01	6.390891983e-01	-3.090410324e-01	4.666809354e-09
1.080000000e-01	6.390891983e-01	-3.090410324e-01	5.446566727e-09
1.090000000e-01	6.390891983e-01	-3.090410324e-01	6.215290798e-09
1.100000000e-01	6.390891983e-01	-3.090410324e-01	6.966746981e-09
1.110000000e-01	6.390891983e-01	-3.090410324e-01	7.697878096e-09
1.130000000e-01	6.390891983e-01	-3.090410324e-01	9.094323113e-09
1.140000000e-01	6.390891983e-01	-3.090410324e-01	9.759041015e-09
1.150000000e-01	6.390891983e-01	-3.090410324e-01	1.040165187e-08
1.160000000e-01	6.390891983e-01	-3.090410324e-01	1.102257457e-08
1.170000000e-01	6.390891983e-01	-3.090410324e-01	1.162233072e-08
1.180000000e-01	6.390891983e-01	-3.090410324e-01	1.220150097e-08
1.190000000e-01	6.390891983e-01	-3.090410324e-01	1.276069743e-08
1.200000000e-01	6.390891983e-01	-3.090410324e-01	1.330054582e-08
1.210000000e-01	6.390891983e-01	-3.090410324e-01	1.382167392e-08
1.220000000e-01	6.390891983e-01	-3.090410324e-01	1.432470385e-08
1.230000000e-01	6.390891983e-01	-3.090410324e-01	1.481024709e-08
1.240000000e-01	6.390891983e-01	-3.090410324e-01	1.527890113e-08
1.250000000e-01	6.390891983e-01	-3.090410324e-01	1.573124744e-08
1.260000000e-01	6.390891983e-01	-3.090410324e-01	1.616785018e-08
1.270000000e-01	6.390891983e-01	-3.090410324e-01	1.658925549e-08
1.280000000e-01	6.390891983e-01	-3.090410324e-01	1.699599123e-08
1.290000000e-01	6.390891983e-01	-3.090410324e-01	1.738856694e-08
1.300000000e-01	6.390891983e-01	-3.090410324e-01	1.776747405e-08
1.310000000e-01	6.390891983e-01	-3.090410324e-01	1.813318616e-08
1.320000000e-01	6.390891983e-01	-3.090410324e-01	1.848615951e-08
1.330000000e-01	6.390891983e-01	-3.090410324e-01	1.882683343e-08
1.340000000e-01	6.390891983e-01	-3.090410324e-01	1.915563086e-08
1.350000000e-01	6.390891983e-01	-3.090410324e-01	1.947295887e-08
1.360000000e-01	6.390891983e-01	-3.090410324e-01	1.977920927e-08
1.370000000e-01	6.390891983e-01	-3.090410324e-01	2.007475911e-08
1.380000000e-01	6.390891983e-01	-3.090410324e-01	2.035997126e-08
1.390000000e-01	6.390891983e-01	-3.090410324e-01	2.063519495e-08
1.400000000e-01	6.390891983e-01	-3.090410324e-01	2.090076631e-08
1.410000000e-01	6.390891983e-01	-3.090410324e-01	2.115700885e-08
1.420000000e-01	6.390891983e-01	-3.090410324e-01	2.140423402e-08
1.430000000e-01	6.390891983e-01	-3.090410324e-01	2.164274164e-08
1.440000000e-01	6.390891983e-01	-3.090410324e-01	2.187282043e-08
1.450000000e-01	6.390891983e-01	-3.090410324e-01	2.209474839e-08
1.460000000e-01	6.390891983e-01	-3.090410324e-01	2.230879329e-08
1.470000000e-01	6.390891983e-01	-3.090410324e-01	2.251521306e-08
1.480000000e-01	6.390891983e-01	-3.090410324e-01	2.271425620e-08
1.490000000e-01	6.390891983e-01	-3.090410324e-01	2.290616216e-08
1.500000000e-01	6.390891983e-01	-3.090410324e-01	2.309116171e-08
1.510000000e-01	6.390891983e-01	-3.090410324e-01	2.326947727e-08
1.520000000e-01	6.390891983e-01	-3.090410324e-01	2.344132329e-08
1.530000000e-01	6.390891983e-01	-3.090410324e-01	2.360690654e-08
1.540000000e-01	6.390891983e-01	-3.090410324e-01	2.376642641e-08
1.550000000e-01	6.390891983e-01	-3.090410324e-01	2.392007524e-08
1.560000000e-01	6.390891983e-01	-3.090410324e-01	2.406803857e-08
1.570000000e-01	6.390891983e-01	-3.090410324e-01	2.421049543e-08
1.580000000e-01	6.390891983e-01	-3.090410324e-01	2.434761859e-08
1.590000000e-01	6.390891983e-01	-3.090410324e-01	2.447957480e-08
1.600000000e-01	6.390891983e-01	-3.090410324e-01	2.460652504e-08
1.610000000e-01	6.390891983e-01	-3.090410324e-01	2.472862473e-08
1.620000000e-01	6.390891983e-01	-3.090410324e-01	2.484602397e-08
1.630000000e-01	6.390891983e-01	-3.090410324e-01	2.495886771e-08
1.640000000e-01	6.390891983e-01	-3.090410324e-01	2.506729601e-08
1.650000000e-01	6.390891983e-01	-3.090410324e-01	2.517144414e-08
1.660000000e-01	6.390891983e-01	-3.090410324e-01	2.527144284e-08
1.670000000e-01	6.390891983e-01	-3.090410324e-01	2.536741847e-08
1.680000000e-01	6.390891983e-01	-3.090410324e-01	2.545949315e-08
1.690000000e-01	6.390891983e-01	-3.090410324e-01	2.554778495e-08
1.700000000e-01	6.390891983e-01	-3.090410324e-01	2.563240803e-08
1.710000000e-01	6.390891983e-01	-3.090410324e-01	2.571347280e-08
1.720000000e-01	6.390891983e-01	-3.090410324e-01	2.579108602e-08
1.730000000e-01	6.390891983e-01	-3.090410324e-01	2.586535100e-08
1.740000000e-01	6.390891983e-01	-3.090410324e-01	2.593636767e-08
1.750000000e-01	6.390891983e-01	-3.090410324e-01	2.600423272e-08
1.760000000e-01	6.390891983e-01	-3.090410324e-01	2.606903973e-08
1.770000000e-01	6.390891983e-01	-3.090410324e-01	2.613087928e-08
1.780000000e-01	6.390891983e-01	-3.090410324e-01	2.618983904e-08
1.790000000e-01	6.390891983e-01	-3.090410324e-01	2.624600390e-08
1.800000000e-01	6.390891983e-01	-3.090410324e-01	2.629945607e-08
1.810000000e-01	6.390891983e-01	-3.090410324e-01	2.635027514e-08
1.820000000e-01	6.390891983e-01	-3.090410324e-01	2.639853821e-08
1.830000000e-01	6.390891983e-01	-3.090410324e-01	2.644431997e-08
1.840000000e-01	6.390891983e-01	-3.090410324e-01	2.648769277e-08
1.850000000e-01	6.390891983e-01	-3.090410324e-01	2.652872673e-08
1.860000000e-01	6.390891983e-01	-3.090410324e-01	2.656748977e-08
1.870000000e-01	6.390891983e-01	-3.090410324e-01	2.660404775e-08
1.880000000e-01	6.390891983e-01	-3.090410324e-01	2.663846450e-08
1.890000000e-01	6.390891983e-01	-3.090410324e-01	2.667080187e-08
1.900000000e-01	6.390891983e-01	-3.090410324e-01	2.670111987e-08
4.390000000e-01	6.390891983e-01	-3.090410324e-01	2.036064917e-08
4.400000000e-01	6.390891983e-01	-3.090410324e-01	2.033344453e-08
4.410000000e-01	6.390891983e-01	-3.090410324e-01	2.030630928e-08
4.420000000e-01	6.390891983e-01	-3.090410324e-01	2.027924331e-08
4.430000000e-01	6.390891983e-01	-3.090410324e-01	2.025224654e-08
4.440000000e-01	6.390891983e-01	-3.090410324e-01	2.022531887e-08
4.450000000e-01	6.390891983e-01	-3.090410324e-01	2.019846020e-08
4.460000000e-01	6.390891983e-01	-3.090410324e-01	2.017167042e-08
4.470000000e-01	6.390891983e-01	-3.090410324e-01	2.014494944e-08
4.480000000e-01	6.390891983e-01	-3.090410324e-01	2.011829715e-08
4.490000000e-01	6.390891983e-01	-3.090410324e-01	2.009171345e-08
4.500000000e-01	6.390891983e-01	-3.090410324e-01	2.006519821e-08
4.510000000e-01	6.390891983e-01	-3.090410324e-01	2.003875133e-08
4.520000000e-01	6.390891983e-01	-3.090410324e-01	2.001237270e-08
4.530000000e-01	6.390891983e-01	-3.090410324e-01	1.998606219e-08
4.540000000e-01	6.390891983e-01	-3.090410324e-01	1.995981969e-08
4.550000000e-01	6.390891983e-01	-3.090410324e-01	1.993364508e-08
4.560000000e-01	6.390891983e-01	-3.090410324e-01	1.990753823e-08
4.570000000e-01	6.390891983e-01	-3.090410324e-01	1.988149903e-08
4.580000000e-01	6.390891983e-01	-3.090410324e-01	1.985552734e-08
4.590000000e-01	6.390891983e-01	-3.090410324e-01	1.982962303e-08
4.600000000e-01	6.390891983e-01	-3.090410324e-01	1.980378599e-08
4.610000000e-01	6.390891983e-01	-3.090410324e-01	1.977801606e-08
4.620000000e-01	6.390891983e-01	-3.090410324e-01	1.975231314e-08
4.630000000e-01	6.390891983e-01	-3.090410324e-01	1.972667707e-08
4.640000000e-01	6.390891983e-01	-3.090410324e-01	1.970110772e-08
4.650000000e-01	6.390891983e-01	-3.090410324e-01	1.967560496e-08
4.660000000e-01	6.390891983e-01	-3.090410324e-01	1.965016865e-08
4.670000000e-01	6.390891983e-01	-3.090410324e-01	1.962479864e-08
4.680000000e-01	6.390891983e-01	-3.090410324e-01	1.959949480e-08
4.690000000e-01	6.390891983e-01	-3.090410324e-01	1.957425698e-08
4.700000000e-01	6.390891983e-01	-3.090410324e-01	1.954908505e-08
4.710000000e-01	6.390891983e-01	-3.090410324e-01	1.952397884e-08
4.720000000e-01	6.390891983e-01	-3.090410324e-01	1.949893823e-08
4.730000000e-01	6.390891983e-01	-3.090410324e-01	1.947396306e-08
4.740000000e-01	6.390891983e-01	-3.090410324e-01	1.944905317e-08
4.750000000e-01	6.390891983e-01	-3.090410324e-01	1.942420844e-08
4.760000000e-01	6.390891983e-01	-3.090410324e-01	1.939942869e-08
4.770000000e-01	6.390891983e-01	-3.090410324e-01	1.937471379e-08
4.780000000e-01	6.390891983e-01	-3.090410324e-01	1.935006358e-08
4.790000000e-01	6.390891983e-01	-3.090410324e-01	1.932547790e-08
4.800000000e-01	6.390891983e-01	-3.090410324e-01	1.930095660e-08
4.810000000e-01	6.390891983e-01	-3.090410324e-01	1.927649953e-08
4.820000000e-01	6.390891983e-01	-3.090410324e-01	1.925210653e-08
4.830000000e-01	6.390891983e-01	-3.090410324e-01	1.922777745e-08
4.840000000e-01	6.390891983e-01	-3.090410324e-01	1.920351212e-08
4.850000000e-01	6.390891983e-01	-3.090410324e-01	1.917931039e-08
4.860000000e-01	6.390891983e-01	-3.090410324e-01	1.915517210e-08
4.870000000e-01	6.390891983e-01	-3.090410324e-01	1.913109709e-08
4.880000000e-01	6.390891983e-01	-3.090410324e-01	1.910708520e-08
4.890000000e-01	6.390891983e-01	-3.090410324e-01	1.908313628e-08
4.900000000e-01	6.390891983e-01	-3.090410324e-01	1.905925015e-08
4.910000000e-01	6.390891983e-01	-3.090410324e-01	1.903542666e-08
4.920000000e-01	6.390891983e-01	-3.090410324e-01	1.901166564e-08
4.930000000e-01	6.390891983e-01	-3.090410324e-01	1.898796693e-08
4.940000000e-01	6.390891983e-01	-3.090410324e-01	1.896433038e-08
4.950000000e-01	6.390891983e-01	-3.090410324e-01	1.894075580e-08
4.960000000e-01	6.390891983e-01	-3.090410324e-01	1.891724305e-08
4.970000000e-01	6.390891983e-01	-3.090410324e-01	1.889379195e-08
4.980000000e-01	6.390891983e-01	-3.090410324e-01	1.887040234e-08
4.990000000e-01	6.390891983e-01	-3.090410324e-01	1.884707406e-08
5.000000000e-01	6.390891983e-01	-3.090410324e-01	1.882380694e-08
5.010000000e-01	6.390891983e-01	-3.090410324e-01	1.880060081e-08
5.020000000e-01	6.390891983e-01	-3.090410324e-01	1.877745550e-08
5.030000000e-01	6.390891983e-01	-3.090410324e-01	1.875437086e-08
5.040000000e-01	6.390891983e-01	-3.090410324e-01	1.873134670e-08
5.050000000e-01	6.390891983e-01	-3.090410324e-01	1.870838287e-08
5.060000000e-01	6.390891983e-01	-3.090410324e-01	1.868547920e-08
5.070000000e-01	6.390891983e-01	-3.090410324e-01	1.866263552e-08
5.080000000e-01	6.390891983e-01	-3.090410324e-01	1.863985166e-08
5.090000000e-01	6.390891983e-01	-3.090410324e-01	1.861712746e-08
5.100000000e-01	6.390891983e-01	-3.090410324e-01	1.859446274e-08
5.110000000e-01	6.390891983e-01	-3.090410324e-01	1.857185733e-08
5.120000000e-01	6.390891983e-01	-3.090410324e-01	1.854931107e-08
5.130000000e-01	6.390891983e-01	-3.090410324e-01	1.852682380e-08
5.140000000e-01	6.390891983e-01	-3.090410324e-01	1.850439533e-08
5.150000000e-01	6.390891983e-01	-3.090410324e-01	1.848202550e-08
5.160000000e-01	6.390891983e-01	-3.090410324e-01	1.845971415e-08
5.170000000e-01	6.390891983e-01	-3.090410324e-01	1.843746110e-08
5.180000000e-01	6.390891983e-01	-3.090410324e-01	1.841526618e-08
5.190000000e-01	6.390891983e-01	-3.090410324e-01	1.839312923e-08
5.200000000e-01	6.390891983e-01	-3.090410324e-01	1.837105007e-08
5.210000000e-01	6.390891983e-01	-3.090410324e-01	1.834902854e-08
5.220000000e-01	6.390891983e-01	-3.090410324e-01	1.832706447e-08
5.230000000e-01	6.390891983e-01	-3.090410324e-01	1.830515768e-08
5.240000000e-01	6.390891983e-01	-3.090410324e-01	1.828330802e-08
5.250000000e-01	6.390891983e-01	-3.090410324e-01	1.826151530e-08
5.260000000e-01	6.390891983e-01	-3.090410324e-01	1.823977936e-08
5.270000000e-01	6.390891983e-01	-3.090410324e-01	1.821810003e-08
5.280000000e-01	6.390891983e-01	-3.090410324e-01	1.819647715e-08
5.290000000e-01	6.390891983e-01	-3.090410324e-01	1.817491054e-08
5.300000000e-01	6.390891983e-01	-3.090410324e-01	1.815340003e-08
5.310000000e-01	6.390891983e-01	-3.090410324e-01	1.813194546e-08
5.320000000e-01	6.390891983e-01	-3.090410324e-01	1.811054666e-08
5.330000000e-01	6.390891983e-01	-3.090410324e-01	1.808920345e-08
5.340000000e-01	6.390891983e-01	-3.090410324e-01	1.806791568e-08
5.350000000e-01	6.390891983e-01	-3.090410324e-01	1.804668317e-08
5.360000000e-01	6.390891983e-01	-3.090410324e-01	1.802550575e-08
5.370000000e-01	6.390891983e-01	-3.090410324e-01	1.800438326e-08
5.380000000e-01	6.390891983e-01	-3.090410324e-01	1.798331553e-08
5.390000000e-01	6.390891983e-01	-3.090410324e-01	1.796230239e-08
5.400000000e-01	6.390891983e-01	-3.090410324e-01	1.794134367e-08
5.410000000e-01	6.390891983e-01	-3.090410324e-01	1.792043921e-08
5.420000000e-01	6.390891983e-01	-3.090410324e-01	1.789958884e-08
5.430000000e-01	6.390891983e-01	-3.090410324e-01	1.787879240e-08
5.440000000e-01	6.390891983e-01	-3.090410324e-01	1.785804971e-08
5.450000000e-01	6.390891983e-01	-3.090410324e-01	1.783736061e-08
5.460000000e-01	6.390891983e-01	-3.090410324e-01	1.781672494e-08
5.470000000e-01	6.390891983e-01	-3.090410324e-01	1.779614252e-08
5.480000000e-01	6.390891983e-01	-3.090410324e-01	1.777561320e-08
5.490000000e-01	6.390891983e-01	-3.090410324e-01	1.775513681e-08
5.500000000e-01	6.390891983e-01	-3.090410324e-01	1.773471318e-08
5.510000000e-01	6.390891983e-01	-3.090410324e-01	1.771434214e-08
5.520000000e-01	6.390891983e-01	-3.090410324e-01	1.769402355e-08
5.530000000e-01	6.390891983e-01	-3.090410324e-01	1.767375722e-08
5.540000000e-01	6.390891983e-01	-3.090410324e-01	1.765354299e-08
5.550000000e-01	6.390891983e-01	-3.090410324e-01	1.763338071e-08
5.560000000e-01	6.390891983e-01	-3.090410324e-01	1.761327021e-08
5.570000000e-01	6.390891983e-01	-3.090410324e-01	1.759321132e-08
