# R [micrones]     Omega/c [1/micrones]    Im(epsi1)     Eq(det)$\mu$ = 0.3 eV, $E_p$ = 0.300 eV, modo = 1, $\epsilon_\infty$ = 3.9, $\gamma_{DL}$ = 0.01 eV, solve_det_sinkz_vs_R.py
1.000000000e-01	9.644253193e-01	-1.396663445e-01	1.156934759e-15
1.010000000e-01	9.637286311e-01	-1.398548361e-01	7.417644596e-16
1.020000000e-01	9.630448212e-01	-1.400406621e-01	1.379768457e-15
1.030000000e-01	9.623735337e-01	-1.402238767e-01	8.035768962e-16
1.040000000e-01	9.617144257e-01	-1.404045323e-01	8.496507751e-16
1.050000000e-01	9.610671668e-01	-1.405826805e-01	1.277412679e-15
1.060000000e-01	9.604314384e-01	-1.407583714e-01	1.211908803e-15
1.070000000e-01	9.598069333e-01	-1.409316536e-01	4.793130922e-16
1.080000000e-01	9.591933552e-01	-1.411025750e-01	5.828541831e-16
1.090000000e-01	9.585904180e-01	-1.412711820e-01	1.304799582e-15
1.100000000e-01	9.579978455e-01	-1.414375198e-01	1.122215310e-15
1.110000000e-01	9.574153711e-01	-1.416016328e-01	9.583536610e-16
1.120000000e-01	9.568427372e-01	-1.417635641e-01	1.486658447e-15
1.130000000e-01	9.562796950e-01	-1.419233557e-01	9.832203132e-16
1.140000000e-01	9.557260039e-01	-1.420810488e-01	2.093015269e-15
1.150000000e-01	9.551814314e-01	-1.422366834e-01	7.365648270e-16
1.160000000e-01	9.546457525e-01	-1.423902987e-01	1.116369163e-15
1.170000000e-01	9.541187498e-01	-1.425419327e-01	2.432956519e-15
1.180000000e-01	9.536002126e-01	-1.426916229e-01	1.399781418e-15
1.190000000e-01	9.530899374e-01	-1.428394055e-01	2.338551846e-15
1.200000000e-01	9.525877267e-01	-1.429853161e-01	2.668791100e-15
1.210000000e-01	9.520933895e-01	-1.431293893e-01	8.541082399e-16
1.220000000e-01	9.516067410e-01	-1.432716591e-01	8.225123909e-16
1.230000000e-01	9.511276017e-01	-1.434121584e-01	1.780049773e-15
1.240000000e-01	9.506557979e-01	-1.435509196e-01	1.914551595e-15
1.250000000e-01	9.501911613e-01	-1.436879741e-01	1.661749820e-15
1.260000000e-01	9.497335286e-01	-1.438233529e-01	1.944961470e-15
1.270000000e-01	9.492827413e-01	-1.439570860e-01	1.269156523e-15
1.280000000e-01	9.488386459e-01	-1.440892028e-01	1.586980852e-15
1.290000000e-01	9.484010933e-01	-1.442197321e-01	2.371127178e-15
1.300000000e-01	9.479699389e-01	-1.443487019e-01	1.192653182e-15
1.310000000e-01	9.475450422e-01	-1.444761396e-01	1.871457575e-15
1.320000000e-01	9.471262670e-01	-1.446020721e-01	1.264691149e-15
1.330000000e-01	9.467134807e-01	-1.447265256e-01	2.576810159e-15
1.340000000e-01	9.463065548e-01	-1.448495257e-01	8.438777009e-16
1.350000000e-01	9.459053644e-01	-1.449710976e-01	1.461704127e-15
1.360000000e-01	9.455097881e-01	-1.450912656e-01	5.017228464e-16
1.370000000e-01	9.451197078e-01	-1.452100537e-01	3.597164651e-15
1.380000000e-01	9.447350088e-01	-1.453274854e-01	2.107691210e-15
1.390000000e-01	9.443555795e-01	-1.454435836e-01	2.364363850e-15
1.400000000e-01	9.439813116e-01	-1.455583707e-01	4.814151117e-15
1.410000000e-01	9.436120993e-01	-1.456718687e-01	1.250232902e-15
1.420000000e-01	9.432478402e-01	-1.457840989e-01	1.500301064e-15
1.430000000e-01	9.428884342e-01	-1.458950825e-01	3.856120255e-15
1.440000000e-01	9.425337842e-01	-1.460048398e-01	1.846443092e-15
1.450000000e-01	9.421837955e-01	-1.461133911e-01	1.634806351e-15
1.460000000e-01	9.418383760e-01	-1.462207560e-01	1.739369579e-15
1.470000000e-01	9.414974358e-01	-1.463269538e-01	1.923288946e-15
1.480000000e-01	9.411608877e-01	-1.464320033e-01	1.144544225e-15
1.490000000e-01	9.408286465e-01	-1.465359230e-01	1.359501178e-15
1.500000000e-01	9.405006291e-01	-1.466387309e-01	1.591791055e-15
1.510000000e-01	9.401767549e-01	-1.467404449e-01	6.924722548e-16
1.520000000e-01	9.398569449e-01	-1.468410821e-01	9.008726342e-16
1.530000000e-01	9.395411225e-01	-1.469406595e-01	1.167524639e-15
1.540000000e-01	9.392292126e-01	-1.470391939e-01	1.531200592e-15
1.550000000e-01	9.389211425e-01	-1.471367014e-01	1.414776583e-15
1.560000000e-01	9.386168407e-01	-1.472331981e-01	1.197980830e-15
1.570000000e-01	9.383162379e-01	-1.473286995e-01	1.301350024e-15
1.580000000e-01	9.380192663e-01	-1.474232211e-01	2.363073513e-15
1.590000000e-01	9.377258599e-01	-1.475167777e-01	3.000957318e-15
1.600000000e-01	9.374359540e-01	-1.476093841e-01	2.232773916e-15
1.610000000e-01	9.371494858e-01	-1.477010548e-01	1.288038898e-15
1.620000000e-01	9.368663938e-01	-1.477918038e-01	1.021183045e-15
1.630000000e-01	9.365866179e-01	-1.478816450e-01	1.653339187e-15
1.640000000e-01	9.363100996e-01	-1.479705921e-01	3.111958646e-15
1.650000000e-01	9.360367817e-01	-1.480586582e-01	1.093420048e-15
1.660000000e-01	9.357666082e-01	-1.481458565e-01	2.523139195e-15
1.670000000e-01	9.354995247e-01	-1.482321998e-01	1.191617404e-15
1.680000000e-01	9.352354777e-01	-1.483177006e-01	1.911719284e-15
1.690000000e-01	9.349744152e-01	-1.484023713e-01	8.481442454e-16
1.700000000e-01	9.347162862e-01	-1.484862239e-01	1.060070683e-15
1.710000000e-01	9.344610410e-01	-1.485692703e-01	2.911464141e-15
1.720000000e-01	9.342086309e-01	-1.486515221e-01	1.794957471e-15
1.730000000e-01	9.339590083e-01	-1.487329906e-01	2.083464735e-15
1.740000000e-01	9.337121267e-01	-1.488136872e-01	2.349399744e-15
1.750000000e-01	9.334679408e-01	-1.488936228e-01	1.623415439e-15
1.760000000e-01	9.332264059e-01	-1.489728082e-01	1.004725257e-15
1.770000000e-01	9.329874786e-01	-1.490512539e-01	2.412353699e-15
1.780000000e-01	9.327511164e-01	-1.491289703e-01	2.414258936e-15
1.790000000e-01	9.325172775e-01	-1.492059676e-01	2.458836710e-15
1.800000000e-01	9.322859214e-01	-1.492822559e-01	1.647172751e-15
1.810000000e-01	9.320570081e-01	-1.493578449e-01	7.995217122e-16
1.820000000e-01	9.318304986e-01	-1.494327443e-01	1.371666311e-15
1.830000000e-01	9.316063546e-01	-1.495069636e-01	2.890213479e-15
1.840000000e-01	9.313845390e-01	-1.495805120e-01	2.655459688e-15
1.850000000e-01	9.311650150e-01	-1.496533987e-01	1.263796843e-15
1.860000000e-01	9.309477467e-01	-1.497256326e-01	3.305677762e-15
1.870000000e-01	9.307326992e-01	-1.497972226e-01	2.129510950e-15
1.880000000e-01	9.305198381e-01	-1.498681774e-01	2.876559277e-15
1.890000000e-01	9.303091297e-01	-1.499385053e-01	1.097568790e-15
1.900000000e-01	9.301005409e-01	-1.500082148e-01	1.685464728e-15
1.910000000e-01	9.298940397e-01	-1.500773141e-01	8.383474379e-16
1.920000000e-01	9.296895941e-01	-1.501458112e-01	1.150907628e-15
1.930000000e-01	9.294871734e-01	-1.502137141e-01	3.223690567e-15
1.940000000e-01	9.292867470e-01	-1.502810305e-01	2.735950960e-15
1.950000000e-01	9.290882852e-01	-1.503477681e-01	2.068264685e-15
1.960000000e-01	9.288917588e-01	-1.504139344e-01	2.933499907e-15
1.970000000e-01	9.286971392e-01	-1.504795369e-01	1.751699681e-15
1.980000000e-01	9.285043984e-01	-1.505445826e-01	2.020986196e-15
1.990000000e-01	9.283135087e-01	-1.506090789e-01	2.329239590e-15
2.000000000e-01	9.281244433e-01	-1.506730327e-01	1.886416556e-15
2.010000000e-01	9.279371757e-01	-1.507364510e-01	1.450939515e-15
2.020000000e-01	9.277516799e-01	-1.507993404e-01	1.540634365e-15
2.030000000e-01	9.275679305e-01	-1.508617077e-01	1.702868603e-15
2.040000000e-01	9.273859026e-01	-1.509235595e-01	1.989123922e-15
2.050000000e-01	9.272055717e-01	-1.509849022e-01	2.270568661e-15
2.060000000e-01	9.270269137e-01	-1.510457422e-01	1.406382593e-15
2.070000000e-01	9.268499050e-01	-1.511060856e-01	1.804924631e-15
2.080000000e-01	9.266745226e-01	-1.511659387e-01	2.768986010e-15
2.090000000e-01	9.265007437e-01	-1.512253075e-01	2.489014893e-15
2.100000000e-01	9.263285461e-01	-1.512841979e-01	1.889372515e-15
2.110000000e-01	9.261579078e-01	-1.513426158e-01	4.652241377e-15
2.120000000e-01	9.259888075e-01	-1.514005669e-01	1.974539995e-15
2.130000000e-01	9.258212240e-01	-1.514580569e-01	4.742748275e-15
2.140000000e-01	9.256551367e-01	-1.515150914e-01	1.851337014e-15
2.150000000e-01	9.254905252e-01	-1.515716758e-01	3.625915330e-15
2.160000000e-01	9.253273697e-01	-1.516278155e-01	2.473527001e-15
2.170000000e-01	9.251656504e-01	-1.516835158e-01	2.140266541e-15
2.180000000e-01	9.250053481e-01	-1.517387821e-01	1.679386906e-15
2.190000000e-01	9.248464441e-01	-1.517936193e-01	2.961046318e-15
2.200000000e-01	9.246889196e-01	-1.518480327e-01	1.644424129e-15
2.210000000e-01	9.245327565e-01	-1.519020270e-01	2.121141288e-15
2.220000000e-01	9.243779368e-01	-1.519556074e-01	1.649431201e-15
2.230000000e-01	9.242244430e-01	-1.520087785e-01	6.236848020e-15
2.240000000e-01	9.240722577e-01	-1.520615452e-01	4.158664554e-15
2.250000000e-01	9.239213640e-01	-1.521139122e-01	3.024344647e-15
2.260000000e-01	9.237717451e-01	-1.521658840e-01	1.561479773e-15
2.270000000e-01	9.236233846e-01	-1.522174652e-01	2.738046856e-15
2.280000000e-01	9.234762665e-01	-1.522686602e-01	2.588715288e-15
2.290000000e-01	9.233303747e-01	-1.523194736e-01	3.088405396e-15
2.300000000e-01	9.231856938e-01	-1.523699095e-01	1.335509731e-15
2.310000000e-01	9.230422085e-01	-1.524199723e-01	7.391714796e-16
2.320000000e-01	9.228999035e-01	-1.524696662e-01	3.886146427e-15
2.330000000e-01	9.227587642e-01	-1.525189954e-01	1.853081220e-15
2.340000000e-01	9.226187759e-01	-1.525679639e-01	2.231572359e-15
2.350000000e-01	9.224799244e-01	-1.526165757e-01	2.386899182e-15
2.360000000e-01	9.223421954e-01	-1.526648349e-01	3.611806212e-15
2.370000000e-01	9.222055753e-01	-1.527127453e-01	2.799607747e-15
2.380000000e-01	9.220700503e-01	-1.527603107e-01	2.570958450e-15
2.390000000e-01	9.219356070e-01	-1.528075351e-01	2.709717509e-15
2.400000000e-01	9.218022323e-01	-1.528544220e-01	2.131590938e-15
2.410000000e-01	9.216699131e-01	-1.529009752e-01	1.348359962e-15
2.420000000e-01	9.215386367e-01	-1.529471984e-01	9.955569908e-15
2.430000000e-01	9.214083906e-01	-1.529930951e-01	2.424819922e-15
2.440000000e-01	9.212791623e-01	-1.530386688e-01	2.792215723e-15
2.450000000e-01	9.211509397e-01	-1.530839230e-01	2.357293428e-15
2.460000000e-01	9.210237108e-01	-1.531288612e-01	1.442843119e-15
2.470000000e-01	9.208974639e-01	-1.531734866e-01	2.681853048e-15
2.480000000e-01	9.207721874e-01	-1.532178028e-01	5.283474978e-15
2.490000000e-01	9.206478697e-01	-1.532618128e-01	4.450814474e-15
2.500000000e-01	9.205244998e-01	-1.533055201e-01	1.847142460e-15
2.510000000e-01	9.204020666e-01	-1.533489277e-01	3.243055014e-15
2.520000000e-01	9.202805590e-01	-1.533920388e-01	1.219368035e-15
2.530000000e-01	9.201599666e-01	-1.534348565e-01	2.214202306e-15
2.540000000e-01	9.200402785e-01	-1.534773840e-01	1.900435489e-15
2.550000000e-01	9.199214846e-01	-1.535196241e-01	3.236090511e-15
2.560000000e-01	9.198035745e-01	-1.535615799e-01	2.931223970e-15
2.570000000e-01	9.196865382e-01	-1.536032543e-01	2.367312446e-15
2.580000000e-01	9.195703657e-01	-1.536446503e-01	2.763175399e-15
2.590000000e-01	9.194550473e-01	-1.536857706e-01	4.258798069e-15
2.600000000e-01	9.193405734e-01	-1.537266181e-01	7.105937548e-16
2.610000000e-01	9.192269343e-01	-1.537671956e-01	1.739532863e-15
2.620000000e-01	9.191141209e-01	-1.538075058e-01	2.342872604e-15
2.630000000e-01	9.190021239e-01	-1.538475514e-01	1.726148265e-15
2.640000000e-01	9.188909342e-01	-1.538873351e-01	1.737582080e-15
2.650000000e-01	9.187805429e-01	-1.539268595e-01	2.300290983e-15
2.660000000e-01	9.186709412e-01	-1.539661273e-01	1.482068441e-15
2.670000000e-01	9.185621204e-01	-1.540051409e-01	4.977707364e-15
2.680000000e-01	9.184540720e-01	-1.540439030e-01	3.831269872e-15
2.690000000e-01	9.183467876e-01	-1.540824160e-01	4.183804265e-15
2.700000000e-01	9.182402588e-01	-1.541206824e-01	3.629138403e-15
2.710000000e-01	9.181344775e-01	-1.541587046e-01	1.847029459e-15
2.720000000e-01	9.180294355e-01	-1.541964850e-01	2.911521553e-15
2.730000000e-01	9.179251251e-01	-1.542340259e-01	2.287585628e-15
2.740000000e-01	9.178215383e-01	-1.542713299e-01	3.635791448e-15
2.750000000e-01	9.177186673e-01	-1.543083990e-01	4.103117979e-15
2.760000000e-01	9.176165047e-01	-1.543452356e-01	3.382165138e-15
2.770000000e-01	9.175150429e-01	-1.543818420e-01	2.578939262e-15
2.780000000e-01	9.174142744e-01	-1.544182204e-01	4.906986671e-15
2.790000000e-01	9.173141920e-01	-1.544543730e-01	3.280153220e-15
2.800000000e-01	9.172147886e-01	-1.544903019e-01	2.490014928e-15
2.810000000e-01	9.171160569e-01	-1.545260092e-01	1.315431184e-15
2.820000000e-01	9.170179901e-01	-1.545614972e-01	2.603213705e-15
2.830000000e-01	9.169205812e-01	-1.545967678e-01	4.801870712e-15
2.840000000e-01	9.168238234e-01	-1.546318231e-01	3.202188468e-15
2.850000000e-01	9.167277100e-01	-1.546666652e-01	5.811207365e-15
2.860000000e-01	9.166322344e-01	-1.547012960e-01	3.236398432e-15
2.870000000e-01	9.165373901e-01	-1.547357176e-01	2.991603674e-15
2.880000000e-01	9.164431705e-01	-1.547699318e-01	2.254348814e-15
2.890000000e-01	9.163495695e-01	-1.548039407e-01	2.465549584e-15
2.900000000e-01	9.162565807e-01	-1.548377461e-01	2.122498950e-15
2.910000000e-01	9.161641979e-01	-1.548713499e-01	2.608840063e-15
2.920000000e-01	9.160724151e-01	-1.549047541e-01	2.045607438e-15
2.930000000e-01	9.159812261e-01	-1.549379603e-01	3.345964656e-15
2.940000000e-01	9.158906252e-01	-1.549709704e-01	2.088203997e-15
2.950000000e-01	9.158006064e-01	-1.550037863e-01	5.555399495e-15
2.960000000e-01	9.157111639e-01	-1.550364097e-01	2.156033668e-15
2.970000000e-01	9.156222921e-01	-1.550688423e-01	3.711776543e-15
2.980000000e-01	9.155339853e-01	-1.551010859e-01	3.564654564e-15
2.990000000e-01	9.154462380e-01	-1.551331422e-01	1.740550073e-15
3.000000000e-01	9.153590446e-01	-1.551650128e-01	2.635350798e-15
3.010000000e-01	9.152723999e-01	-1.551966995e-01	3.514649324e-15
3.020000000e-01	9.151862984e-01	-1.552282039e-01	3.125469942e-15
3.030000000e-01	9.151007348e-01	-1.552595276e-01	6.509120771e-15
3.040000000e-01	9.150157040e-01	-1.552906722e-01	2.767154336e-15
3.050000000e-01	9.149312009e-01	-1.553216394e-01	2.282502051e-15
3.060000000e-01	9.148472203e-01	-1.553524306e-01	2.299717414e-15
3.070000000e-01	9.147637573e-01	-1.553830475e-01	3.892630778e-15
3.080000000e-01	9.146808069e-01	-1.554134915e-01	4.869927260e-15
3.090000000e-01	9.145983643e-01	-1.554437643e-01	3.090644726e-15
3.100000000e-01	9.145164246e-01	-1.554738672e-01	2.692551277e-15
3.110000000e-01	9.144349830e-01	-1.555038018e-01	2.776571656e-15
3.120000000e-01	9.143540350e-01	-1.555335695e-01	5.512070365e-15
3.130000000e-01	9.142735757e-01	-1.555631719e-01	2.091083470e-15
3.140000000e-01	9.141936008e-01	-1.555926102e-01	8.800090215e-15
3.150000000e-01	9.141141056e-01	-1.556218860e-01	3.667845605e-15
3.160000000e-01	9.140350856e-01	-1.556510006e-01	2.652384545e-15
3.170000000e-01	9.139565365e-01	-1.556799554e-01	1.865576757e-15
3.180000000e-01	9.138784540e-01	-1.557087518e-01	6.509517737e-15
3.190000000e-01	9.138008336e-01	-1.557373911e-01	2.695435107e-15
3.200000000e-01	9.137236713e-01	-1.557658747e-01	3.585506107e-15
3.210000000e-01	9.136469626e-01	-1.557942039e-01	1.896425664e-15
3.220000000e-01	9.135707036e-01	-1.558223800e-01	1.707617255e-15
3.230000000e-01	9.134948902e-01	-1.558504042e-01	4.183500667e-15
3.240000000e-01	9.134195182e-01	-1.558782780e-01	2.321320296e-15
3.250000000e-01	9.133445837e-01	-1.559060024e-01	3.519264801e-15
3.260000000e-01	9.132700827e-01	-1.559335788e-01	2.784896784e-15
3.270000000e-01	9.131960114e-01	-1.559610084e-01	3.502322093e-15
3.280000000e-01	9.131223658e-01	-1.559882924e-01	3.933701527e-15
3.290000000e-01	9.130491422e-01	-1.560154321e-01	2.265867789e-15
3.300000000e-01	9.129763368e-01	-1.560424286e-01	3.516533952e-15
3.310000000e-01	9.129039459e-01	-1.560692831e-01	3.045123054e-15
3.320000000e-01	9.128319659e-01	-1.560959968e-01	3.055698509e-15
3.330000000e-01	9.127603930e-01	-1.561225708e-01	2.239722091e-15
3.340000000e-01	9.126892237e-01	-1.561490063e-01	3.215090869e-15
3.350000000e-01	9.126184545e-01	-1.561753044e-01	2.557195033e-15
3.360000000e-01	9.125480818e-01	-1.562014662e-01	4.143818704e-15
3.370000000e-01	9.124781022e-01	-1.562274928e-01	2.207817062e-15
3.380000000e-01	9.124085122e-01	-1.562533854e-01	7.625305745e-15
3.390000000e-01	9.123393086e-01	-1.562791450e-01	3.531512857e-15
3.400000000e-01	9.122704878e-01	-1.563047726e-01	4.091327874e-15
3.410000000e-01	9.122020468e-01	-1.563302694e-01	2.803867714e-15
3.420000000e-01	9.121339820e-01	-1.563556363e-01	3.817125447e-15
3.430000000e-01	9.120662904e-01	-1.563808745e-01	2.202016012e-15
3.440000000e-01	9.119989687e-01	-1.564059849e-01	2.494898384e-15
3.450000000e-01	9.119320138e-01	-1.564309686e-01	4.598380049e-15
3.460000000e-01	9.118654226e-01	-1.564558265e-01	3.412332802e-15
3.470000000e-01	9.117991919e-01	-1.564805597e-01	3.256366602e-15
3.480000000e-01	9.117333188e-01	-1.565051691e-01	2.739588412e-15
3.490000000e-01	9.116678002e-01	-1.565296558e-01	2.782301784e-15
3.500000000e-01	9.116026331e-01	-1.565540206e-01	3.454919358e-15
3.510000000e-01	9.115378145e-01	-1.565782645e-01	3.906695289e-15
3.520000000e-01	9.114733417e-01	-1.566023886e-01	4.827070121e-15
3.530000000e-01	9.114092116e-01	-1.566263936e-01	3.143398458e-15
3.540000000e-01	9.113454214e-01	-1.566502805e-01	2.326704555e-15
3.550000000e-01	9.112819683e-01	-1.566740503e-01	1.463724782e-15
3.560000000e-01	9.112188496e-01	-1.566977038e-01	3.096251383e-15
3.570000000e-01	9.111560624e-01	-1.567212420e-01	4.275141298e-15
3.580000000e-01	9.110936040e-01	-1.567446656e-01	2.998997594e-15
3.590000000e-01	9.110314718e-01	-1.567679757e-01	2.142872029e-15
3.600000000e-01	9.109696630e-01	-1.567911731e-01	2.301624021e-15
3.610000000e-01	9.109081750e-01	-1.568142586e-01	3.475207486e-15
3.620000000e-01	9.108470053e-01	-1.568372330e-01	3.988652239e-15
3.630000000e-01	9.107861512e-01	-1.568600973e-01	3.809262279e-15
3.640000000e-01	9.107256102e-01	-1.568828522e-01	3.709140387e-15
3.650000000e-01	9.106653797e-01	-1.569054986e-01	3.246895553e-15
3.660000000e-01	9.106054573e-01	-1.569280373e-01	3.065638050e-15
3.670000000e-01	9.105458404e-01	-1.569504691e-01	2.772076497e-15
3.680000000e-01	9.104865267e-01	-1.569727948e-01	4.653139378e-15
3.690000000e-01	9.104275137e-01	-1.569950152e-01	4.568198375e-15
3.700000000e-01	9.103687990e-01	-1.570171311e-01	3.116326867e-15
3.710000000e-01	9.103103803e-01	-1.570391433e-01	6.087105604e-15
3.720000000e-01	9.102522552e-01	-1.570610524e-01	3.162838479e-15
3.730000000e-01	9.101944214e-01	-1.570828594e-01	3.476118979e-15
3.740000000e-01	9.101368765e-01	-1.571045649e-01	3.299631118e-15
3.750000000e-01	9.100796184e-01	-1.571261696e-01	1.378392609e-15
3.760000000e-01	9.100226448e-01	-1.571476744e-01	3.809329242e-15
3.770000000e-01	9.099659534e-01	-1.571690800e-01	2.514265303e-15
3.780000000e-01	9.099095420e-01	-1.571903870e-01	1.190357175e-15
3.790000000e-01	9.098534086e-01	-1.572115963e-01	4.472662995e-15
3.800000000e-01	9.097975508e-01	-1.572327084e-01	6.254446470e-15
3.810000000e-01	9.097419667e-01	-1.572537242e-01	4.030142485e-15
3.820000000e-01	9.096866540e-01	-1.572746443e-01	1.365373011e-15
3.830000000e-01	9.096316107e-01	-1.572954693e-01	2.433611862e-15
3.840000000e-01	9.095768347e-01	-1.573162001e-01	5.523325262e-15
3.850000000e-01	9.095223240e-01	-1.573368372e-01	9.284870601e-15
3.860000000e-01	9.094680766e-01	-1.573573814e-01	5.623258602e-15
3.870000000e-01	9.094140904e-01	-1.573778333e-01	3.961030722e-15
3.880000000e-01	9.093603635e-01	-1.573981935e-01	2.944342430e-15
3.890000000e-01	9.093068938e-01	-1.574184627e-01	2.734704106e-15
3.900000000e-01	9.092536796e-01	-1.574386416e-01	6.775670596e-15
3.910000000e-01	9.092007187e-01	-1.574587308e-01	4.013678361e-15
3.920000000e-01	9.091480094e-01	-1.574787309e-01	2.915261271e-15
3.930000000e-01	9.090955497e-01	-1.574986425e-01	1.082031402e-14
3.940000000e-01	9.090433378e-01	-1.575184664e-01	2.269879522e-15
3.950000000e-01	9.089913718e-01	-1.575382030e-01	4.524674064e-15
3.960000000e-01	9.089396499e-01	-1.575578530e-01	4.451274090e-15
3.970000000e-01	9.088881703e-01	-1.575774170e-01	2.260267931e-15
3.980000000e-01	9.088369311e-01	-1.575968957e-01	4.767554320e-15
3.990000000e-01	9.087859307e-01	-1.576162895e-01	4.004967511e-15
4.000000000e-01	9.087351672e-01	-1.576355991e-01	5.692564577e-15
4.010000000e-01	9.086846390e-01	-1.576548251e-01	2.767362652e-15
4.020000000e-01	9.086343442e-01	-1.576739680e-01	2.555789614e-15
4.030000000e-01	9.085842812e-01	-1.576930285e-01	3.933547238e-15
