# kz [1/micrones]     Omega [THz]    log10(|det|)     , $\mu_c$ = 0.4000 eV, modo = 1, R = 0.50$\mu$m, $\eta$ = 0.90, plot_det_conkz.py
3.00000000000e-01	2.51034201472e+01	-1.03226280709e+00
3.10000000000e-01	2.51158705658e+01	-1.09391779626e+00
3.20000000000e-01	2.51287365015e+01	-1.15331773366e+00
3.30000000000e-01	2.51420171569e+01	-1.21062965936e+00
3.40000000000e-01	2.51557116494e+01	-1.26600200099e+00
3.50000000000e-01	2.51698190612e+01	-1.31956730217e+00
3.60000000000e-01	2.51843382721e+01	-1.37144446163e+00
3.70000000000e-01	2.51992680933e+01	-1.42174058556e+00
3.80000000000e-01	2.52146072880e+01	-1.47055253158e+00
3.90000000000e-01	2.52303545143e+01	-1.51796820426e+00
4.00000000000e-01	2.52465083571e+01	-1.56406764937e+00
4.10000000000e-01	2.52630673288e+01	-1.60892398347e+00
4.20000000000e-01	2.52800298867e+01	-1.65260418802e+00
4.30000000000e-01	2.52973943893e+01	-1.69516979131e+00
4.40000000000e-01	2.53151591632e+01	-1.73667745680e+00
4.50000000000e-01	2.53333224549e+01	-1.77717949320e+00
4.60000000000e-01	2.53518824654e+01	-1.81672429834e+00
4.70000000000e-01	2.53708373251e+01	-1.85535674721e+00
4.80000000000e-01	2.53901851229e+01	-1.89311853234e+00
4.90000000000e-01	2.54099238826e+01	-1.93004846353e+00
5.00000000000e-01	2.54300515856e+01	-1.96618273258e+00
5.10000000000e-01	2.54505661591e+01	-2.00155514796e+00
5.20000000000e-01	2.54714654814e+01	-2.03619734341e+00
5.30000000000e-01	2.54927474010e+01	-2.07013896396e+00
5.40000000000e-01	2.55144096989e+01	-2.10340783212e+00
5.50000000000e-01	2.55364501251e+01	-2.13603009701e+00
5.60000000000e-01	2.55588663987e+01	-2.16803036821e+00
5.70000000000e-01	2.55816561785e+01	-2.19943183642e+00
5.80000000000e-01	2.56048170906e+01	-2.23025638241e+00
5.90000000000e-01	2.56283467345e+01	-2.26052467546e+00
6.00000000000e-01	2.56522426652e+01	-2.29025626280e+00
6.10000000000e-01	2.56765023998e+01	-2.31946965070e+00
6.20000000000e-01	2.57011234339e+01	-2.34818237838e+00
6.30000000000e-01	2.57261032251e+01	-2.37641108536e+00
6.40000000000e-01	2.57514391985e+01	-2.40417157302e+00
6.50000000000e-01	2.57771287456e+01	-2.43147886089e+00
6.60000000000e-01	2.58031692467e+01	-2.45834723826e+00
6.70000000000e-01	2.58295580298e+01	-2.48479031159e+00
6.80000000000e-01	2.58562924117e+01	-2.51082104804e+00
6.90000000000e-01	2.58833696978e+01	-2.53645181560e+00
7.00000000000e-01	2.59107871314e+01	-2.56169442007e+00
7.10000000000e-01	2.59385419692e+01	-2.58656013919e+00
7.20000000000e-01	2.59666314276e+01	-2.61105975423e+00
7.30000000000e-01	2.59950527105e+01	-2.63520357919e+00
7.40000000000e-01	2.60238029956e+01	-2.65900148789e+00
7.50000000000e-01	2.60528794455e+01	-2.68246293913e+00
7.60000000000e-01	2.60822792023e+01	-2.70559699999e+00
7.70000000000e-01	2.61119993960e+01	-2.72841236757e+00
7.80000000000e-01	2.61420371325e+01	-2.75091738922e+00
7.90000000000e-01	2.61723895119e+01	-2.77312008135e+00
8.00000000000e-01	2.62030536119e+01	-2.79502814703e+00
8.10000000000e-01	2.62340265136e+01	-2.81664899240e+00
8.20000000000e-01	2.62653052563e+01	-2.83798974202e+00
8.30000000000e-01	2.62968868888e+01	-2.85905725323e+00
8.40000000000e-01	2.63287684584e+01	-2.87985812959e+00
8.50000000000e-01	2.63609469825e+01	-2.90039873350e+00
8.60000000000e-01	2.63934194734e+01	-2.92068519800e+00
8.70000000000e-01	2.64261829444e+01	-2.94072343789e+00
8.80000000000e-01	2.64592343855e+01	-2.96051916017e+00
8.90000000000e-01	2.64925708105e+01	-2.98007787384e+00
9.00000000000e-01	2.65261891951e+01	-2.99940489911e+00
9.10000000000e-01	2.65600865212e+01	-3.01850537615e+00
9.20000000000e-01	2.65942597846e+01	-3.03738427324e+00
9.30000000000e-01	2.66287059474e+01	-3.05604639453e+00
9.40000000000e-01	2.66634219840e+01	-3.07449638732e+00
9.50000000000e-01	2.66984048739e+01	-3.09273874897e+00
9.60000000000e-01	2.67336515820e+01	-3.11077783339e+00
9.70000000000e-01	2.67691590866e+01	-3.12861785722e+00
9.80000000000e-01	2.68049243491e+01	-3.14626290566e+00
9.90000000000e-01	2.68409443499e+01	-3.16371693799e+00
1.00000000000e+00	2.68772160547e+01	-3.18098379280e+00
1.01000000000e+00	2.69137364444e+01	-3.19806719292e+00
1.02000000000e+00	2.69505024950e+01	-3.21497075019e+00
1.03000000000e+00	2.69875111892e+01	-3.23169796988e+00
1.04000000000e+00	2.70247595045e+01	-3.24825225491e+00
1.05000000000e+00	2.70622444389e+01	-3.26463690995e+00
1.06000000000e+00	2.70999629935e+01	-3.28085514519e+00
1.07000000000e+00	2.71379121550e+01	-3.29691008000e+00
1.08000000000e+00	2.71760889406e+01	-3.31280474640e+00
1.09000000000e+00	2.72144903536e+01	-3.32854209239e+00
1.10000000000e+00	2.72531134270e+01	-3.34412498503e+00
1.11000000000e+00	2.72919551799e+01	-3.35955621351e+00
1.12000000000e+00	2.73310126569e+01	-3.37483849195e+00
1.13000000000e+00	2.73702829007e+01	-3.38997446218e+00
1.14000000000e+00	2.74097629668e+01	-3.40496669629e+00
1.15000000000e+00	2.74494499228e+01	-3.41981769915e+00
1.16000000000e+00	2.74893408380e+01	-3.43452991078e+00
1.17000000000e+00	2.75294328012e+01	-3.44910570861e+00
1.18000000000e+00	2.75697229174e+01	-3.46354740963e+00
1.19000000000e+00	2.76102082886e+01	-3.47785727252e+00
1.20000000000e+00	2.76508860220e+01	-3.49203749958e+00
1.21000000000e+00	2.76917532715e+01	-3.50609023865e+00
1.22000000000e+00	2.77328071666e+01	-3.52001758494e+00
1.23000000000e+00	2.77740448761e+01	-3.53382158274e+00
1.24000000000e+00	2.78154635621e+01	-3.54750422713e+00
1.25000000000e+00	2.78570604147e+01	-3.56106746556e+00
1.26000000000e+00	2.78988326381e+01	-3.57451319940e+00
1.27000000000e+00	2.79407774357e+01	-3.58784328537e+00
1.28000000000e+00	2.79828920451e+01	-3.60105953701e+00
1.29000000000e+00	2.80251737026e+01	-3.61416372602e+00
1.30000000000e+00	2.80676196657e+01	-3.62715758352e+00
1.31000000000e+00	2.81102272157e+01	-3.64004280138e+00
1.32000000000e+00	2.81529936439e+01	-3.65282103335e+00
1.33000000000e+00	2.81959162444e+01	-3.66549389626e+00
1.34000000000e+00	2.82389923491e+01	-3.67806297113e+00
1.35000000000e+00	2.82822192945e+01	-3.69052980422e+00
1.36000000000e+00	2.83255944400e+01	-3.70289590807e+00
1.37000000000e+00	2.83691151525e+01	-3.71516276249e+00
1.38000000000e+00	2.84127788280e+01	-3.72733181554e+00
1.39000000000e+00	2.84565828628e+01	-3.73940448439e+00
1.40000000000e+00	2.85005246998e+01	-3.75138215627e+00
1.41000000000e+00	2.85446017666e+01	-3.76326618927e+00
1.42000000000e+00	2.85888115415e+01	-3.77505791321e+00
1.43000000000e+00	2.86331514844e+01	-3.78675863040e+00
1.44000000000e+00	2.86776191139e+01	-3.79836961641e+00
1.45000000000e+00	2.87222119253e+01	-3.80989212083e+00
1.46000000000e+00	2.87669274694e+01	-3.82132736794e+00
1.47000000000e+00	2.88117632927e+01	-3.83267655745e+00
1.48000000000e+00	2.88567169744e+01	-3.84394086513e+00
1.49000000000e+00	2.89017860996e+01	-3.85512144344e+00
1.50000000000e+00	2.89469682862e+01	-3.86621942219e+00
1.51000000000e+00	2.89922611625e+01	-3.87723590912e+00
1.52000000000e+00	2.90376623793e+01	-3.88817199044e+00
1.53000000000e+00	2.90831696038e+01	-3.89902873147e+00
1.54000000000e+00	2.91287805260e+01	-3.90980717710e+00
1.55000000000e+00	2.91744928532e+01	-3.92050835237e+00
1.56000000000e+00	2.92203043205e+01	-3.93113326294e+00
1.57000000000e+00	2.92662126679e+01	-3.94168289560e+00
1.58000000000e+00	2.93122156723e+01	-3.95215821875e+00
1.59000000000e+00	2.93583111170e+01	-3.96256018282e+00
1.60000000000e+00	2.94044968068e+01	-3.97288972077e+00
1.61000000000e+00	2.94507705824e+01	-3.98314774847e+00
1.62000000000e+00	2.94971302786e+01	-3.99333516516e+00
1.63000000000e+00	2.95435737715e+01	-4.00345285381e+00
1.64000000000e+00	2.95900989461e+01	-4.01350168154e+00
1.65000000000e+00	2.96367037082e+01	-4.02348250002e+00
1.66000000000e+00	2.96833859997e+01	-4.03339614578e+00
1.67000000000e+00	2.97301437574e+01	-4.04324344062e+00
1.68000000000e+00	2.97769749547e+01	-4.05302519193e+00
1.69000000000e+00	2.98238775791e+01	-4.06274219302e+00
1.70000000000e+00	2.98708496430e+01	-4.07239522347e+00
1.71000000000e+00	2.99178891686e+01	-4.08198504945e+00
1.72000000000e+00	2.99649942219e+01	-4.09151242398e+00
1.73000000000e+00	3.00121628573e+01	-4.10097808729e+00
1.74000000000e+00	3.00593931684e+01	-4.11038276704e+00
1.75000000000e+00	3.01066832626e+01	-4.11972717870e+00
1.76000000000e+00	3.01540312760e+01	-4.12901202570e+00
1.77000000000e+00	3.02014353608e+01	-4.13823799981e+00
1.78000000000e+00	3.02488936740e+01	-4.14740578133e+00
1.79000000000e+00	3.02964044230e+01	-4.15651603936e+00
1.80000000000e+00	3.03439658034e+01	-4.16556943203e+00
1.81000000000e+00	3.03915760418e+01	-4.17456660677e+00
1.82000000000e+00	3.04392334018e+01	-4.18350820052e+00
1.83000000000e+00	3.04869361472e+01	-4.19239483996e+00
1.84000000000e+00	3.05346825593e+01	-4.20122714169e+00
1.85000000000e+00	3.05824709484e+01	-4.21000571253e+00
1.86000000000e+00	3.06302996476e+01	-4.21873114962e+00
1.87000000000e+00	3.06781669990e+01	-4.22740404072e+00
1.88000000000e+00	3.07260713722e+01	-4.23602496434e+00
1.89000000000e+00	3.07740111390e+01	-4.24459448995e+00
1.90000000000e+00	3.08219847183e+01	-4.25311317816e+00
1.91000000000e+00	3.08699905310e+01	-4.26158158094e+00
1.92000000000e+00	3.09180270228e+01	-4.27000024174e+00
1.93000000000e+00	3.09660926472e+01	-4.27836969568e+00
1.94000000000e+00	3.10141858895e+01	-4.28669046975e+00
1.95000000000e+00	3.10623052412e+01	-4.29496308292e+00
1.96000000000e+00	3.11104492272e+01	-4.30318804634e+00
1.97000000000e+00	3.11586163778e+01	-4.31136586349e+00
1.98000000000e+00	3.12068052585e+01	-4.31949703031e+00
1.99000000000e+00	3.12550144273e+01	-4.32758203535e+00
2.00000000000e+00	3.13032424883e+01	-4.33562135995e+00
2.01000000000e+00	3.13514880398e+01	-4.34361547834e+00
2.02000000000e+00	3.13997497157e+01	-4.35156485777e+00
2.03000000000e+00	3.14480261625e+01	-4.35946995871e+00
2.04000000000e+00	3.14963160324e+01	-4.36733123490e+00
2.05000000000e+00	3.15446180065e+01	-4.37514913351e+00
2.06000000000e+00	3.15929307996e+01	-4.38292409528e+00
2.07000000000e+00	3.16412531128e+01	-4.39065655463e+00
2.08000000000e+00	3.16895836819e+01	-4.39834693975e+00
2.09000000000e+00	3.17379212529e+01	-4.40599567278e+00
2.10000000000e+00	3.17862645980e+01	-4.41360316984e+00
2.11000000000e+00	3.18346125007e+01	-4.42116984122e+00
2.12000000000e+00	3.18829637586e+01	-4.42869609141e+00
2.13000000000e+00	3.19313171868e+01	-4.43618231930e+00
2.14000000000e+00	3.19796716296e+01	-4.44362891818e+00
2.15000000000e+00	3.20280259284e+01	-4.45103627591e+00
2.16000000000e+00	3.20763789589e+01	-4.45840477500e+00
2.17000000000e+00	3.21247295893e+01	-4.46573479269e+00
2.18000000000e+00	3.21730767315e+01	-4.47302670107e+00
2.19000000000e+00	3.22214192994e+01	-4.48028086716e+00
2.20000000000e+00	3.22697562136e+01	-4.48749765298e+00
2.21000000000e+00	3.23180864312e+01	-4.49467741567e+00
2.22000000000e+00	3.23664089149e+01	-4.50182050756e+00
2.23000000000e+00	3.24147226379e+01	-4.50892727625e+00
2.24000000000e+00	3.24630265967e+01	-4.51599806470e+00
2.25000000000e+00	3.25113197882e+01	-4.52303321131e+00
2.26000000000e+00	3.25596012552e+01	-4.53003304999e+00
2.27000000000e+00	3.26078700195e+01	-4.53699791025e+00
2.28000000000e+00	3.26561251453e+01	-4.54392811725e+00
2.29000000000e+00	3.27043656911e+01	-4.55082399192e+00
2.30000000000e+00	3.27525907418e+01	-4.55768585097e+00
2.31000000000e+00	3.28007994024e+01	-4.56451400702e+00
2.32000000000e+00	3.28489907741e+01	-4.57130876864e+00
2.33000000000e+00	3.28971639847e+01	-4.57807044040e+00
2.34000000000e+00	3.29453181768e+01	-4.58479932297e+00
2.35000000000e+00	3.29934525000e+01	-4.59149571317e+00
2.36000000000e+00	3.30415661173e+01	-4.59815990405e+00
2.37000000000e+00	3.30896582207e+01	-4.60479218490e+00
2.38000000000e+00	3.31377279937e+01	-4.61139284138e+00
2.39000000000e+00	3.31857746487e+01	-4.61796215553e+00
2.40000000000e+00	3.32337974002e+01	-4.62450040585e+00
2.41000000000e+00	3.32817954907e+01	-4.63100786736e+00
2.42000000000e+00	3.33297681678e+01	-4.63748481163e+00
2.43000000000e+00	3.33777146794e+01	-4.64393150688e+00
2.44000000000e+00	3.34256343078e+01	-4.65034821798e+00
2.45000000000e+00	3.34735263314e+01	-4.65673520655e+00
2.46000000000e+00	3.35213900571e+01	-4.66309273099e+00
2.47000000000e+00	3.35692247823e+01	-4.66942104652e+00
2.48000000000e+00	3.36170298327e+01	-4.67572040525e+00
2.49000000000e+00	3.36648045559e+01	-4.68199105623e+00
2.50000000000e+00	3.37125482747e+01	-4.68823324548e+00
