# Ep [eV]     Omega/c [1/micrones]    Im(epsi1)     Eq(det).Opt det SIN kz nano,R = 0.35 $\mu$m, $\mu_c$ = 0.3 eV, modo = 3, $\epsilon_\infty$ = 3.9, $\gamma_{DL}$ = 0.01 eV, solve_det_sinkz_vs_Ep.py
0.000000000e+00	2.771939398e-01	-3.035356984e-02	2.417024626e-13
1.000000000e-04	2.771940305e-01	-3.035414484e-02	1.277256463e-13
2.000000000e-04	2.771943024e-01	-3.035586982e-02	2.941734884e-14
3.000000000e-04	2.771947556e-01	-3.035874477e-02	3.212604083e-13
4.000000000e-04	2.771953900e-01	-3.036276966e-02	1.279747680e-13
5.000000000e-04	2.771962057e-01	-3.036794443e-02	4.265337575e-14
6.000000000e-04	2.771972027e-01	-3.037426903e-02	1.322163290e-13
7.000000000e-04	2.771983810e-01	-3.038174338e-02	1.423858324e-13
8.000000000e-04	2.771997405e-01	-3.039036740e-02	7.176679490e-14
9.000000000e-04	2.772012813e-01	-3.040014099e-02	1.138333275e-13
1.000000000e-03	2.772030033e-01	-3.041106403e-02	2.519234756e-13
1.100000000e-03	2.772049066e-01	-3.042313639e-02	2.359564284e-13
1.200000000e-03	2.772069911e-01	-3.043635794e-02	1.897092761e-13
1.300000000e-03	2.772092569e-01	-3.045072853e-02	1.739832482e-13
1.400000000e-03	2.772117040e-01	-3.046624798e-02	2.115748380e-13
1.500000000e-03	2.772143322e-01	-3.048291611e-02	2.261229694e-13
1.600000000e-03	2.772171418e-01	-3.050073274e-02	1.032161156e-13
1.700000000e-03	2.772201325e-01	-3.051969766e-02	3.172379486e-13
1.800000000e-03	2.772233045e-01	-3.053981064e-02	3.476591741e-13
1.900000000e-03	2.772266577e-01	-3.056107145e-02	8.709584643e-14
2.000000000e-03	2.772301921e-01	-3.058347984e-02	1.365867749e-12
2.100000000e-03	2.772339077e-01	-3.060703557e-02	1.823650056e-13
2.200000000e-03	2.772378046e-01	-3.063173834e-02	1.400536555e-13
2.300000000e-03	2.772418826e-01	-3.065758788e-02	1.070402401e-13
2.400000000e-03	2.772461418e-01	-3.068458388e-02	1.696769507e-13
2.500000000e-03	2.772505822e-01	-3.071272604e-02	1.826718739e-13
2.600000000e-03	2.772552038e-01	-3.074201403e-02	5.272519161e-14
2.700000000e-03	2.772600065e-01	-3.077244750e-02	2.307367193e-13
2.800000000e-03	2.772649904e-01	-3.080402610e-02	9.769962617e-15
2.900000000e-03	2.772701554e-01	-3.083674947e-02	7.983731029e-14
3.000000000e-03	2.772755016e-01	-3.087061723e-02	3.552713679e-15
3.100000000e-03	2.772810290e-01	-3.090562899e-02	4.283792339e-14
3.200000000e-03	2.772867374e-01	-3.094178433e-02	7.834116314e-14
3.300000000e-03	2.772926270e-01	-3.097908285e-02	1.842279881e-13
3.400000000e-03	2.772986976e-01	-3.101752410e-02	1.435342768e-13
3.500000000e-03	2.773049494e-01	-3.105710765e-02	1.711213511e-13
3.600000000e-03	2.773113822e-01	-3.109783303e-02	1.782745786e-13
3.700000000e-03	2.773179961e-01	-3.113969977e-02	5.635735284e-14
3.800000000e-03	2.773247911e-01	-3.118270740e-02	4.186637925e-13
3.900000000e-03	2.773317671e-01	-3.122685540e-02	2.578977113e-13
4.000000000e-03	2.773389241e-01	-3.127214327e-02	1.323184649e-13
4.100000000e-03	2.773462622e-01	-3.131857049e-02	1.405238891e-13
4.200000000e-03	2.773537813e-01	-3.136613651e-02	1.609172434e-14
4.300000000e-03	2.773614814e-01	-3.141484079e-02	2.250551055e-13
4.400000000e-03	2.773693624e-01	-3.146468277e-02	2.469136007e-13
4.500000000e-03	2.773774245e-01	-3.151566186e-02	1.985788985e-13
4.600000000e-03	2.773856675e-01	-3.156777748e-02	7.105982447e-14
4.700000000e-03	2.773940914e-01	-3.162102902e-02	1.128091491e-13
4.800000000e-03	2.774026963e-01	-3.167541587e-02	1.476220936e-14
4.900000000e-03	2.774114821e-01	-3.173093740e-02	3.179632224e-13
5.000000000e-03	2.774204487e-01	-3.178759297e-02	1.225050492e-13
5.100000000e-03	2.774295963e-01	-3.184538193e-02	3.988158472e-14
5.200000000e-03	2.774389248e-01	-3.190430360e-02	2.274846707e-14
5.300000000e-03	2.774484340e-01	-3.196435730e-02	1.190233647e-13
5.400000000e-03	2.774581242e-01	-3.202554235e-02	1.290650382e-13
5.500000000e-03	2.774679951e-01	-3.208785803e-02	2.009718347e-14
5.600000000e-03	2.774780469e-01	-3.215130363e-02	1.347757709e-13
5.700000000e-03	2.774882794e-01	-3.221587842e-02	2.854633628e-14
5.800000000e-03	2.774986927e-01	-3.228158164e-02	1.635116932e-13
5.900000000e-03	2.775092868e-01	-3.234841254e-02	1.019859355e-13
6.000000000e-03	2.775200616e-01	-3.241637035e-02	8.324392715e-14
6.100000000e-03	2.775310171e-01	-3.248545429e-02	2.659085893e-13
6.200000000e-03	2.775421533e-01	-3.255566356e-02	5.250216394e-14
6.300000000e-03	2.775534702e-01	-3.262699735e-02	3.747491997e-14
6.400000000e-03	2.775649677e-01	-3.269945484e-02	1.848456989e-13
6.500000000e-03	2.775766459e-01	-3.277303519e-02	1.994079236e-13
6.600000000e-03	2.775885047e-01	-3.284773756e-02	2.274846707e-14
6.700000000e-03	2.776005441e-01	-3.292356109e-02	2.292227447e-13
6.800000000e-03	2.776127640e-01	-3.300050490e-02	4.177992136e-13
6.900000000e-03	2.776251646e-01	-3.307856811e-02	6.876503095e-14
7.000000000e-03	2.776377456e-01	-3.315774982e-02	2.612211100e-13
7.100000000e-03	2.776505072e-01	-3.323804912e-02	3.634212942e-14
7.200000000e-03	2.776634493e-01	-3.331946509e-02	1.403047834e-13
7.300000000e-03	2.776765718e-01	-3.340199679e-02	9.137884154e-14
7.400000000e-03	2.776898748e-01	-3.348564327e-02	1.167751978e-13
7.500000000e-03	2.777033582e-01	-3.357040357e-02	9.295371695e-14
7.600000000e-03	2.777170220e-01	-3.365627672e-02	5.329070518e-15
7.700000000e-03	2.777308662e-01	-3.374326173e-02	4.763319993e-13
7.800000000e-03	2.777448908e-01	-3.383135760e-02	1.054503832e-13
7.900000000e-03	2.777590956e-01	-3.392056333e-02	2.712320067e-13
8.000000000e-03	2.777734808e-01	-3.401087788e-02	1.092170580e-13
8.100000000e-03	2.777880463e-01	-3.410230023e-02	2.903732236e-13
8.200000000e-03	2.778027920e-01	-3.419482933e-02	1.158936710e-13
8.300000000e-03	2.778177180e-01	-3.428846411e-02	5.816212493e-14
8.400000000e-03	2.778328242e-01	-3.438320350e-02	2.208690978e-13
8.500000000e-03	2.778481105e-01	-3.447904642e-02	5.266203392e-13
8.600000000e-03	2.778635770e-01	-3.457599177e-02	1.445849715e-13
8.700000000e-03	2.778792237e-01	-3.467403844e-02	6.355287432e-14
8.800000000e-03	2.778950504e-01	-3.477318530e-02	2.106031918e-14
8.900000000e-03	2.779110572e-01	-3.487343124e-02	2.131924246e-13
9.000000000e-03	2.779272441e-01	-3.497477509e-02	2.225879494e-13
9.100000000e-03	2.779436110e-01	-3.507721570e-02	2.235992479e-13
9.200000000e-03	2.779601579e-01	-3.518075190e-02	1.141792999e-13
9.300000000e-03	2.779768847e-01	-3.528538251e-02	1.065814104e-14
9.400000000e-03	2.779937915e-01	-3.539110633e-02	2.214188898e-13
9.500000000e-03	2.780108782e-01	-3.549792216e-02	1.693511945e-13
9.600000000e-03	2.780281448e-01	-3.560582878e-02	1.407279397e-13
9.700000000e-03	2.780455912e-01	-3.571482495e-02	2.700427576e-13
9.800000000e-03	2.780632175e-01	-3.582490944e-02	1.038836580e-13
9.900000000e-03	2.780810235e-01	-3.593608098e-02	4.244944667e-14
1.000000000e-02	2.780990093e-01	-3.604833832e-02	1.505848821e-13
1.010000000e-02	2.781171748e-01	-3.616168018e-02	1.413132059e-13
1.020000000e-02	2.781355200e-01	-3.627610526e-02	2.501133139e-13
1.030000000e-02	2.781540449e-01	-3.639161226e-02	3.980030467e-13
1.040000000e-02	2.781727495e-01	-3.650819987e-02	3.694864927e-13
1.050000000e-02	2.781916336e-01	-3.662586677e-02	1.159685213e-13
1.060000000e-02	2.782106973e-01	-3.674461162e-02	1.028457303e-13
1.070000000e-02	2.782299406e-01	-3.686443306e-02	1.335409557e-13
1.080000000e-02	2.782493633e-01	-3.698532974e-02	4.707345624e-14
1.090000000e-02	2.782689656e-01	-3.710730028e-02	9.374385571e-14
1.100000000e-02	2.782887473e-01	-3.723034331e-02	1.419419160e-13
1.110000000e-02	2.783087084e-01	-3.735445743e-02	2.352583285e-13
1.120000000e-02	2.783288488e-01	-3.747964122e-02	1.279254450e-13
1.130000000e-02	2.783491686e-01	-3.760589327e-02	9.947994801e-14
1.140000000e-02	2.783696677e-01	-3.773321216e-02	1.835437413e-13
1.150000000e-02	2.783903461e-01	-3.786159644e-02	1.949870257e-13
1.160000000e-02	2.784112037e-01	-3.799104465e-02	1.333931925e-13
1.170000000e-02	2.784322406e-01	-3.812155534e-02	2.560238808e-13
1.180000000e-02	2.784534566e-01	-3.825312703e-02	3.051316246e-13
1.190000000e-02	2.784748517e-01	-3.838575822e-02	1.872182356e-13
1.200000000e-02	2.784964259e-01	-3.851944744e-02	2.248341700e-13
1.210000000e-02	2.785181792e-01	-3.865419315e-02	1.171857100e-13
1.220000000e-02	2.785401115e-01	-3.878999385e-02	1.333125926e-13
1.230000000e-02	2.785622227e-01	-3.892684801e-02	1.021212082e-13
1.240000000e-02	2.785845130e-01	-3.906475407e-02	1.327522227e-13
1.250000000e-02	2.786069821e-01	-3.920371049e-02	9.592738118e-14
1.260000000e-02	2.786296301e-01	-3.934371570e-02	4.573163754e-13
1.270000000e-02	2.786524569e-01	-3.948476813e-02	1.311146600e-13
1.280000000e-02	2.786754626e-01	-3.962686619e-02	2.555057148e-13
1.290000000e-02	2.786986470e-01	-3.977000827e-02	2.710301588e-13
1.300000000e-02	2.787220101e-01	-3.991419278e-02	3.679171229e-13
1.310000000e-02	2.787455519e-01	-4.005941809e-02	8.942086642e-14
1.320000000e-02	2.787692723e-01	-4.020568258e-02	3.438260151e-13
1.330000000e-02	2.787931713e-01	-4.035298459e-02	1.193410742e-13
1.340000000e-02	2.788172489e-01	-4.050132248e-02	1.471296439e-13
1.350000000e-02	2.788415050e-01	-4.065069459e-02	2.022571629e-13
1.360000000e-02	2.788659395e-01	-4.080109924e-02	2.309263891e-14
1.370000000e-02	2.788905525e-01	-4.095253475e-02	2.202722771e-13
1.380000000e-02	2.789153439e-01	-4.110499942e-02	8.756152121e-13
1.390000000e-02	2.789403137e-01	-4.125849155e-02	1.074695888e-13
1.400000000e-02	2.789654617e-01	-4.141300943e-02	1.975513268e-13
1.410000000e-02	2.789907881e-01	-4.156855131e-02	1.487698853e-13
1.420000000e-02	2.790162926e-01	-4.172511548e-02	1.075246271e-13
1.430000000e-02	2.790419753e-01	-4.188270018e-02	1.337350158e-13
1.440000000e-02	2.790678362e-01	-4.204130365e-02	3.874015983e-13
1.450000000e-02	2.790938752e-01	-4.220092412e-02	2.152073906e-13
1.460000000e-02	2.791200922e-01	-4.236155983e-02	1.300089650e-13
1.470000000e-02	2.791464872e-01	-4.252320897e-02	9.917450704e-13
1.480000000e-02	2.791730602e-01	-4.268586974e-02	1.061995497e-13
1.490000000e-02	2.791998111e-01	-4.284954035e-02	7.908778741e-14
1.500000000e-02	2.792267399e-01	-4.301421897e-02	1.538940522e-13
1.510000000e-02	2.792538465e-01	-4.317990377e-02	6.679816236e-14
1.520000000e-02	2.792811309e-01	-4.334659291e-02	3.337471495e-14
1.530000000e-02	2.793085931e-01	-4.351428454e-02	1.333931925e-13
1.540000000e-02	2.793362329e-01	-4.368297681e-02	1.280949134e-13
1.550000000e-02	2.793640504e-01	-4.385266783e-02	1.377446472e-12
1.560000000e-02	2.793920455e-01	-4.402335574e-02	1.744903307e-13
1.570000000e-02	2.794202181e-01	-4.419503864e-02	2.053215137e-13
1.580000000e-02	2.794485682e-01	-4.436771464e-02	2.873312098e-13
1.590000000e-02	2.794770958e-01	-4.454138182e-02	2.134309560e-13
1.600000000e-02	2.795058008e-01	-4.471603827e-02	5.775379747e-14
1.610000000e-02	2.795346832e-01	-4.489168206e-02	7.464002229e-14
1.620000000e-02	2.795637428e-01	-4.506831124e-02	4.568942077e-14
1.630000000e-02	2.795929798e-01	-4.524592388e-02	1.010222428e-13
1.640000000e-02	2.796223939e-01	-4.542451801e-02	1.052401950e-12
1.650000000e-02	2.796519852e-01	-4.560409168e-02	4.033396090e-14
1.660000000e-02	2.796817537e-01	-4.578464289e-02	5.521191677e-14
1.670000000e-02	2.797116992e-01	-4.596616966e-02	1.361327205e-13
1.680000000e-02	2.797418217e-01	-4.614867001e-02	3.606704358e-14
1.690000000e-02	2.797721212e-01	-4.633214192e-02	3.008303707e-13
1.700000000e-02	2.798025976e-01	-4.651658339e-02	4.786490660e-14
1.710000000e-02	2.798332509e-01	-4.670199238e-02	7.356482193e-14
1.720000000e-02	2.798640810e-01	-4.688836687e-02	1.598721155e-13
1.730000000e-02	2.798950878e-01	-4.707570481e-02	1.302930799e-13
1.740000000e-02	2.799262714e-01	-4.726400416e-02	1.372120679e-13
1.750000000e-02	2.799576316e-01	-4.745326285e-02	4.033396090e-14
1.760000000e-02	2.799891685e-01	-4.764347881e-02	1.687538997e-14
1.770000000e-02	2.800208819e-01	-4.783464997e-02	9.917517321e-14
1.780000000e-02	2.800527718e-01	-4.802677424e-02	1.853634958e-13
1.790000000e-02	2.800848381e-01	-4.821984952e-02	6.455487031e-13
1.800000000e-02	2.801170809e-01	-4.841387371e-02	4.082723469e-14
1.810000000e-02	2.801494999e-01	-4.860884469e-02	5.031771796e-13
1.820000000e-02	2.801820953e-01	-4.880476035e-02	7.324106878e-14
1.830000000e-02	2.802148669e-01	-4.900161855e-02	2.193966999e-13
1.840000000e-02	2.802478147e-01	-4.919941715e-02	1.610673056e-13
1.850000000e-02	2.802809386e-01	-4.939815400e-02	1.965264102e-13
1.860000000e-02	2.803142386e-01	-4.959782695e-02	1.245232796e-13
1.870000000e-02	2.803477146e-01	-4.979843383e-02	2.754960664e-13
1.880000000e-02	2.803813666e-01	-4.999997246e-02	3.359830577e-13
1.890000000e-02	2.804151945e-01	-5.020244067e-02	1.171857100e-13
1.900000000e-02	2.804491982e-01	-5.040583626e-02	1.745270595e-13
1.910000000e-02	2.804833777e-01	-5.061015703e-02	2.217032821e-13
1.920000000e-02	2.805177329e-01	-5.081540077e-02	1.680348130e-13
1.930000000e-02	2.805522639e-01	-5.102156527e-02	9.177187063e-14
1.940000000e-02	2.805869704e-01	-5.122864831e-02	1.616484724e-13
1.950000000e-02	2.806218525e-01	-5.143664765e-02	5.613294639e-14
1.960000000e-02	2.806569101e-01	-5.164556105e-02	7.254982546e-14
1.970000000e-02	2.806921432e-01	-5.185538626e-02	1.710498819e-13
1.980000000e-02	2.807275516e-01	-5.206612102e-02	2.324216304e-13
1.990000000e-02	2.807631354e-01	-5.227776307e-02	1.808970019e-13
2.000000000e-02	2.807988945e-01	-5.249031015e-02	1.998243540e-13
2.010000000e-02	2.808348288e-01	-5.270375995e-02	5.687116766e-14
2.020000000e-02	2.808709382e-01	-5.291811021e-02	1.878497358e-13
2.030000000e-02	2.809072227e-01	-5.313335862e-02	2.309690861e-14
2.040000000e-02	2.809436823e-01	-5.334950287e-02	1.202161877e-13
2.050000000e-02	2.809803168e-01	-5.356654066e-02	6.355287432e-14
2.060000000e-02	2.810171263e-01	-5.378446966e-02	2.009448469e-13
2.070000000e-02	2.810541106e-01	-5.400328756e-02	1.755113372e-13
2.080000000e-02	2.810912697e-01	-5.422299201e-02	3.153033390e-14
2.090000000e-02	2.811286035e-01	-5.444358067e-02	1.925217640e-13
2.100000000e-02	2.811661120e-01	-5.466505119e-02	9.529724002e-14
2.110000000e-02	2.812037951e-01	-5.488740121e-02	5.670899231e-13
2.120000000e-02	2.812416528e-01	-5.511062838e-02	7.447072834e-14
2.130000000e-02	2.812796849e-01	-5.533473031e-02	1.326221699e-13
2.140000000e-02	2.813178915e-01	-5.555970463e-02	1.384995992e-13
2.150000000e-02	2.813562724e-01	-5.578554896e-02	1.001241449e-13
2.160000000e-02	2.813948276e-01	-5.601226090e-02	1.921834217e-13
2.170000000e-02	2.814335571e-01	-5.623983804e-02	8.250144911e-14
2.180000000e-02	2.814724607e-01	-5.646827798e-02	1.665257560e-13
2.190000000e-02	2.815115384e-01	-5.669757831e-02	5.945490490e-14
2.200000000e-02	2.815507902e-01	-5.692773661e-02	1.663171899e-13
2.210000000e-02	2.815902160e-01	-5.715875044e-02	4.223398122e-13
2.220000000e-02	2.816298156e-01	-5.739061737e-02	3.019806627e-14
2.230000000e-02	2.816695891e-01	-5.762333495e-02	1.731219003e-13
2.240000000e-02	2.817095364e-01	-5.785690075e-02	8.474544047e-14
2.250000000e-02	2.817496575e-01	-5.809131230e-02	3.291755663e-13
2.260000000e-02	2.817899521e-01	-5.832656713e-02	2.389464077e-13
2.270000000e-02	2.818304204e-01	-5.856266279e-02	7.621093585e-13
2.280000000e-02	2.818710622e-01	-5.879959679e-02	4.399902232e-14
2.290000000e-02	2.819118774e-01	-5.903736666e-02	1.490347774e-13
2.300000000e-02	2.819528660e-01	-5.927596990e-02	1.763123650e-14
2.310000000e-02	2.819940279e-01	-5.951540401e-02	4.285187625e-13
2.320000000e-02	2.820353631e-01	-5.975566651e-02	1.598381885e-13
2.330000000e-02	2.820768715e-01	-5.999675487e-02	6.528111385e-14
2.340000000e-02	2.821185530e-01	-6.023866658e-02	2.574944931e-13
2.350000000e-02	2.821604076e-01	-6.048139913e-02	3.950397557e-14
2.360000000e-02	2.822024351e-01	-6.072494998e-02	8.987733680e-14
2.370000000e-02	2.822446355e-01	-6.096931661e-02	2.909377513e-14
2.380000000e-02	2.822870088e-01	-6.121449648e-02	1.803352179e-14
2.390000000e-02	2.823295549e-01	-6.146048703e-02	1.611537576e-13
2.400000000e-02	2.823722737e-01	-6.170728573e-02	9.628546398e-14
2.410000000e-02	2.824151651e-01	-6.195489000e-02	7.701203478e-14
2.420000000e-02	2.824582291e-01	-6.220329730e-02	6.948825513e-14
2.430000000e-02	2.825014656e-01	-6.245250505e-02	3.237361605e-14
2.440000000e-02	2.825448745e-01	-6.270251067e-02	9.083144324e-14
2.450000000e-02	2.825884557e-01	-6.295331159e-02	3.094426393e-13
2.460000000e-02	2.826322093e-01	-6.320490523e-02	9.973362752e-14
2.470000000e-02	2.826761351e-01	-6.345728898e-02	1.182514174e-13
2.480000000e-02	2.827202330e-01	-6.371046025e-02	3.497078462e-13
2.490000000e-02	2.827645030e-01	-6.396441645e-02	1.750505933e-13
2.500000000e-02	2.828089450e-01	-6.421915496e-02	4.730383982e-13
2.510000000e-02	2.828535589e-01	-6.447467317e-02	1.595116577e-13
2.520000000e-02	2.828983447e-01	-6.473096845e-02	1.329370498e-13
2.530000000e-02	2.829433023e-01	-6.498803820e-02	1.237075440e-13
2.540000000e-02	2.829884315e-01	-6.524587977e-02	2.028171757e-13
2.550000000e-02	2.830337325e-01	-6.550449054e-02	7.611564690e-14
2.560000000e-02	2.830792050e-01	-6.576386786e-02	8.326287798e-14
2.570000000e-02	2.831248489e-01	-6.602400909e-02	4.286323656e-14
2.580000000e-02	2.831706644e-01	-6.628491157e-02	1.299482734e-13
2.590000000e-02	2.832166511e-01	-6.654657267e-02	2.279043153e-13
2.600000000e-02	2.832628091e-01	-6.680898970e-02	6.500258628e-14
2.610000000e-02	2.833091384e-01	-6.707216002e-02	6.679816236e-14
2.620000000e-02	2.833556387e-01	-6.733608094e-02	9.953172636e-14
2.630000000e-02	2.834023101e-01	-6.760074981e-02	1.075246271e-13
2.640000000e-02	2.834491525e-01	-6.786616393e-02	2.363765723e-13
2.650000000e-02	2.834961657e-01	-6.813232062e-02	1.059152765e-13
2.660000000e-02	2.835433498e-01	-6.839921720e-02	4.765017209e-13
2.670000000e-02	2.835907047e-01	-6.866685097e-02	9.106319693e-14
2.680000000e-02	2.836382302e-01	-6.893521923e-02	1.046169465e-13
2.690000000e-02	2.836859263e-01	-6.920431929e-02	3.322536012e-13
2.700000000e-02	2.837337929e-01	-6.947414843e-02	3.861196708e-13
2.710000000e-02	2.837818300e-01	-6.974470395e-02	1.875639575e-13
2.720000000e-02	2.838300374e-01	-7.001598313e-02	2.428385419e-13
2.730000000e-02	2.838784152e-01	-7.028798325e-02	6.633598831e-14
2.740000000e-02	2.839269631e-01	-7.056070159e-02	1.073272759e-13
2.750000000e-02	2.839756812e-01	-7.083413541e-02	1.001723911e-13
2.760000000e-02	2.840245693e-01	-7.110828200e-02	1.512154735e-13
2.770000000e-02	2.840736274e-01	-7.138313860e-02	1.505881562e-13
2.780000000e-02	2.841228554e-01	-7.165870249e-02	1.994079236e-13
2.790000000e-02	2.841722532e-01	-7.193497091e-02	7.394085344e-14
2.800000000e-02	2.842218207e-01	-7.221194112e-02	2.130296680e-13
2.810000000e-02	2.842715580e-01	-7.248961037e-02	3.305408226e-14
2.820000000e-02	2.843214648e-01	-7.276797590e-02	1.332091833e-13
2.830000000e-02	2.843715411e-01	-7.304703495e-02	2.419699436e-13
2.840000000e-02	2.844217868e-01	-7.332678476e-02	2.964773623e-14
2.850000000e-02	2.844722019e-01	-7.360722257e-02	1.052641320e-13
2.860000000e-02	2.845227862e-01	-7.388834559e-02	2.452406015e-13
2.870000000e-02	2.845735397e-01	-7.417015106e-02	7.248386210e-13
2.880000000e-02	2.846244624e-01	-7.445263621e-02	9.126330398e-14
2.890000000e-02	2.846755540e-01	-7.473579824e-02	2.266247763e-13
2.900000000e-02	2.847268146e-01	-7.501963437e-02	2.097964335e-13
2.910000000e-02	2.847782441e-01	-7.530414182e-02	2.614687186e-13
2.920000000e-02	2.848298423e-01	-7.558931780e-02	2.926679297e-13
2.930000000e-02	2.848816092e-01	-7.587515951e-02	1.622915192e-13
2.940000000e-02	2.849335447e-01	-7.616166416e-02	7.105566134e-14
2.950000000e-02	2.849856488e-01	-7.644882893e-02	1.269211701e-13
2.960000000e-02	2.850379213e-01	-7.673665104e-02	1.033507323e-13
2.970000000e-02	2.850903622e-01	-7.702512767e-02	6.355287432e-14
2.980000000e-02	2.851429714e-01	-7.731425601e-02	4.418687638e-14
2.990000000e-02	2.851957488e-01	-7.760403325e-02	5.844625681e-14
3.000000000e-02	2.852486942e-01	-7.789445657e-02	1.095965025e-13
3.010000000e-02	2.853018078e-01	-7.818552316e-02	2.915475257e-13
3.020000000e-02	2.853550892e-01	-7.847723020e-02	8.149037001e-14
3.030000000e-02	2.854085386e-01	-7.876957485e-02	8.656095016e-14
