# Ep [eV]     Omega/c [1/micrones]    Im(epsi1)     Eq(det).Opt det SIN kz nano,R = 0.35 $\mu$m, $\mu_c$ = 0.3 eV, modo = 4, $\epsilon_\infty$ = 3.9, $\gamma_{DL}$ = 0.01 eV, solve_det_sinkz_vs_Ep.py
0.000000000e+00	3.196839522e-01	-3.290969197e-02	3.440129547e-13
1.000000000e-04	3.196840312e-01	-3.291006850e-02	1.649576648e-12
2.000000000e-04	3.196842682e-01	-3.291119809e-02	3.314512409e-13
3.000000000e-04	3.196846633e-01	-3.291308073e-02	2.018511256e-13
4.000000000e-04	3.196852163e-01	-3.291571639e-02	2.265951866e-13
5.000000000e-04	3.196859273e-01	-3.291910507e-02	1.448466245e-13
6.000000000e-04	3.196867963e-01	-3.292324672e-02	2.568356457e-13
7.000000000e-04	3.196878233e-01	-3.292814131e-02	1.573254581e-13
8.000000000e-04	3.196890084e-01	-3.293378880e-02	3.067753347e-14
9.000000000e-04	3.196903514e-01	-3.294018914e-02	6.414351741e-13
1.000000000e-03	3.196918524e-01	-3.294734227e-02	2.930988785e-14
1.100000000e-03	3.196935114e-01	-3.295524813e-02	1.428200841e-13
1.200000000e-03	3.196953284e-01	-3.296390664e-02	7.406044743e-14
1.300000000e-03	3.196973034e-01	-3.297331774e-02	4.236760020e-13
1.400000000e-03	3.196994364e-01	-3.298348133e-02	4.212063836e-14
1.500000000e-03	3.197017274e-01	-3.299439734e-02	2.650107709e-13
1.600000000e-03	3.197041763e-01	-3.300606566e-02	8.556067555e-14
1.700000000e-03	3.197067833e-01	-3.301848618e-02	1.364908024e-13
1.800000000e-03	3.197095482e-01	-3.303165881e-02	2.710225184e-13
1.900000000e-03	3.197124710e-01	-3.304558342e-02	1.935821491e-13
2.000000000e-03	3.197155519e-01	-3.306025988e-02	1.792272749e-13
2.100000000e-03	3.197187907e-01	-3.307568808e-02	1.642049504e-13
2.200000000e-03	3.197221875e-01	-3.309186788e-02	2.386672752e-13
2.300000000e-03	3.197257422e-01	-3.310879912e-02	2.759148812e-13
2.400000000e-03	3.197294548e-01	-3.312648167e-02	1.385558335e-13
2.500000000e-03	3.197333255e-01	-3.314491536e-02	1.132975933e-13
2.600000000e-03	3.197373540e-01	-3.316410004e-02	1.137735408e-13
2.700000000e-03	3.197415405e-01	-3.318403552e-02	1.786630003e-13
2.800000000e-03	3.197458849e-01	-3.320472165e-02	3.305408226e-14
2.900000000e-03	3.197503872e-01	-3.322615823e-02	6.565915661e-14
3.000000000e-03	3.197550475e-01	-3.324834508e-02	4.480681872e-14
3.100000000e-03	3.197598657e-01	-3.327128199e-02	1.620384102e-13
3.200000000e-03	3.197648417e-01	-3.329496878e-02	2.842226454e-13
3.300000000e-03	3.197699757e-01	-3.331940522e-02	8.767810172e-14
3.400000000e-03	3.197752675e-01	-3.334459110e-02	1.136903071e-13
3.500000000e-03	3.197807173e-01	-3.337052621e-02	8.622652742e-14
3.600000000e-03	3.197863249e-01	-3.339721030e-02	1.711213511e-13
3.700000000e-03	3.197920904e-01	-3.342464316e-02	1.318937477e-13
3.800000000e-03	3.197980137e-01	-3.345282452e-02	4.212063836e-14
3.900000000e-03	3.198040949e-01	-3.348175416e-02	5.718241384e-14
4.000000000e-03	3.198103339e-01	-3.351143180e-02	1.015013469e-13
4.100000000e-03	3.198167308e-01	-3.354185719e-02	3.483516834e-13
4.200000000e-03	3.198232855e-01	-3.357303007e-02	8.526512829e-14
4.300000000e-03	3.198299980e-01	-3.360495015e-02	4.692272734e-13
4.400000000e-03	3.198368684e-01	-3.363761715e-02	7.647216194e-13
4.500000000e-03	3.198438965e-01	-3.367103079e-02	1.498996799e-13
4.600000000e-03	3.198510824e-01	-3.370519078e-02	2.907166848e-13
4.700000000e-03	3.198584261e-01	-3.374009680e-02	1.271057486e-13
4.800000000e-03	3.198659276e-01	-3.377574856e-02	7.371880884e-14
4.900000000e-03	3.198735868e-01	-3.381214574e-02	3.480254350e-13
5.000000000e-03	3.198814038e-01	-3.384928802e-02	8.824757706e-14
5.100000000e-03	3.198893786e-01	-3.388717507e-02	3.102273851e-14
5.200000000e-03	3.198975110e-01	-3.392580656e-02	3.138928592e-14
5.300000000e-03	3.199058012e-01	-3.396518214e-02	3.351623381e-14
5.400000000e-03	3.199142491e-01	-3.400530148e-02	2.551036441e-13
5.500000000e-03	3.199228547e-01	-3.404616422e-02	4.156257463e-13
5.600000000e-03	3.199316180e-01	-3.408777000e-02	3.202779263e-13
5.700000000e-03	3.199405389e-01	-3.413011845e-02	7.652779469e-14
5.800000000e-03	3.199496175e-01	-3.417320920e-02	1.865174681e-14
5.900000000e-03	3.199588538e-01	-3.421704188e-02	3.102273851e-14
6.000000000e-03	3.199682477e-01	-3.426161609e-02	2.913225217e-13
6.100000000e-03	3.199777992e-01	-3.430693145e-02	2.522567441e-13
6.200000000e-03	3.199875083e-01	-3.435298755e-02	5.329070518e-15
6.300000000e-03	3.199973751e-01	-3.439978400e-02	8.987733680e-14
6.400000000e-03	3.200073994e-01	-3.444732037e-02	1.120232087e-13
6.500000000e-03	3.200175813e-01	-3.449559626e-02	2.860100006e-13
6.600000000e-03	3.200279207e-01	-3.454461124e-02	1.291528700e-13
6.700000000e-03	3.200384177e-01	-3.459436488e-02	2.335351955e-13
6.800000000e-03	3.200490722e-01	-3.464485674e-02	3.102273851e-14
6.900000000e-03	3.200598843e-01	-3.469608637e-02	1.464821376e-13
7.000000000e-03	3.200708538e-01	-3.474805334e-02	4.163539434e-13
7.100000000e-03	3.200819809e-01	-3.480075718e-02	1.132975933e-13
7.200000000e-03	3.200932654e-01	-3.485419743e-02	1.737586643e-13
7.300000000e-03	3.201047074e-01	-3.490837363e-02	6.434851118e-14
7.400000000e-03	3.201163068e-01	-3.496328529e-02	7.324106878e-14
7.500000000e-03	3.201280636e-01	-3.501893194e-02	5.753312401e-14
7.600000000e-03	3.201399779e-01	-3.507531308e-02	1.415774231e-13
7.700000000e-03	3.201520495e-01	-3.513242823e-02	1.115610080e-13
7.800000000e-03	3.201642785e-01	-3.519027689e-02	2.909377513e-14
7.900000000e-03	3.201766649e-01	-3.524885854e-02	3.273320082e-13
8.000000000e-03	3.201892087e-01	-3.530817267e-02	3.382782330e-13
8.100000000e-03	3.202019097e-01	-3.536821877e-02	5.168565041e-13
8.200000000e-03	3.202147681e-01	-3.542899631e-02	3.573800846e-13
8.300000000e-03	3.202277838e-01	-3.549050476e-02	5.881458212e-14
8.400000000e-03	3.202409568e-01	-3.555274358e-02	1.184478417e-13
8.500000000e-03	3.202542870e-01	-3.561571223e-02	2.012307332e-13
8.600000000e-03	3.202677744e-01	-3.567941015e-02	2.767940750e-13
8.700000000e-03	3.202814191e-01	-3.574383678e-02	2.307076570e-13
8.800000000e-03	3.202952210e-01	-3.580899158e-02	1.431814136e-13
8.900000000e-03	3.203091801e-01	-3.587487396e-02	5.412389055e-13
9.000000000e-03	3.203232964e-01	-3.594148335e-02	2.379588951e-13
9.100000000e-03	3.203375698e-01	-3.600881916e-02	1.132975933e-13
9.200000000e-03	3.203520003e-01	-3.607688082e-02	4.304651800e-13
9.300000000e-03	3.203665880e-01	-3.614566773e-02	2.977716671e-14
9.400000000e-03	3.203813327e-01	-3.621517929e-02	1.353561765e-13
9.500000000e-03	3.203962345e-01	-3.628541488e-02	1.478650359e-13
9.600000000e-03	3.204112934e-01	-3.635637391e-02	1.514624177e-13
9.700000000e-03	3.204265093e-01	-3.642805575e-02	2.450100984e-13
9.800000000e-03	3.204418823e-01	-3.650045977e-02	2.843558383e-14
9.900000000e-03	3.204574122e-01	-3.657358534e-02	4.440892099e-14
1.000000000e-02	3.204730991e-01	-3.664743184e-02	6.135506694e-14
1.010000000e-02	3.204889429e-01	-3.672199860e-02	1.415857808e-13
1.020000000e-02	3.205049437e-01	-3.679728500e-02	1.176291642e-13
1.030000000e-02	3.205211014e-01	-3.687329036e-02	1.385814516e-13
1.040000000e-02	3.205374160e-01	-3.695001404e-02	1.711213511e-13
1.050000000e-02	3.205538874e-01	-3.702745536e-02	3.615235312e-13
1.060000000e-02	3.205705157e-01	-3.710561365e-02	1.240909540e-13
1.070000000e-02	3.205873008e-01	-3.718448822e-02	1.440301192e-13
1.080000000e-02	3.206042427e-01	-3.726407841e-02	6.845614643e-13
1.090000000e-02	3.206213414e-01	-3.734438350e-02	4.832213033e-14
1.100000000e-02	3.206385969e-01	-3.742540282e-02	1.704585396e-13
1.110000000e-02	3.206560091e-01	-3.750713564e-02	3.099030024e-13
1.120000000e-02	3.206735780e-01	-3.758958128e-02	1.054503832e-13
1.130000000e-02	3.206913035e-01	-3.767273900e-02	1.953992523e-14
1.140000000e-02	3.207091858e-01	-3.775660809e-02	1.993401653e-13
1.150000000e-02	3.207272247e-01	-3.784118782e-02	1.486233300e-13
1.160000000e-02	3.207454202e-01	-3.792647746e-02	2.161633595e-13
1.170000000e-02	3.207637722e-01	-3.801247627e-02	2.913712591e-13
1.180000000e-02	3.207822809e-01	-3.809918351e-02	1.389765103e-13
1.190000000e-02	3.208009461e-01	-3.818659842e-02	4.082723469e-14
1.200000000e-02	3.208197678e-01	-3.827472025e-02	3.126198789e-13
1.210000000e-02	3.208387460e-01	-3.836354823e-02	1.596746206e-13
1.220000000e-02	3.208578807e-01	-3.845308161e-02	1.148054354e-13
1.230000000e-02	3.208771718e-01	-3.854331960e-02	6.169484474e-14
1.240000000e-02	3.208966193e-01	-3.863426142e-02	3.433944044e-13
1.250000000e-02	3.209162233e-01	-3.872590630e-02	1.294944642e-13
1.260000000e-02	3.209359836e-01	-3.881825343e-02	1.654993640e-13
1.270000000e-02	3.209559002e-01	-3.891130203e-02	4.240482273e-13
1.280000000e-02	3.209759731e-01	-3.900505129e-02	9.697021187e-14
1.290000000e-02	3.209962024e-01	-3.909950039e-02	3.068331871e-13
1.300000000e-02	3.210165878e-01	-3.919464854e-02	3.552713679e-14
1.310000000e-02	3.210371296e-01	-3.929049490e-02	4.251258375e-13
1.320000000e-02	3.210578275e-01	-3.938703865e-02	2.415845302e-13
1.330000000e-02	3.210786816e-01	-3.948427896e-02	1.424439937e-13
1.340000000e-02	3.210996918e-01	-3.958221500e-02	1.034718329e-13
1.350000000e-02	3.211208582e-01	-3.968084592e-02	1.629994947e-13
1.360000000e-02	3.211421807e-01	-3.978017087e-02	7.852722901e-14
1.370000000e-02	3.211636592e-01	-3.988018900e-02	4.195362263e-13
1.380000000e-02	3.211852938e-01	-3.998089945e-02	1.326719766e-13
1.390000000e-02	3.212070844e-01	-4.008230136e-02	7.460698725e-14
1.400000000e-02	3.212290309e-01	-4.018439385e-02	1.257078424e-13
1.410000000e-02	3.212511335e-01	-4.028717605e-02	1.429967256e-13
1.420000000e-02	3.212733919e-01	-4.039064708e-02	9.148237723e-14
1.430000000e-02	3.212958062e-01	-4.049480605e-02	1.940075266e-13
1.440000000e-02	3.213183764e-01	-4.059965206e-02	3.198429024e-13
1.450000000e-02	3.213411024e-01	-4.070518423e-02	1.541568941e-12
1.460000000e-02	3.213639843e-01	-4.081140164e-02	1.796229691e-13
1.470000000e-02	3.213870219e-01	-4.091830339e-02	5.929547246e-14
1.480000000e-02	3.214102152e-01	-4.102588856e-02	1.065814104e-13
1.490000000e-02	3.214335643e-01	-4.113415623e-02	1.589243833e-13
1.500000000e-02	3.214570690e-01	-4.124310548e-02	5.098886803e-13
1.510000000e-02	3.214807294e-01	-4.135273537e-02	7.671311722e-14
1.520000000e-02	3.215045455e-01	-4.146304498e-02	3.177643716e-14
1.530000000e-02	3.215285171e-01	-4.157403335e-02	1.364705723e-13
1.540000000e-02	3.215526442e-01	-4.168569955e-02	2.630343052e-13
1.550000000e-02	3.215769269e-01	-4.179804261e-02	1.735019658e-13
1.560000000e-02	3.216013651e-01	-4.191106159e-02	9.238763442e-14
1.570000000e-02	3.216259587e-01	-4.202475552e-02	9.410081647e-14
1.580000000e-02	3.216507078e-01	-4.213912343e-02	5.292298891e-13
1.590000000e-02	3.216756123e-01	-4.225416434e-02	1.304383073e-13
1.600000000e-02	3.217006721e-01	-4.236987729e-02	3.005404692e-14
1.610000000e-02	3.217258873e-01	-4.248626128e-02	6.240678079e-14
1.620000000e-02	3.217512577e-01	-4.260331532e-02	7.324106878e-14
1.630000000e-02	3.217767835e-01	-4.272103843e-02	5.272519161e-14
1.640000000e-02	3.218024644e-01	-4.283942960e-02	1.422860720e-13
1.650000000e-02	3.218283006e-01	-4.295848783e-02	3.883534114e-13
1.660000000e-02	3.218542919e-01	-4.307821210e-02	5.950795412e-14
1.670000000e-02	3.218804383e-01	-4.319860141e-02	2.569293082e-13
1.680000000e-02	3.219067399e-01	-4.331965473e-02	1.874056466e-13
1.690000000e-02	3.219331965e-01	-4.344137103e-02	1.939404237e-13
1.700000000e-02	3.219598081e-01	-4.356374930e-02	1.163513730e-13
1.710000000e-02	3.219865747e-01	-4.368678848e-02	1.431070158e-13
1.720000000e-02	3.220134963e-01	-4.381048755e-02	2.977716671e-14
1.730000000e-02	3.220405728e-01	-4.393484545e-02	3.098724548e-13
1.740000000e-02	3.220678042e-01	-4.405986114e-02	3.414350078e-13
1.750000000e-02	3.220951904e-01	-4.418553356e-02	7.689963447e-13
1.760000000e-02	3.221227314e-01	-4.431186164e-02	5.651634989e-14
1.770000000e-02	3.221504273e-01	-4.443884433e-02	3.718700266e-14
1.780000000e-02	3.221782778e-01	-4.456648056e-02	1.735019658e-13
1.790000000e-02	3.222062831e-01	-4.469476924e-02	1.180976748e-13
1.800000000e-02	3.222344430e-01	-4.482370930e-02	4.412378853e-14
1.810000000e-02	3.222627576e-01	-4.495329965e-02	1.010222428e-13
1.820000000e-02	3.222912268e-01	-4.508353921e-02	3.308843111e-13
1.830000000e-02	3.223198505e-01	-4.521442688e-02	2.649467638e-13
1.840000000e-02	3.223486287e-01	-4.534596155e-02	3.032332699e-13
1.850000000e-02	3.223775614e-01	-4.547814213e-02	1.152067044e-13
1.860000000e-02	3.224066486e-01	-4.561096750e-02	9.503509091e-14
1.870000000e-02	3.224358902e-01	-4.574443655e-02	3.369651069e-13
1.880000000e-02	3.224652861e-01	-4.587854817e-02	2.891699430e-14
1.890000000e-02	3.224948364e-01	-4.601330122e-02	2.214754413e-13
1.900000000e-02	3.225245410e-01	-4.614869458e-02	8.833692362e-14
1.910000000e-02	3.225543998e-01	-4.628472712e-02	1.904267788e-13
1.920000000e-02	3.225844128e-01	-4.642139770e-02	2.564744950e-13
1.930000000e-02	3.226145800e-01	-4.655870518e-02	4.219221447e-13
1.940000000e-02	3.226449014e-01	-4.669664841e-02	1.278976924e-13
1.950000000e-02	3.226753768e-01	-4.683522623e-02	1.501520718e-13
1.960000000e-02	3.227060063e-01	-4.697443750e-02	1.399606873e-13
1.970000000e-02	3.227367898e-01	-4.711428105e-02	2.574675894e-13
1.980000000e-02	3.227677273e-01	-4.725475571e-02	3.991865514e-13
1.990000000e-02	3.227988188e-01	-4.739586032e-02	1.115610080e-13
2.000000000e-02	3.228300641e-01	-4.753759370e-02	8.881784197e-16
2.010000000e-02	3.228614633e-01	-4.767995468e-02	3.035439898e-14
2.020000000e-02	3.228930163e-01	-4.782294206e-02	1.776356839e-14
2.030000000e-02	3.229247230e-01	-4.796655466e-02	7.105427358e-14
2.040000000e-02	3.229565835e-01	-4.811079129e-02	2.883517440e-13
2.050000000e-02	3.229885977e-01	-4.825565076e-02	2.753353101e-14
2.060000000e-02	3.230207656e-01	-4.840113185e-02	2.064322313e-13
2.070000000e-02	3.230530870e-01	-4.854723337e-02	4.045114007e-13
2.080000000e-02	3.230855620e-01	-4.869395410e-02	4.212063836e-14
2.090000000e-02	3.231181906e-01	-4.884129283e-02	7.815970093e-14
2.100000000e-02	3.231509726e-01	-4.898924834e-02	1.728825092e-13
2.110000000e-02	3.231839081e-01	-4.913781941e-02	4.488817180e-13
2.120000000e-02	3.232169969e-01	-4.928700481e-02	1.084596414e-13
2.130000000e-02	3.232502391e-01	-4.943680331e-02	2.337850272e-13
2.140000000e-02	3.232836347e-01	-4.958721367e-02	3.489806613e-13
2.150000000e-02	3.233171835e-01	-4.973823466e-02	3.662053439e-14
2.160000000e-02	3.233508855e-01	-4.988986502e-02	6.355287432e-14
2.170000000e-02	3.233847407e-01	-5.004210351e-02	2.131628207e-14
2.180000000e-02	3.234187490e-01	-5.019494888e-02	2.843558383e-14
2.190000000e-02	3.234529104e-01	-5.034839987e-02	3.750017190e-13
2.200000000e-02	3.234872249e-01	-5.050245521e-02	3.813172459e-13
2.210000000e-02	3.235216924e-01	-5.065711366e-02	1.180475662e-13
2.220000000e-02	3.235563128e-01	-5.081237392e-02	3.377881604e-13
2.230000000e-02	3.235910862e-01	-5.096823474e-02	4.412378853e-14
2.240000000e-02	3.236260124e-01	-5.112469482e-02	1.017381145e-13
2.250000000e-02	3.236610915e-01	-5.128175291e-02	1.310928481e-13
2.260000000e-02	3.236963233e-01	-5.143940769e-02	1.563597684e-13
2.270000000e-02	3.237317079e-01	-5.159765790e-02	2.864289338e-14
2.280000000e-02	3.237672452e-01	-5.175650222e-02	3.672733216e-13
2.290000000e-02	3.238029351e-01	-5.191593938e-02	1.998085623e-13
2.300000000e-02	3.238387776e-01	-5.207596806e-02	2.581911904e-13
2.310000000e-02	3.238747726e-01	-5.223658695e-02	3.586756547e-13
2.320000000e-02	3.239109202e-01	-5.239779476e-02	1.012523398e-13
2.330000000e-02	3.239472202e-01	-5.255959017e-02	1.284178228e-13
2.340000000e-02	3.239836726e-01	-5.272197185e-02	4.931246253e-13
2.350000000e-02	3.240202774e-01	-5.288493849e-02	1.680535905e-13
2.360000000e-02	3.240570345e-01	-5.304848877e-02	5.701662732e-14
2.370000000e-02	3.240939439e-01	-5.321262136e-02	8.675098291e-14
2.380000000e-02	3.241310055e-01	-5.337733492e-02	2.455118590e-13
2.390000000e-02	3.241682193e-01	-5.354262812e-02	1.375300619e-13
2.400000000e-02	3.242055852e-01	-5.370849962e-02	1.857822144e-13
2.410000000e-02	3.242431032e-01	-5.387494808e-02	1.024759307e-13
2.420000000e-02	3.242807732e-01	-5.404197214e-02	3.351623381e-14
2.430000000e-02	3.243185953e-01	-5.420957046e-02	3.127195368e-13
2.440000000e-02	3.243565692e-01	-5.437774169e-02	5.695433295e-14
2.450000000e-02	3.243946950e-01	-5.454648447e-02	1.661843297e-13
2.460000000e-02	3.244329727e-01	-5.471579743e-02	2.056914605e-13
2.470000000e-02	3.244714022e-01	-5.488567921e-02	1.685293685e-13
2.480000000e-02	3.245099834e-01	-5.505612844e-02	2.842170943e-14
2.490000000e-02	3.245487163e-01	-5.522714375e-02	4.013161239e-13
2.500000000e-02	3.245876008e-01	-5.539872377e-02	1.854315753e-13
2.510000000e-02	3.246266369e-01	-5.557086711e-02	8.819392567e-14
2.520000000e-02	3.246658246e-01	-5.574357239e-02	3.375077995e-14
2.530000000e-02	3.247051638e-01	-5.591683823e-02	3.260957682e-14
2.540000000e-02	3.247446544e-01	-5.609066323e-02	8.592868015e-14
2.550000000e-02	3.247842964e-01	-5.626504601e-02	5.687116766e-14
2.560000000e-02	3.248240897e-01	-5.643998517e-02	5.881458212e-14
2.570000000e-02	3.248640343e-01	-5.661547931e-02	5.753312401e-14
2.580000000e-02	3.249041302e-01	-5.679152702e-02	1.055251654e-13
2.590000000e-02	3.249443772e-01	-5.696812691e-02	3.765918395e-13
2.600000000e-02	3.249847754e-01	-5.714527755e-02	1.318937477e-13
2.610000000e-02	3.250253247e-01	-5.732297754e-02	2.069131679e-13
2.620000000e-02	3.250660250e-01	-5.750122546e-02	9.168909786e-14
2.630000000e-02	3.251068763e-01	-5.768001989e-02	2.679650631e-13
2.640000000e-02	3.251478785e-01	-5.785935941e-02	6.039613254e-14
2.650000000e-02	3.251890316e-01	-5.803924260e-02	3.606704358e-14
2.660000000e-02	3.252303355e-01	-5.821966802e-02	1.302930799e-13
2.670000000e-02	3.252717902e-01	-5.840063425e-02	1.820765760e-13
2.680000000e-02	3.253133956e-01	-5.858213984e-02	1.294944642e-13
2.690000000e-02	3.253551517e-01	-5.876418336e-02	3.206114960e-13
2.700000000e-02	3.253970584e-01	-5.894676337e-02	1.371854752e-13
2.710000000e-02	3.254391157e-01	-5.912987843e-02	7.105427358e-14
2.720000000e-02	3.254813235e-01	-5.931352708e-02	7.406044743e-14
2.730000000e-02	3.255236817e-01	-5.949770789e-02	7.731234752e-14
2.740000000e-02	3.255661903e-01	-5.968241938e-02	1.435335898e-13
2.750000000e-02	3.256088493e-01	-5.986766011e-02	3.377706447e-13
2.760000000e-02	3.256516586e-01	-6.005342863e-02	1.464821376e-13
2.770000000e-02	3.256946181e-01	-6.023972345e-02	6.898122194e-14
2.780000000e-02	3.257377278e-01	-6.042654313e-02	1.107377206e-13
2.790000000e-02	3.257809876e-01	-6.061388619e-02	1.232265538e-13
2.800000000e-02	3.258243975e-01	-6.080175117e-02	2.876656200e-14
2.810000000e-02	3.258679574e-01	-6.099013658e-02	9.240897845e-14
2.820000000e-02	3.259116673e-01	-6.117904096e-02	1.323385845e-13
2.830000000e-02	3.259555271e-01	-6.136846282e-02	6.868508316e-13
2.840000000e-02	3.259995368e-01	-6.155840069e-02	2.100912787e-13
2.850000000e-02	3.260436963e-01	-6.174885307e-02	3.141804835e-13
2.860000000e-02	3.260880055e-01	-6.193981848e-02	3.284975644e-13
2.870000000e-02	3.261324644e-01	-6.213129543e-02	4.645716539e-13
2.880000000e-02	3.261770729e-01	-6.232328243e-02	8.689635542e-14
2.890000000e-02	3.262218310e-01	-6.251577798e-02	2.977716671e-14
2.900000000e-02	3.262667386e-01	-6.270878058e-02	3.729884097e-13
2.910000000e-02	3.263117957e-01	-6.290228873e-02	6.703246763e-14
2.920000000e-02	3.263570022e-01	-6.309630094e-02	1.122658928e-13
2.930000000e-02	3.264023580e-01	-6.329081569e-02	3.259808403e-13
2.940000000e-02	3.264478632e-01	-6.348583148e-02	1.678281223e-13
2.950000000e-02	3.264935176e-01	-6.368134679e-02	1.882791611e-13
2.960000000e-02	3.265393211e-01	-6.387736011e-02	3.712128928e-13
2.970000000e-02	3.265852738e-01	-6.407386993e-02	1.184478417e-13
2.980000000e-02	3.266313756e-01	-6.427087473e-02	2.039718710e-13
2.990000000e-02	3.266776263e-01	-6.446837298e-02	1.755652646e-13
3.000000000e-02	3.267240260e-01	-6.466636317e-02	1.727387152e-13
3.010000000e-02	3.267705746e-01	-6.486484377e-02	2.281374058e-13
3.020000000e-02	3.268172720e-01	-6.506381325e-02	7.866272904e-13
3.030000000e-02	3.268641183e-01	-6.526327008e-02	8.961363744e-14
