# Ep [eV]     Omega/c [1/micrones]    Im(epsi1)     Eq(det).Opt det SIN kz nano,R = 0.35 $\mu$m, $\mu_c$ = 0.3 eV, modo = 1, $\epsilon_\infty$ = 3.9, $\gamma_{DL}$ = 0.01 eV, solve_det_sinkz_vs_Ep.py
0.000000000e+00	1.602382940e-01	-3.222409924e-02	2.191742222e-13
1.000000000e-04	1.602384418e-01	-3.222692545e-02	1.212518578e-13
2.000000000e-04	1.602388850e-01	-3.223540401e-02	1.781138587e-13
3.000000000e-04	1.602396238e-01	-3.224953464e-02	7.507603591e-14
4.000000000e-04	1.602406580e-01	-3.226931691e-02	1.597363640e-13
5.000000000e-04	1.602419878e-01	-3.229475020e-02	8.309216484e-14
6.000000000e-04	1.602436130e-01	-3.232583371e-02	1.244783323e-13
7.000000000e-04	1.602455337e-01	-3.236256648e-02	6.646082869e-14
8.000000000e-04	1.602477499e-01	-3.240494735e-02	1.075246271e-13
9.000000000e-04	1.602502615e-01	-3.245297501e-02	1.294977005e-13
1.000000000e-03	1.602530687e-01	-3.250664796e-02	3.454327765e-13
1.100000000e-03	1.602561712e-01	-3.256596452e-02	1.028970727e-13
1.200000000e-03	1.602595692e-01	-3.263092283e-02	9.329494146e-14
1.300000000e-03	1.602632627e-01	-3.270152088e-02	1.696294351e-13
1.400000000e-03	1.602672515e-01	-3.277775646e-02	8.444266117e-14
1.500000000e-03	1.602715357e-01	-3.285962720e-02	2.409353049e-13
1.600000000e-03	1.602761154e-01	-3.294713053e-02	7.378106539e-14
1.700000000e-03	1.602809904e-01	-3.304026374e-02	6.957279354e-13
1.800000000e-03	1.602861607e-01	-3.313902392e-02	1.514816628e-13
1.900000000e-03	1.602916264e-01	-3.324340798e-02	2.745224162e-13
2.000000000e-03	1.602973874e-01	-3.335341268e-02	1.711030544e-13
2.100000000e-03	1.603034436e-01	-3.346903458e-02	1.109277267e-13
2.200000000e-03	1.603097952e-01	-3.359027009e-02	3.545266164e-13
2.300000000e-03	1.603164420e-01	-3.371711544e-02	9.481304630e-14
2.400000000e-03	1.603233840e-01	-3.384956665e-02	6.698684979e-14
2.500000000e-03	1.603306212e-01	-3.398761963e-02	1.486885019e-13
2.600000000e-03	1.603381536e-01	-3.413127006e-02	1.005822846e-13
2.700000000e-03	1.603459811e-01	-3.428051347e-02	6.642994210e-14
2.800000000e-03	1.603541038e-01	-3.443534523e-02	2.874245408e-13
2.900000000e-03	1.603625215e-01	-3.459576052e-02	6.625055317e-14
3.000000000e-03	1.603712343e-01	-3.476175434e-02	8.043563898e-14
3.100000000e-03	1.603802422e-01	-3.493332155e-02	3.744249001e-13
3.200000000e-03	1.603895450e-01	-3.511045680e-02	3.545570713e-13
3.300000000e-03	1.603991428e-01	-3.529315459e-02	2.758564650e-13
3.400000000e-03	1.604090355e-01	-3.548140924e-02	1.079265270e-13
3.500000000e-03	1.604192231e-01	-3.567521492e-02	6.200106061e-14
3.600000000e-03	1.604297056e-01	-3.587456561e-02	1.208822331e-13
3.700000000e-03	1.604404829e-01	-3.607945512e-02	7.540310798e-14
3.800000000e-03	1.604515550e-01	-3.628987709e-02	4.011352401e-13
3.900000000e-03	1.604629218e-01	-3.650582500e-02	9.551693315e-14
4.000000000e-03	1.604745833e-01	-3.672729216e-02	2.132437880e-13
4.100000000e-03	1.604865395e-01	-3.695427171e-02	1.754911101e-13
4.200000000e-03	1.604987903e-01	-3.718675660e-02	1.733220293e-13
4.300000000e-03	1.605113357e-01	-3.742473966e-02	8.854827319e-14
4.400000000e-03	1.605241756e-01	-3.766821351e-02	8.530335592e-14
4.500000000e-03	1.605373100e-01	-3.791717061e-02	1.191086669e-13
4.600000000e-03	1.605507388e-01	-3.817160328e-02	1.067825064e-13
4.700000000e-03	1.605644620e-01	-3.843150365e-02	2.114182113e-13
4.800000000e-03	1.605784796e-01	-3.869686368e-02	9.854284781e-14
4.900000000e-03	1.605927914e-01	-3.896767519e-02	3.307759845e-13
5.000000000e-03	1.606073975e-01	-3.924392982e-02	1.912331686e-13
5.100000000e-03	1.606222978e-01	-3.952561903e-02	1.150474468e-13
5.200000000e-03	1.606374922e-01	-3.981273415e-02	5.728578677e-14
5.300000000e-03	1.606529807e-01	-4.010526633e-02	9.255079105e-14
5.400000000e-03	1.606687632e-01	-4.040320655e-02	1.126490734e-13
5.500000000e-03	1.606848397e-01	-4.070654565e-02	1.711447234e-13
5.600000000e-03	1.607012101e-01	-4.101527428e-02	1.960004028e-13
5.700000000e-03	1.607178743e-01	-4.132938295e-02	1.187589954e-13
5.800000000e-03	1.607348324e-01	-4.164886201e-02	7.898829156e-14
5.900000000e-03	1.607520842e-01	-4.197370164e-02	2.406744587e-13
6.000000000e-03	1.607696296e-01	-4.230389186e-02	4.298785845e-14
6.100000000e-03	1.607874687e-01	-4.263942255e-02	1.624275636e-13
6.200000000e-03	1.608056013e-01	-4.298028341e-02	1.398861626e-13
6.300000000e-03	1.608240274e-01	-4.332646399e-02	1.034509246e-13
6.400000000e-03	1.608427469e-01	-4.367795369e-02	8.804012584e-14
6.500000000e-03	1.608617597e-01	-4.403474174e-02	6.850579872e-14
6.600000000e-03	1.608810659e-01	-4.439681724e-02	3.356727690e-13
6.700000000e-03	1.609006652e-01	-4.476416911e-02	3.090889613e-13
6.800000000e-03	1.609205577e-01	-4.513678612e-02	6.373734206e-14
6.900000000e-03	1.609407433e-01	-4.551465690e-02	8.337774915e-14
7.000000000e-03	1.609612219e-01	-4.589776992e-02	1.178638615e-13
7.100000000e-03	1.609819933e-01	-4.628611348e-02	6.044030082e-14
7.200000000e-03	1.610030577e-01	-4.667967577e-02	5.093794706e-14
7.300000000e-03	1.610244148e-01	-4.707844478e-02	1.565432181e-13
7.400000000e-03	1.610460647e-01	-4.748240839e-02	1.086930455e-13
7.500000000e-03	1.610680071e-01	-4.789155430e-02	7.383517337e-14
7.600000000e-03	1.610902421e-01	-4.830587010e-02	1.862775916e-13
7.700000000e-03	1.611127696e-01	-4.872534319e-02	9.844867849e-14
7.800000000e-03	1.611355895e-01	-4.914996084e-02	3.234800683e-13
7.900000000e-03	1.611587016e-01	-4.957971018e-02	3.898911687e-13
8.000000000e-03	1.611821060e-01	-5.001457820e-02	9.570122472e-14
8.100000000e-03	1.612058025e-01	-5.045455171e-02	1.424831440e-13
8.200000000e-03	1.612297911e-01	-5.089961742e-02	5.094656686e-13
8.300000000e-03	1.612540717e-01	-5.134976188e-02	8.388592740e-14
8.400000000e-03	1.612786441e-01	-5.180497147e-02	8.597636205e-14
8.500000000e-03	1.613035084e-01	-5.226523247e-02	8.338506654e-14
8.600000000e-03	1.613286643e-01	-5.273053100e-02	1.150407505e-13
8.700000000e-03	1.613541119e-01	-5.320085304e-02	7.837262420e-14
8.800000000e-03	1.613798510e-01	-5.367618442e-02	1.049391001e-13
8.900000000e-03	1.614058815e-01	-5.415651086e-02	6.734809066e-14
9.000000000e-03	1.614322034e-01	-5.464181792e-02	1.259713272e-13
9.100000000e-03	1.614588165e-01	-5.513209102e-02	1.147719867e-13
9.200000000e-03	1.614857208e-01	-5.562731546e-02	4.939685548e-13
9.300000000e-03	1.615129161e-01	-5.612747640e-02	5.850875340e-14
9.400000000e-03	1.615404024e-01	-5.663255885e-02	1.362833019e-13
9.500000000e-03	1.615681796e-01	-5.714254771e-02	9.251162773e-14
9.600000000e-03	1.615962475e-01	-5.765742773e-02	8.689635542e-14
9.700000000e-03	1.616246061e-01	-5.817718353e-02	9.821960570e-14
9.800000000e-03	1.616532553e-01	-5.870179961e-02	1.268580296e-13
9.900000000e-03	1.616821949e-01	-5.923126033e-02	9.557885452e-14
1.000000000e-02	1.617114249e-01	-5.976554993e-02	2.600711120e-13
1.010000000e-02	1.617409451e-01	-6.030465251e-02	1.644561116e-13
1.020000000e-02	1.617707555e-01	-6.084855205e-02	7.248319549e-14
1.030000000e-02	1.618008559e-01	-6.139723240e-02	9.282905274e-14
1.040000000e-02	1.618312463e-01	-6.195067729e-02	7.924348567e-14
1.050000000e-02	1.618619265e-01	-6.250887031e-02	1.141054905e-13
1.060000000e-02	1.618928964e-01	-6.307179495e-02	8.675098291e-14
1.070000000e-02	1.619241559e-01	-6.363943456e-02	1.379592722e-13
1.080000000e-02	1.619557049e-01	-6.421177237e-02	1.503958858e-13
1.090000000e-02	1.619875433e-01	-6.478879150e-02	1.117760830e-13
1.100000000e-02	1.620196710e-01	-6.537047493e-02	1.054075933e-13
1.110000000e-02	1.620520878e-01	-6.595680554e-02	5.299207425e-14
1.120000000e-02	1.620847937e-01	-6.654776609e-02	8.096685333e-14
1.130000000e-02	1.621177885e-01	-6.714333921e-02	1.368188064e-13
1.140000000e-02	1.621510721e-01	-6.774350743e-02	3.106740484e-14
1.150000000e-02	1.621846444e-01	-6.834825314e-02	9.157529774e-14
1.160000000e-02	1.622185052e-01	-6.895755865e-02	1.361667607e-13
1.170000000e-02	1.622526545e-01	-6.957140612e-02	3.103354571e-13
1.180000000e-02	1.622870921e-01	-7.018977764e-02	9.329368633e-14
1.190000000e-02	1.623218180e-01	-7.081265515e-02	2.018023902e-13
1.200000000e-02	1.623568319e-01	-7.144002050e-02	1.556360436e-13
1.210000000e-02	1.623921338e-01	-7.207185542e-02	2.062727455e-13
1.220000000e-02	1.624277234e-01	-7.270814154e-02	6.103319178e-14
1.230000000e-02	1.624636008e-01	-7.334886039e-02	7.892803411e-14
1.240000000e-02	1.624997658e-01	-7.399399337e-02	3.364590545e-13
1.250000000e-02	1.625362182e-01	-7.464352180e-02	2.570310171e-13
1.260000000e-02	1.625729580e-01	-7.529742688e-02	9.149915030e-14
1.270000000e-02	1.626099849e-01	-7.595568971e-02	1.019629696e-13
1.280000000e-02	1.626472989e-01	-7.661829130e-02	1.682225299e-13
1.290000000e-02	1.626848997e-01	-7.728521254e-02	1.610241771e-13
1.300000000e-02	1.627227874e-01	-7.795643422e-02	1.249053699e-13
1.310000000e-02	1.627609618e-01	-7.863193706e-02	2.760014439e-13
1.320000000e-02	1.627994226e-01	-7.931170164e-02	1.207800704e-13
1.330000000e-02	1.628381698e-01	-7.999570848e-02	6.776408824e-14
1.340000000e-02	1.628772033e-01	-8.068393799e-02	7.570719808e-14
1.350000000e-02	1.629165228e-01	-8.137637047e-02	1.356309537e-13
1.360000000e-02	1.629561284e-01	-8.207298615e-02	7.458922488e-14
1.370000000e-02	1.629960197e-01	-8.277376516e-02	1.925381534e-13
1.380000000e-02	1.630361967e-01	-8.347868753e-02	1.944910800e-13
1.390000000e-02	1.630766593e-01	-8.418773320e-02	6.769411347e-14
1.400000000e-02	1.631174072e-01	-8.490088205e-02	2.285886389e-13
1.410000000e-02	1.631584404e-01	-8.561811382e-02	6.148510936e-14
1.420000000e-02	1.631997587e-01	-8.633940820e-02	7.199314802e-14
1.430000000e-02	1.632413620e-01	-8.706474479e-02	9.162051188e-14
1.440000000e-02	1.632832500e-01	-8.779410309e-02	9.648496019e-14
1.450000000e-02	1.633254227e-01	-8.852746253e-02	1.042225080e-13
1.460000000e-02	1.633678799e-01	-8.926480246e-02	1.143518936e-13
1.470000000e-02	1.634106215e-01	-9.000610212e-02	5.549452648e-13
1.480000000e-02	1.634536473e-01	-9.075134071e-02	1.896248251e-13
1.490000000e-02	1.634969571e-01	-9.150049731e-02	2.574691213e-13
1.500000000e-02	1.635405508e-01	-9.225355096e-02	1.949870257e-13
1.510000000e-02	1.635844283e-01	-9.301048059e-02	1.920129999e-13
1.520000000e-02	1.636285893e-01	-9.377126506e-02	1.423984706e-13
1.530000000e-02	1.636730337e-01	-9.453588319e-02	1.726200807e-13
1.540000000e-02	1.637177615e-01	-9.530431367e-02	1.544332598e-13
1.550000000e-02	1.637627723e-01	-9.607653515e-02	1.656007711e-13
1.560000000e-02	1.638080661e-01	-9.685252621e-02	1.140704859e-13
1.570000000e-02	1.638536427e-01	-9.763226535e-02	2.821655133e-13
1.580000000e-02	1.638995019e-01	-9.841573100e-02	8.872703482e-14
1.590000000e-02	1.639456435e-01	-9.920290152e-02	7.127078414e-14
1.600000000e-02	1.639920675e-01	-9.999375520e-02	7.553172887e-14
1.610000000e-02	1.640387736e-01	-1.007882703e-01	7.761403924e-14
1.620000000e-02	1.640857617e-01	-1.015864249e-01	1.112751454e-13
1.630000000e-02	1.641330315e-01	-1.023881972e-01	1.115884604e-13
1.640000000e-02	1.641805830e-01	-1.031935652e-01	1.126420704e-13
1.650000000e-02	1.642284160e-01	-1.040025069e-01	1.447655899e-13
1.660000000e-02	1.642765302e-01	-1.048150001e-01	1.041824673e-13
1.670000000e-02	1.643249256e-01	-1.056310228e-01	1.315614284e-13
1.680000000e-02	1.643736020e-01	-1.064505527e-01	1.079330937e-13
1.690000000e-02	1.644225591e-01	-1.072735676e-01	1.297259380e-13
1.700000000e-02	1.644717968e-01	-1.081000451e-01	1.752552718e-13
1.710000000e-02	1.645213149e-01	-1.089299629e-01	1.656247736e-13
1.720000000e-02	1.645711133e-01	-1.097632985e-01	9.657900222e-14
1.730000000e-02	1.646211918e-01	-1.106000295e-01	1.005232614e-13
1.740000000e-02	1.646715501e-01	-1.114401333e-01	1.368666806e-13
1.750000000e-02	1.647221882e-01	-1.122835874e-01	2.017737114e-13
1.760000000e-02	1.647731059e-01	-1.131303691e-01	9.391942160e-14
1.770000000e-02	1.648243029e-01	-1.139804557e-01	4.327207289e-13
1.780000000e-02	1.648757790e-01	-1.148338244e-01	1.158181339e-13
1.790000000e-02	1.649275342e-01	-1.156904526e-01	1.019900446e-13
1.800000000e-02	1.649795682e-01	-1.165503174e-01	4.352380265e-13
1.810000000e-02	1.650318808e-01	-1.174133960e-01	1.126421251e-13
1.820000000e-02	1.650844718e-01	-1.182796653e-01	1.496076916e-13
1.830000000e-02	1.651373411e-01	-1.191491025e-01	1.909346374e-13
1.840000000e-02	1.651904885e-01	-1.200216846e-01	2.564838183e-13
1.850000000e-02	1.652439137e-01	-1.208973885e-01	1.611827048e-13
1.860000000e-02	1.652976166e-01	-1.217761912e-01	9.275645943e-14
1.870000000e-02	1.653515971e-01	-1.226580696e-01	1.768558446e-13
1.880000000e-02	1.654058548e-01	-1.235430005e-01	4.297825189e-14
1.890000000e-02	1.654603897e-01	-1.244309607e-01	1.885869941e-13
1.900000000e-02	1.655152015e-01	-1.253219270e-01	9.884358673e-14
1.910000000e-02	1.655702900e-01	-1.262158762e-01	2.093626306e-13
1.920000000e-02	1.656256550e-01	-1.271127850e-01	2.302020067e-13
1.930000000e-02	1.656812964e-01	-1.280126301e-01	8.526628477e-14
1.940000000e-02	1.657372140e-01	-1.289153881e-01	1.582505216e-13
1.950000000e-02	1.657934074e-01	-1.298210357e-01	3.545042255e-13
1.960000000e-02	1.658498766e-01	-1.307295495e-01	6.468209269e-14
1.970000000e-02	1.659066214e-01	-1.316409060e-01	1.157076652e-13
1.980000000e-02	1.659636415e-01	-1.325550819e-01	1.033462002e-13
1.990000000e-02	1.660209368e-01	-1.334720536e-01	1.085896308e-13
2.000000000e-02	1.660785070e-01	-1.343917976e-01	1.195664839e-13
2.010000000e-02	1.661363519e-01	-1.353142904e-01	1.755495726e-13
2.020000000e-02	1.661944713e-01	-1.362395085e-01	2.431484743e-13
2.030000000e-02	1.662528651e-01	-1.371674284e-01	9.828828954e-14
2.040000000e-02	1.663115331e-01	-1.380980263e-01	1.447724439e-13
2.050000000e-02	1.663704749e-01	-1.390312788e-01	2.141688991e-13
2.060000000e-02	1.664296904e-01	-1.399671623e-01	1.423458327e-13
2.070000000e-02	1.664891794e-01	-1.409056530e-01	1.458359823e-13
2.080000000e-02	1.665489418e-01	-1.418467274e-01	1.512683251e-13
2.090000000e-02	1.666089772e-01	-1.427903618e-01	1.067543377e-13
2.100000000e-02	1.666692854e-01	-1.437365325e-01	3.398634953e-13
2.110000000e-02	1.667298663e-01	-1.446852159e-01	5.740883713e-14
2.120000000e-02	1.667907197e-01	-1.456363882e-01	2.391329679e-13
2.130000000e-02	1.668518453e-01	-1.465900258e-01	8.267696017e-14
2.140000000e-02	1.669132428e-01	-1.475461049e-01	9.675057005e-14
2.150000000e-02	1.669749122e-01	-1.485046019e-01	3.309823426e-13
2.160000000e-02	1.670368532e-01	-1.494654929e-01	1.635991137e-13
2.170000000e-02	1.670990655e-01	-1.504287543e-01	1.355745518e-13
2.180000000e-02	1.671615490e-01	-1.513943624e-01	5.323805923e-14
2.190000000e-02	1.672243033e-01	-1.523622933e-01	1.600299360e-13
2.200000000e-02	1.672873284e-01	-1.533325234e-01	1.557044550e-13
2.210000000e-02	1.673506240e-01	-1.543050289e-01	1.655491446e-13
2.220000000e-02	1.674141898e-01	-1.552797861e-01	2.308187845e-13
2.230000000e-02	1.674780256e-01	-1.562567713e-01	1.504880998e-13
2.240000000e-02	1.675421312e-01	-1.572359606e-01	7.820140202e-14
2.250000000e-02	1.676065065e-01	-1.582173305e-01	8.624889596e-14
2.260000000e-02	1.676711511e-01	-1.592008570e-01	7.143109714e-14
2.270000000e-02	1.677360648e-01	-1.601865166e-01	8.799699411e-14
2.280000000e-02	1.678012474e-01	-1.611742855e-01	1.794275667e-13
2.290000000e-02	1.678666987e-01	-1.621641399e-01	1.067437147e-13
2.300000000e-02	1.679324184e-01	-1.631560562e-01	1.308014240e-13
2.310000000e-02	1.679984064e-01	-1.641500107e-01	1.355936429e-13
2.320000000e-02	1.680646623e-01	-1.651459796e-01	1.289817337e-13
2.330000000e-02	1.681311860e-01	-1.661439394e-01	2.591358764e-13
2.340000000e-02	1.681979772e-01	-1.671438664e-01	1.599290044e-13
2.350000000e-02	1.682650357e-01	-1.681457368e-01	6.997479521e-14
2.360000000e-02	1.683323612e-01	-1.691495270e-01	7.220547781e-14
2.370000000e-02	1.683999536e-01	-1.701552135e-01	1.023873653e-13
2.380000000e-02	1.684678125e-01	-1.711627727e-01	6.112319729e-14
2.390000000e-02	1.685359378e-01	-1.721721808e-01	7.351822764e-14
2.400000000e-02	1.686043292e-01	-1.731834145e-01	4.271090745e-13
2.410000000e-02	1.686729864e-01	-1.741964500e-01	1.098899288e-13
2.420000000e-02	1.687419093e-01	-1.752112638e-01	1.741758417e-13
2.430000000e-02	1.688110975e-01	-1.762278326e-01	1.132386123e-13
2.440000000e-02	1.688805509e-01	-1.772461326e-01	1.286970703e-13
2.450000000e-02	1.689502692e-01	-1.782661406e-01	1.086252102e-13
2.460000000e-02	1.690202522e-01	-1.792878330e-01	8.191279346e-14
2.470000000e-02	1.690904996e-01	-1.803111863e-01	9.282267902e-14
2.480000000e-02	1.691610111e-01	-1.813361773e-01	1.719802479e-13
2.490000000e-02	1.692317866e-01	-1.823627825e-01	5.120479663e-13
2.500000000e-02	1.693028257e-01	-1.833909786e-01	1.051990654e-13
2.510000000e-02	1.693741283e-01	-1.844207422e-01	4.220717513e-13
2.520000000e-02	1.694456941e-01	-1.854520501e-01	1.909493556e-13
2.530000000e-02	1.695175228e-01	-1.864848789e-01	4.988954890e-14
2.540000000e-02	1.695896141e-01	-1.875192055e-01	7.616905528e-13
2.550000000e-02	1.696619680e-01	-1.885550067e-01	1.086813078e-13
2.560000000e-02	1.697345840e-01	-1.895922592e-01	1.438261256e-13
2.570000000e-02	1.698074619e-01	-1.906309400e-01	3.841301233e-13
2.580000000e-02	1.698806015e-01	-1.916710259e-01	6.854528103e-14
2.590000000e-02	1.699540026e-01	-1.927124938e-01	1.223979974e-13
2.600000000e-02	1.700276648e-01	-1.937553208e-01	1.331338882e-13
2.610000000e-02	1.701015879e-01	-1.947994838e-01	1.851817726e-13
2.620000000e-02	1.701757717e-01	-1.958449599e-01	9.953940410e-14
2.630000000e-02	1.702502160e-01	-1.968917260e-01	1.365201036e-13
2.640000000e-02	1.703249203e-01	-1.979397595e-01	1.194890908e-13
2.650000000e-02	1.703998846e-01	-1.989890373e-01	8.215650382e-14
2.660000000e-02	1.704751085e-01	-2.000395366e-01	1.177667732e-13
2.670000000e-02	1.705505917e-01	-2.010912348e-01	1.173547225e-13
2.680000000e-02	1.706263341e-01	-2.021441091e-01	5.414875360e-13
2.690000000e-02	1.707023353e-01	-2.031981368e-01	1.574050775e-13
2.700000000e-02	1.707785951e-01	-2.042532952e-01	3.203208921e-13
2.710000000e-02	1.708551132e-01	-2.053095618e-01	5.259458212e-14
2.720000000e-02	1.709318894e-01	-2.063669140e-01	1.831598826e-13
2.730000000e-02	1.710089234e-01	-2.074253293e-01	2.301204982e-13
2.740000000e-02	1.710862150e-01	-2.084847853e-01	9.983319033e-14
2.750000000e-02	1.711637638e-01	-2.095452594e-01	1.149161815e-13
2.760000000e-02	1.712415696e-01	-2.106067295e-01	3.007780025e-13
2.770000000e-02	1.713196321e-01	-2.116691730e-01	7.775755098e-14
2.780000000e-02	1.713979512e-01	-2.127325679e-01	1.083473584e-13
2.790000000e-02	1.714765264e-01	-2.137968917e-01	1.203360898e-13
2.800000000e-02	1.715553575e-01	-2.148621225e-01	1.644848898e-13
2.810000000e-02	1.716344443e-01	-2.159282380e-01	1.523951265e-13
2.820000000e-02	1.717137865e-01	-2.169952162e-01	9.759971809e-14
2.830000000e-02	1.717933838e-01	-2.180630351e-01	1.243275807e-13
2.840000000e-02	1.718732360e-01	-2.191316727e-01	8.327124163e-14
2.850000000e-02	1.719533427e-01	-2.202011072e-01	9.995460652e-14
2.860000000e-02	1.720337038e-01	-2.212713166e-01	1.330875886e-13
2.870000000e-02	1.721143188e-01	-2.223422791e-01	9.234066019e-14
2.880000000e-02	1.721951876e-01	-2.234139731e-01	2.681020112e-13
2.890000000e-02	1.722763099e-01	-2.244863769e-01	1.257174512e-13
2.900000000e-02	1.723576854e-01	-2.255594687e-01	1.802534867e-13
2.910000000e-02	1.724393138e-01	-2.266332272e-01	1.582678510e-13
2.920000000e-02	1.725211949e-01	-2.277076306e-01	1.989620024e-13
2.930000000e-02	1.726033283e-01	-2.287826577e-01	5.111513105e-14
2.940000000e-02	1.726857138e-01	-2.298582870e-01	1.607394759e-13
2.950000000e-02	1.727683512e-01	-2.309344971e-01	3.694822393e-13
2.960000000e-02	1.728512400e-01	-2.320112669e-01	1.300829419e-13
2.970000000e-02	1.729343801e-01	-2.330885750e-01	6.772360450e-14
2.980000000e-02	1.730177712e-01	-2.341664004e-01	1.124574271e-13
2.990000000e-02	1.731014130e-01	-2.352447220e-01	1.115155336e-13
3.000000000e-02	1.731853051e-01	-2.363235188e-01	8.379058453e-14
3.010000000e-02	1.732694474e-01	-2.374027697e-01	1.808945830e-13
3.020000000e-02	1.733538395e-01	-2.384824540e-01	6.742299511e-14
3.030000000e-02	1.734384811e-01	-2.395625507e-01	1.653449750e-13
