# kz [1/micrones]     Omega [THz]    |det|$\mu_c$ = 0.760 eV, $\eta$ = 0.00, modo = 1, R = 0.50$\mu$m, solve_det_conkz3.py
2.50000000000e-01	3.44256983162e+01	-4.56787900628e-01
2.60000000000e-01	3.44400033552e+01	-5.42195312943e-01
2.70000000000e-01	3.44548715563e+01	-6.22881401095e-01
2.80000000000e-01	3.44703040552e+01	-6.99388345432e-01
2.90000000000e-01	3.44863014492e+01	-7.72166111676e-01
3.00000000000e-01	3.45028638892e+01	-8.41592595972e-01
3.10000000000e-01	3.45199913409e+01	-9.07988513777e-01
3.20000000000e-01	3.45376832988e+01	-9.71628601966e-01
3.30000000000e-01	3.45559391602e+01	-1.03275018196e+00
3.40000000000e-01	3.45747580253e+01	-1.09155979936e+00
3.50000000000e-01	3.45941388489e+01	-1.14823843860e+00
3.60000000000e-01	3.46140804054e+01	-1.20294566628e+00
3.70000000000e-01	3.46345812929e+01	-1.25582295838e+00
3.80000000000e-01	3.46556399756e+01	-1.30699639790e+00
3.90000000000e-01	3.46772548195e+01	-1.35657888165e+00
4.00000000000e-01	3.46994240162e+01	-1.40467194032e+00
4.10000000000e-01	3.47221456756e+01	-1.45136725085e+00
4.20000000000e-01	3.47454177844e+01	-1.49674790208e+00
4.30000000000e-01	3.47692382334e+01	-1.54088946064e+00
4.40000000000e-01	3.47936048716e+01	-1.58386087423e+00
4.50000000000e-01	3.48185153646e+01	-1.62572524136e+00
4.60000000000e-01	3.48439672824e+01	-1.66654047067e+00
4.70000000000e-01	3.48699583059e+01	-1.70635984861e+00
4.80000000000e-01	3.48964857437e+01	-1.74523253041e+00
4.90000000000e-01	3.49235470424e+01	-1.78320396660e+00
5.00000000000e-01	3.49511394986e+01	-1.82031627504e+00
5.10000000000e-01	3.49792603578e+01	-1.85660856667e+00
5.20000000000e-01	3.50079067758e+01	-1.89211723188e+00
5.30000000000e-01	3.50370758599e+01	-1.92687619300e+00
5.40000000000e-01	3.50667646645e+01	-1.96091712778e+00
5.50000000000e-01	3.50969701574e+01	-1.99426966774e+00
5.60000000000e-01	3.51276892679e+01	-2.02696157469e+00
5.70000000000e-01	3.51589188689e+01	-2.05901889849e+00
5.80000000000e-01	3.51906557698e+01	-2.09046611809e+00
5.90000000000e-01	3.52228967288e+01	-2.12132626824e+00
6.00000000000e-01	3.52556384723e+01	-2.15162105346e+00
6.10000000000e-01	3.52888776540e+01	-2.18137095080e+00
6.20000000000e-01	3.53226109002e+01	-2.21059530276e+00
6.30000000000e-01	3.53568347792e+01	-2.23931240140e+00
6.40000000000e-01	3.53915458292e+01	-2.26753956474e+00
6.50000000000e-01	3.54267405354e+01	-2.29529320623e+00
6.60000000000e-01	3.54624153571e+01	-2.32258889798e+00
6.70000000000e-01	3.54985667068e+01	-2.34944142861e+00
6.80000000000e-01	3.55351909574e+01	-2.37586485599e+00
6.90000000000e-01	3.55722844561e+01	-2.40187255570e+00
7.00000000000e-01	3.56098435115e+01	-2.42747726538e+00
7.10000000000e-01	3.56478644058e+01	-2.45269112553e+00
7.20000000000e-01	3.56863433898e+01	-2.47752571704e+00
7.30000000000e-01	3.57252766749e+01	-2.50199209580e+00
7.40000000000e-01	3.57646604534e+01	-2.52610082459e+00
7.50000000000e-01	3.58044908974e+01	-2.54986200261e+00
7.60000000000e-01	3.58447641452e+01	-2.57328529279e+00
7.70000000000e-01	3.58854763188e+01	-2.59637994703e+00
7.80000000000e-01	3.59266235129e+01	-2.61915482971e+00
7.90000000000e-01	3.59682017986e+01	-2.64161843944e+00
8.00000000000e-01	3.60102072394e+01	-2.66377892936e+00
8.10000000000e-01	3.60526358659e+01	-2.68564412596e+00
8.20000000000e-01	3.60954837044e+01	-2.70722154663e+00
8.30000000000e-01	3.61387467549e+01	-2.72851841613e+00
8.40000000000e-01	3.61824210086e+01	-2.74954168178e+00
8.50000000000e-01	3.62265024441e+01	-2.77029802786e+00
8.60000000000e-01	3.62709870215e+01	-2.79079388893e+00
8.70000000000e-01	3.63158706996e+01	-2.81103546238e+00
8.80000000000e-01	3.63611494119e+01	-2.83102872014e+00
8.90000000000e-01	3.64068191009e+01	-2.85077941975e+00
9.00000000000e-01	3.64528756885e+01	-2.87029311463e+00
9.10000000000e-01	3.64993150855e+01	-2.88957516386e+00
9.20000000000e-01	3.65461332219e+01	-2.90863074126e+00
9.30000000000e-01	3.65933259827e+01	-2.92746484402e+00
9.40000000000e-01	3.66408892891e+01	-2.94608230078e+00
9.50000000000e-01	3.66888190316e+01	-2.96448777927e+00
9.60000000000e-01	3.67371111120e+01	-2.98268579350e+00
9.70000000000e-01	3.67857614256e+01	-3.00068071056e+00
9.80000000000e-01	3.68347658635e+01	-3.01847675703e+00
9.90000000000e-01	3.68841203399e+01	-3.03607802504e+00
1.00000000000e+00	3.69338207326e+01	-3.05348847800e+00
1.01000000000e+00	3.69838629580e+01	-3.07071195606e+00
1.02000000000e+00	3.70342429083e+01	-3.08775218120e+00
1.03000000000e+00	3.70849565046e+01	-3.10461276214e+00
1.04000000000e+00	3.71359996455e+01	-3.12129719892e+00
1.05000000000e+00	3.71873682613e+01	-3.13780888732e+00
1.06000000000e+00	3.72390582674e+01	-3.15415112297e+00
1.07000000000e+00	3.72910656100e+01	-3.17032710534e+00
1.08000000000e+00	3.73433862129e+01	-3.18633994146e+00
1.09000000000e+00	3.73960160325e+01	-3.20219264949e+00
1.10000000000e+00	3.74489510387e+01	-3.21788816212e+00
1.11000000000e+00	3.75021871719e+01	-3.23342932980e+00
1.12000000000e+00	3.75557204308e+01	-3.24881892380e+00
1.13000000000e+00	3.76095468077e+01	-3.26405963916e+00
1.14000000000e+00	3.76636622898e+01	-3.27915409743e+00
1.15000000000e+00	3.77180629018e+01	-3.29410484938e+00
1.16000000000e+00	3.77727446662e+01	-3.30891437753e+00
1.17000000000e+00	3.78277036304e+01	-3.32358509855e+00
1.18000000000e+00	3.78829358477e+01	-3.33811936557e+00
1.19000000000e+00	3.79384373830e+01	-3.35251947042e+00
1.20000000000e+00	3.79942043350e+01	-3.36678764570e+00
1.21000000000e+00	3.80502327943e+01	-3.38092606684e+00
1.22000000000e+00	3.81065188853e+01	-3.39493685397e+00
1.23000000000e+00	3.81630587456e+01	-3.40882207384e+00
1.24000000000e+00	3.82198485222e+01	-3.42258374151e+00
1.25000000000e+00	3.82768843968e+01	-3.43622382208e+00
1.26000000000e+00	3.83341625420e+01	-3.44974423233e+00
1.27000000000e+00	3.83916791839e+01	-3.46314684220e+00
1.28000000000e+00	3.84494305415e+01	-3.47643347636e+00
1.29000000000e+00	3.85074128690e+01	-3.48960591556e+00
1.30000000000e+00	3.85656224230e+01	-3.50266589807e+00
1.31000000000e+00	3.86240554973e+01	-3.51561512091e+00
1.32000000000e+00	3.86827084068e+01	-3.52845524119e+00
1.33000000000e+00	3.87415774745e+01	-3.54118787723e+00
1.34000000000e+00	3.88006590577e+01	-3.55381460982e+00
1.35000000000e+00	3.88599495245e+01	-3.56633698324e+00
1.36000000000e+00	3.89194452747e+01	-3.57875650637e+00
1.37000000000e+00	3.89791427266e+01	-3.59107465374e+00
1.38000000000e+00	3.90390383281e+01	-3.60329286648e+00
1.39000000000e+00	3.90991285346e+01	-3.61541255328e+00
1.40000000000e+00	3.91594098344e+01	-3.62743509132e+00
1.41000000000e+00	3.92198787425e+01	-3.63936182712e+00
1.42000000000e+00	3.92805317963e+01	-3.65119407742e+00
1.43000000000e+00	3.93413655488e+01	-3.66293312997e+00
1.44000000000e+00	3.94023765982e+01	-3.67458024430e+00
1.45000000000e+00	3.94635615379e+01	-3.68613665251e+00
1.46000000000e+00	3.95249170143e+01	-3.69760355998e+00
1.47000000000e+00	3.95864396724e+01	-3.70898214605e+00
1.48000000000e+00	3.96481262102e+01	-3.72027356473e+00
1.49000000000e+00	3.97099733285e+01	-3.73147894531e+00
1.50000000000e+00	3.97719777641e+01	-3.74259939300e+00
1.51000000000e+00	3.98341362689e+01	-3.75363598956e+00
1.52000000000e+00	3.98964456430e+01	-3.76458979383e+00
1.53000000000e+00	3.99589026950e+01	-3.77546184232e+00
1.54000000000e+00	4.00215042625e+01	-3.78625314975e+00
1.55000000000e+00	4.00842472021e+01	-3.79696470957e+00
1.56000000000e+00	4.01471284141e+01	-3.80759749442e+00
1.57000000000e+00	4.02101448104e+01	-3.81815245668e+00
1.58000000000e+00	4.02732933378e+01	-3.82863052890e+00
1.59000000000e+00	4.03365709637e+01	-3.83903262423e+00
1.60000000000e+00	4.03999746868e+01	-3.84935963690e+00
1.61000000000e+00	4.04635015255e+01	-3.85961244258e+00
1.62000000000e+00	4.05271485400e+01	-3.86979189884e+00
1.63000000000e+00	4.05909128014e+01	-3.87989884551e+00
1.64000000000e+00	4.06547914092e+01	-3.88993410505e+00
1.65000000000e+00	4.07187815028e+01	-3.89989848290e+00
1.66000000000e+00	4.07828802314e+01	-3.90979276787e+00
1.67000000000e+00	4.08470847851e+01	-3.91961773243e+00
1.68000000000e+00	4.09113923767e+01	-3.92937413305e+00
1.69000000000e+00	4.09758002374e+01	-3.93906271053e+00
1.70000000000e+00	4.10403056375e+01	-3.94868419026e+00
1.71000000000e+00	4.11049058734e+01	-3.95823928254e+00
1.72000000000e+00	4.11695982572e+01	-3.96772868282e+00
1.73000000000e+00	4.12343801333e+01	-3.97715307204e+00
1.74000000000e+00	4.12992488861e+01	-3.98651311679e+00
1.75000000000e+00	4.13642019004e+01	-3.99580946963e+00
1.76000000000e+00	4.14292366114e+01	-4.00504276930e+00
1.77000000000e+00	4.14943504693e+01	-4.01421364096e+00
1.78000000000e+00	4.15595409625e+01	-4.02332269637e+00
1.79000000000e+00	4.16248055856e+01	-4.03237053415e+00
1.80000000000e+00	4.16901418811e+01	-4.04135773995e+00
1.81000000000e+00	4.17555473967e+01	-4.05028488667e+00
1.82000000000e+00	4.18210197344e+01	-4.05915253461e+00
1.83000000000e+00	4.18865564945e+01	-4.06796123167e+00
1.84000000000e+00	4.19521553265e+01	-4.07671151349e+00
1.85000000000e+00	4.20178138854e+01	-4.08540390368e+00
1.86000000000e+00	4.20835298731e+01	-4.09403891387e+00
1.87000000000e+00	4.21493009984e+01	-4.10261704395e+00
1.88000000000e+00	4.22151250035e+01	-4.11113878216e+00
1.89000000000e+00	4.22809996639e+01	-4.11960460523e+00
1.90000000000e+00	4.23469227793e+01	-4.12801497851e+00
1.91000000000e+00	4.24128921555e+01	-4.13637035608e+00
1.92000000000e+00	4.24789056497e+01	-4.14467118088e+00
1.93000000000e+00	4.25449611322e+01	-4.15291788478e+00
1.94000000000e+00	4.26110564999e+01	-4.16111088872e+00
1.95000000000e+00	4.26771896788e+01	-4.16925060276e+00
1.96000000000e+00	4.27433586091e+01	-4.17733742622e+00
1.97000000000e+00	4.28095612653e+01	-4.18537174771e+00
1.98000000000e+00	4.28757956515e+01	-4.19335394521e+00
1.99000000000e+00	4.29420597881e+01	-4.20128438616e+00
2.00000000000e+00	4.30083517114e+01	-4.20916342753e+00
2.01000000000e+00	4.30746695144e+01	-4.21699141583e+00
2.02000000000e+00	4.31410112674e+01	-4.22476868721e+00
2.03000000000e+00	4.32073751101e+01	-4.23249556747e+00
2.04000000000e+00	4.32737591821e+01	-4.24017237213e+00
2.05000000000e+00	4.33401616458e+01	-4.24779940644e+00
2.06000000000e+00	4.34065807022e+01	-4.25537696542e+00
2.07000000000e+00	4.34730145636e+01	-4.26290533389e+00
2.08000000000e+00	4.35394614745e+01	-4.27038478648e+00
2.09000000000e+00	4.36059196860e+01	-4.27781558765e+00
2.10000000000e+00	4.36723874975e+01	-4.28519799170e+00
2.11000000000e+00	4.37388632133e+01	-4.29253224278e+00
2.12000000000e+00	4.38053451699e+01	-4.29981857488e+00
2.13000000000e+00	4.38718317135e+01	-4.30705721182e+00
2.14000000000e+00	4.39383212323e+01	-4.31424836728e+00
2.15000000000e+00	4.40048121273e+01	-4.32139224476e+00
2.16000000000e+00	4.40713028223e+01	-4.32848903755e+00
2.17000000000e+00	4.41377917635e+01	-4.33553892874e+00
2.18000000000e+00	4.42042774165e+01	-4.34254209120e+00
2.19000000000e+00	4.42707582679e+01	-4.34949868754e+00
2.20000000000e+00	4.43372328462e+01	-4.35640887007e+00
2.21000000000e+00	4.44036996736e+01	-4.36327278081e+00
2.22000000000e+00	4.44701573110e+01	-4.37009055141e+00
2.23000000000e+00	4.45366043375e+01	-4.37686230316e+00
2.24000000000e+00	4.46030393510e+01	-4.38358814692e+00
2.25000000000e+00	4.46694609792e+01	-4.39026818311e+00
2.26000000000e+00	4.47358678574e+01	-4.39690250163e+00
2.27000000000e+00	4.48022586454e+01	-4.40349118188e+00
2.28000000000e+00	4.48686320388e+01	-4.41003429269e+00
2.29000000000e+00	4.49349867349e+01	-4.41653189228e+00
2.30000000000e+00	4.50013214726e+01	-4.42298402822e+00
2.31000000000e+00	4.50676349919e+01	-4.42939073743e+00
2.32000000000e+00	4.51339260560e+01	-4.43575204612e+00
2.33000000000e+00	4.52001934606e+01	-4.44206796979e+00
2.34000000000e+00	4.52664360254e+01	-4.44833851317e+00
2.35000000000e+00	4.53326525557e+01	-4.45456367025e+00
2.36000000000e+00	4.53988419285e+01	-4.46074342425e+00
2.37000000000e+00	4.54650029948e+01	-4.46687774761e+00
2.38000000000e+00	4.55311346574e+01	-4.47296660202e+00
2.39000000000e+00	4.55972358206e+01	-4.47900993843e+00
2.40000000000e+00	4.56633054169e+01	-4.48500769709e+00
2.41000000000e+00	4.57293424031e+01	-4.49095980760e+00
2.42000000000e+00	4.57953457486e+01	-4.49686618893e+00
2.43000000000e+00	4.58613144505e+01	-4.50272674956e+00
2.44000000000e+00	4.59272475104e+01	-4.50854138755e+00
2.45000000000e+00	4.59931439677e+01	-4.51430999066e+00
2.46000000000e+00	4.60590028696e+01	-4.52003243650e+00
2.47000000000e+00	4.61248233021e+01	-4.52570859269e+00
2.48000000000e+00	4.61906043440e+01	-4.53133831709e+00
2.49000000000e+00	4.62563451110e+01	-4.53692145801e+00
2.50000000000e+00	4.63220447481e+01	-4.54245785448e+00
2.51000000000e+00	4.63877023992e+01	-4.54794733658e+00
2.52000000000e+00	4.64533172360e+01	-4.55338972578e+00
2.53000000000e+00	4.65188884652e+01	-4.55878483534e+00
2.54000000000e+00	4.65844152927e+01	-4.56413247075e+00
2.55000000000e+00	4.66498969638e+01	-4.56943243026e+00
2.56000000000e+00	4.67153327306e+01	-4.57468450545e+00
2.57000000000e+00	4.67807218778e+01	-4.57988848183e+00
2.58000000000e+00	4.68460636962e+01	-4.58504413959e+00
2.59000000000e+00	4.69113575202e+01	-4.59015125434e+00
2.60000000000e+00	4.69766026859e+01	-4.59520959801e+00
2.61000000000e+00	4.70417985761e+01	-4.60021893979e+00
2.62000000000e+00	4.71069445591e+01	-4.60517904720e+00
2.63000000000e+00	4.71720400561e+01	-4.61008968722e+00
2.64000000000e+00	4.72370845067e+01	-4.61495062756e+00
2.65000000000e+00	4.73020773707e+01	-4.61976163809e+00
2.66000000000e+00	4.73670181203e+01	-4.62452249230e+00
2.67000000000e+00	4.74319062619e+01	-4.62923296899e+00
2.68000000000e+00	4.74967413437e+01	-4.63389285406e+00
2.69000000000e+00	4.75615229044e+01	-4.63850194242e+00
2.70000000000e+00	4.76262505404e+01	-4.64306004018e+00
2.71000000000e+00	4.76909238489e+01	-4.64756696685e+00
2.72000000000e+00	4.77555424704e+01	-4.65202255786e+00
2.73000000000e+00	4.78201060739e+01	-4.65642666722e+00
2.74000000000e+00	4.78846143232e+01	-4.66077917033e+00
2.75000000000e+00	4.79490669668e+01	-4.66507996709e+00
