# kz [1/micrones]     Omega [THz]    |det|$\mu_c$ = 0.200 eV, $\eta$ = 0.80, modo = 1, R = 0.50$\mu$m, solve_det_conkz3.py
1.00000000000e-01	1.77230109854e+01	5.28256995836e-01
1.10000000000e-01	1.77259155118e+01	2.84476405393e-01
1.20000000000e-01	1.77290909203e+01	7.77557901128e-02
1.30000000000e-01	1.77325458888e+01	-1.02654879790e-01
1.40000000000e-01	1.77362856174e+01	-2.63308744759e-01
1.50000000000e-01	1.77403135323e+01	-4.08516285896e-01
1.60000000000e-01	1.77446320693e+01	-5.41276226001e-01
1.70000000000e-01	1.77492429697e+01	-6.63766394419e-01
1.80000000000e-01	1.77541475566e+01	-7.77623203256e-01
1.90000000000e-01	1.77593467831e+01	-8.84110642519e-01
2.00000000000e-01	1.77648413625e+01	-9.84227557312e-01
2.10000000000e-01	1.77706318158e+01	-1.07877853231e+00
2.20000000000e-01	1.77767184576e+01	-1.16842233263e+00
2.30000000000e-01	1.77831014468e+01	-1.25370596979e+00
2.40000000000e-01	1.77897809038e+01	-1.33508925787e+00
2.50000000000e-01	1.77967566300e+01	-1.41296289950e+00
2.60000000000e-01	1.78040285352e+01	-1.48766206063e+00
2.70000000000e-01	1.78115962995e+01	-1.55947673136e+00
2.80000000000e-01	1.78194595541e+01	-1.62865975257e+00
2.90000000000e-01	1.78276178358e+01	-1.69543311809e+00
3.00000000000e-01	1.78360706116e+01	-1.75999298309e+00
3.10000000000e-01	1.78448172555e+01	-1.82251368815e+00
3.20000000000e-01	1.78538570787e+01	-1.88315102500e+00
3.30000000000e-01	1.78631893191e+01	-1.94204491126e+00
3.40000000000e-01	1.78728131560e+01	-1.99932159968e+00
3.50000000000e-01	1.78827276969e+01	-2.05509551738e+00
3.60000000000e-01	1.78929319921e+01	-2.10947080803e+00
3.70000000000e-01	1.79034250356e+01	-2.16254263398e+00
3.80000000000e-01	1.79142057615e+01	-2.21439828276e+00
3.90000000000e-01	1.79252730499e+01	-2.26511811297e+00
4.00000000000e-01	1.79366257311e+01	-2.31477636770e+00
4.10000000000e-01	1.79482625856e+01	-2.36344187793e+00
4.20000000000e-01	1.79601823395e+01	-2.41117867410e+00
4.30000000000e-01	1.79723836731e+01	-2.45804652058e+00
4.40000000000e-01	1.79848652261e+01	-2.50410138544e+00
4.50000000000e-01	1.79976255880e+01	-2.54939585532e+00
4.60000000000e-01	1.80106633014e+01	-2.59397950400e+00
4.70000000000e-01	1.80239768757e+01	-2.63789922143e+00
4.80000000000e-01	1.80375647761e+01	-2.68119950942e+00
4.90000000000e-01	1.80514254276e+01	-2.72392274874e+00
5.00000000000e-01	1.80655572168e+01	-2.76610944216e+00
5.10000000000e-01	1.80799584952e+01	-2.80779843700e+00
5.20000000000e-01	1.80946275793e+01	-2.84902713057e+00
5.30000000000e-01	1.81095627408e+01	-2.88983166123e+00
5.40000000000e-01	1.81247622332e+01	-2.93024708785e+00
5.50000000000e-01	1.81402242674e+01	-2.97030755983e+00
5.60000000000e-01	1.81559470295e+01	-3.01004647992e+00
5.70000000000e-01	1.81719286656e+01	-3.04949666199e+00
5.80000000000e-01	1.81881673031e+01	-3.08869048554e+00
5.90000000000e-01	1.82046610351e+01	-3.12766004914e+00
6.00000000000e-01	1.82214079301e+01	-3.16643732453e+00
6.10000000000e-01	1.82384060284e+01	-3.20505431375e+00
6.20000000000e-01	1.82556533490e+01	-3.24354321123e+00
6.30000000000e-01	1.82731478811e+01	-3.28193657341e+00
6.40000000000e-01	1.82908875993e+01	-3.32026749849e+00
6.50000000000e-01	1.83088704485e+01	-3.35856981931e+00
6.60000000000e-01	1.83270943594e+01	-3.39687831299e+00
6.70000000000e-01	1.83455572373e+01	-3.43522893119e+00
6.80000000000e-01	1.83642569717e+01	-3.47365905603e+00
6.90000000000e-01	1.83831914371e+01	-3.51220778729e+00
7.00000000000e-01	1.84023584847e+01	-3.55091626813e+00
7.10000000000e-01	1.84217559568e+01	-3.58982805773e+00
7.20000000000e-01	1.84413816786e+01	-3.62898956164e+00
7.30000000000e-01	1.84612334617e+01	-3.66845053309e+00
7.40000000000e-01	1.84813091080e+01	-3.70826466194e+00
7.50000000000e-01	1.85016064038e+01	-3.74849027262e+00
7.60000000000e-01	1.85221231311e+01	-3.78919115830e+00
7.70000000000e-01	1.85428570573e+01	-3.83043758674e+00
7.80000000000e-01	1.85638059443e+01	-3.87230752419e+00
7.90000000000e-01	1.85849675476e+01	-3.91488813877e+00
8.00000000000e-01	1.86063396194e+01	-3.95827766602e+00
8.10000000000e-01	1.86279199013e+01	-4.00258774856e+00
8.20000000000e-01	1.86497061373e+01	-4.04794640495e+00
8.30000000000e-01	1.86716960652e+01	-4.09450184434e+00
8.40000000000e-01	1.86938874232e+01	-4.14242743640e+00
8.50000000000e-01	1.87162779480e+01	-4.19192828618e+00
8.60000000000e-01	1.87388653794e+01	-4.24325008156e+00
8.70000000000e-01	1.87616474578e+01	-4.29669122979e+00
8.80000000000e-01	1.87846219258e+01	-4.35261987188e+00
8.90000000000e-01	1.88077865313e+01	-4.41149833873e+00
9.00000000000e-01	1.88311390288e+01	-4.47391933644e+00
9.10000000000e-01	1.88546771752e+01	-4.54066133907e+00
9.20000000000e-01	1.88783987383e+01	-4.61277689837e+00
9.30000000000e-01	1.89023014927e+01	-4.69174055623e+00
9.40000000000e-01	1.89263832226e+01	-4.77971228589e+00
9.50000000000e-01	1.89506417224e+01	-4.88004516024e+00
9.60000000000e-01	1.89750747976e+01	-4.99837219259e+00
9.70000000000e-01	1.89996802678e+01	-5.14530678748e+00
9.80000000000e-01	1.90244559628e+01	-5.34490237041e+00
9.90000000000e-01	1.90493997291e+01	-5.67563778279e+00
1.00000000000e+00	1.90745094275e+01	-7.06188091697e+00
1.01000000000e+00	1.90997829345e+01	-5.68065313615e+00
1.02000000000e+00	1.91252181439e+01	-5.40879081634e+00
1.03000000000e+00	1.91508129660e+01	-5.25613177129e+00
1.04000000000e+00	1.91765653314e+01	-5.15319663879e+00
1.05000000000e+00	1.92024731874e+01	-5.07774437252e+00
1.06000000000e+00	1.92285345030e+01	-5.01977760505e+00
1.07000000000e+00	1.92547472661e+01	-4.97393779021e+00
1.08000000000e+00	1.92811094867e+01	-4.93701839517e+00
1.09000000000e+00	1.93076191969e+01	-4.90694928835e+00
1.10000000000e+00	1.93342744493e+01	-4.88231758519e+00
1.11000000000e+00	1.93610733197e+01	-4.86211719168e+00
1.12000000000e+00	1.93880139079e+01	-4.84560740851e+00
1.13000000000e+00	1.94150943351e+01	-4.83222815464e+00
1.14000000000e+00	1.94423127494e+01	-4.82154661846e+00
1.15000000000e+00	1.94696673185e+01	-4.81322232446e+00
1.16000000000e+00	1.94971562388e+01	-4.80698348621e+00
1.17000000000e+00	1.95247777275e+01	-4.80261054331e+00
1.18000000000e+00	1.95525300289e+01	-4.79992442202e+00
1.19000000000e+00	1.95804114099e+01	-4.79877799088e+00
1.20000000000e+00	1.96084201627e+01	-4.79904973171e+00
1.21000000000e+00	1.96365546041e+01	-4.80063898177e+00
1.22000000000e+00	1.96648130744e+01	-4.80346231289e+00
1.23000000000e+00	1.96931939400e+01	-4.80745074940e+00
1.24000000000e+00	1.97216955905e+01	-4.81254761629e+00
1.25000000000e+00	1.97503164362e+01	-4.81870686957e+00
1.26000000000e+00	1.97790549158e+01	-4.82589180289e+00
1.27000000000e+00	1.98079094873e+01	-4.83407405362e+00
1.28000000000e+00	1.98368786337e+01	-4.84323285303e+00
1.29000000000e+00	1.98659608581e+01	-4.85335448117e+00
1.30000000000e+00	1.98951546860e+01	-4.86443189852e+00
1.31000000000e+00	1.99244586646e+01	-4.87646453656e+00
1.32000000000e+00	1.99538713603e+01	-4.88945823716e+00
1.33000000000e+00	1.99833913599e+01	-4.90342533792e+00
1.34000000000e+00	2.00130172690e+01	-4.91838490737e+00
1.35000000000e+00	2.00427477131e+01	-4.93436314160e+00
1.36000000000e+00	2.00725813328e+01	-4.95139394163e+00
1.37000000000e+00	2.01025167883e+01	-4.96951970099e+00
1.38000000000e+00	2.01325527531e+01	-4.98879234547e+00
1.39000000000e+00	2.01626879186e+01	-5.00927468357e+00
1.40000000000e+00	2.01929209882e+01	-5.03104214828e+00
1.41000000000e+00	2.02232506802e+01	-5.05418504253e+00
1.42000000000e+00	2.02536757282e+01	-5.07881144456e+00
1.43000000000e+00	2.02841948698e+01	-5.10505099438e+00
1.44000000000e+00	2.03148068625e+01	-5.13305987828e+00
1.45000000000e+00	2.03455104691e+01	-5.16302747399e+00
1.46000000000e+00	2.03763044623e+01	-5.19518534606e+00
1.47000000000e+00	2.04071876230e+01	-5.22981964383e+00
1.48000000000e+00	2.04381587416e+01	-5.26728855207e+00
1.49000000000e+00	2.04692166117e+01	-5.30804746519e+00
1.50000000000e+00	2.05003600341e+01	-5.35268636628e+00
1.51000000000e+00	2.05315878160e+01	-5.40198725835e+00
1.52000000000e+00	2.05628987677e+01	-5.45701609935e+00
1.53000000000e+00	2.05942917014e+01	-5.51927752832e+00
1.54000000000e+00	2.06257654355e+01	-5.59099207644e+00
1.55000000000e+00	2.06573187875e+01	-5.67563446004e+00
1.56000000000e+00	2.06889505768e+01	-5.77909802068e+00
1.57000000000e+00	2.07206596237e+01	-5.91263249217e+00
1.58000000000e+00	2.07524447489e+01	-6.10228411658e+00
1.59000000000e+00	2.07843047725e+01	-6.43728624149e+00
1.60000000000e+00	2.08162385130e+01	-7.28999314716e+00
1.61000000000e+00	2.08482447878e+01	-6.33772398763e+00
1.62000000000e+00	2.08803224130e+01	-6.06599999918e+00
1.63000000000e+00	2.09124702016e+01	-5.90321355594e+00
1.64000000000e+00	2.09446869643e+01	-5.78749377412e+00
1.65000000000e+00	2.09769715092e+01	-5.69820874380e+00
1.66000000000e+00	2.10093226412e+01	-5.62590337056e+00
1.67000000000e+00	2.10417391608e+01	-5.56544768573e+00
1.68000000000e+00	2.10742198660e+01	-5.51374402376e+00
1.69000000000e+00	2.11067635543e+01	-5.46877721805e+00
1.70000000000e+00	2.11393690119e+01	-5.42916207103e+00
1.71000000000e+00	2.11720350293e+01	-5.39390508737e+00
1.72000000000e+00	2.12047603886e+01	-5.36226919450e+00
1.73000000000e+00	2.12375438718e+01	-5.33369225732e+00
1.74000000000e+00	2.12703842554e+01	-5.30773559758e+00
1.75000000000e+00	2.13032803119e+01	-5.28405016425e+00
1.76000000000e+00	2.13362308140e+01	-5.26235355615e+00
1.77000000000e+00	2.13692345286e+01	-5.24241396969e+00
1.78000000000e+00	2.14022902236e+01	-5.22403870887e+00
1.79000000000e+00	2.14353966599e+01	-5.20706578477e+00
1.80000000000e+00	2.14685526002e+01	-5.19135765829e+00
1.81000000000e+00	2.15017568065e+01	-5.17679650158e+00
1.82000000000e+00	2.15350080379e+01	-5.16328055635e+00
1.83000000000e+00	2.15683050497e+01	-5.15072129764e+00
1.84000000000e+00	2.16016466045e+01	-5.13904119833e+00
1.85000000000e+00	2.16350314614e+01	-5.12817194787e+00
1.86000000000e+00	2.16684583776e+01	-5.11805301877e+00
1.87000000000e+00	2.17019261166e+01	-5.10863050246e+00
1.88000000000e+00	2.17354334378e+01	-5.09985615586e+00
1.89000000000e+00	2.17689791083e+01	-5.09168661460e+00
1.90000000000e+00	2.18025618971e+01	-5.08408273901e+00
1.91000000000e+00	2.18361805701e+01	-5.07700906697e+00
1.92000000000e+00	2.18698339050e+01	-5.07043335316e+00
1.93000000000e+00	2.19035206834e+01	-5.06432617902e+00
1.94000000000e+00	2.19372396803e+01	-5.05866062062e+00
1.95000000000e+00	2.19709896917e+01	-5.05341196450e+00
1.96000000000e+00	2.20047695078e+01	-5.04855746341e+00
1.97000000000e+00	2.20385779329e+01	-5.04407612526e+00
1.98000000000e+00	2.20724137699e+01	-5.03994853022e+00
1.99000000000e+00	2.21062758339e+01	-5.03615667136e+00
2.00000000000e+00	2.21401629485e+01	-5.03268381544e+00
2.01000000000e+00	2.21740739446e+01	-5.02951438074e+00
2.02000000000e+00	2.22080076587e+01	-5.02663382955e+00
2.03000000000e+00	2.22419629349e+01	-5.02402857325e+00
2.04000000000e+00	2.22759386318e+01	-5.02168588822e+00
2.05000000000e+00	2.23099336140e+01	-5.01959384110e+00
2.06000000000e+00	2.23439467607e+01	-5.01774122223e+00
2.07000000000e+00	2.23779769569e+01	-5.01611748621e+00
2.08000000000e+00	2.24120230909e+01	-5.01471269856e+00
2.09000000000e+00	2.24460840850e+01	-5.01351748794e+00
2.10000000000e+00	2.24801588462e+01	-5.01252300306e+00
2.11000000000e+00	2.25142463110e+01	-5.01172087381e+00
2.12000000000e+00	2.25483454178e+01	-5.01110317615e+00
2.13000000000e+00	2.25824551249e+01	-5.01066240023e+00
2.14000000000e+00	2.26165743914e+01	-5.01039142151e+00
2.15000000000e+00	2.26507021997e+01	-5.01028347438e+00
2.16000000000e+00	2.26848375406e+01	-5.01033212823e+00
2.17000000000e+00	2.27189794193e+01	-5.01053126544e+00
2.18000000000e+00	2.27531268478e+01	-5.01087506141e+00
2.19000000000e+00	2.27872788593e+01	-5.01135796605e+00
2.20000000000e+00	2.28214344964e+01	-5.01197468699e+00
2.21000000000e+00	2.28555928098e+01	-5.01272017395e+00
2.22000000000e+00	2.28897528738e+01	-5.01358960443e+00
2.23000000000e+00	2.29239137720e+01	-5.01457837050e+00
2.24000000000e+00	2.29580745904e+01	-5.01568206659e+00
2.25000000000e+00	2.29922344469e+01	-5.01689647810e+00
2.26000000000e+00	2.30263924622e+01	-5.01821757097e+00
2.27000000000e+00	2.30605477683e+01	-5.01964148192e+00
2.28000000000e+00	2.30946995183e+01	-5.02116450936e+00
2.29000000000e+00	2.31288468739e+01	-5.02278310499e+00
2.30000000000e+00	2.31629890107e+01	-5.02449386592e+00
2.31000000000e+00	2.31971251167e+01	-5.02629352732e+00
2.32000000000e+00	2.32312543963e+01	-5.02817895556e+00
2.33000000000e+00	2.32653760633e+01	-5.03014714183e+00
2.34000000000e+00	2.32994893576e+01	-5.03219519607e+00
2.35000000000e+00	2.33335935041e+01	-5.03432034135e+00
2.36000000000e+00	2.33676877700e+01	-5.03651990861e+00
2.37000000000e+00	2.34017714214e+01	-5.03879133164e+00
2.38000000000e+00	2.34358437364e+01	-5.04113214240e+00
2.39000000000e+00	2.34699040157e+01	-5.04353996666e+00
2.40000000000e+00	2.35039515615e+01	-5.04601251977e+00
2.41000000000e+00	2.35379856930e+01	-5.04854760282e+00
2.42000000000e+00	2.35720057470e+01	-5.05114309888e+00
2.43000000000e+00	2.36060110624e+01	-5.05379696952e+00
2.44000000000e+00	2.36400009990e+01	-5.05650725151e+00
2.45000000000e+00	2.36739749275e+01	-5.05927205365e+00
2.46000000000e+00	2.37079322250e+01	-5.06208955386e+00
2.47000000000e+00	2.37418722835e+01	-5.06495799631e+00
2.48000000000e+00	2.37757945166e+01	-5.06787568879e+00
2.49000000000e+00	2.38096983286e+01	-5.07084100013e+00
2.50000000000e+00	2.38435831516e+01	-5.07385235784e+00
2.51000000000e+00	2.38774484341e+01	-5.07690824578e+00
2.52000000000e+00	2.39112936106e+01	-5.08000720200e+00
2.53000000000e+00	2.39451181548e+01	-5.08314781666e+00
2.54000000000e+00	2.39789215335e+01	-5.08632873005e+00
2.55000000000e+00	2.40127032287e+01	-5.08954863070e+00
2.56000000000e+00	2.40464627411e+01	-5.09280625362e+00
2.57000000000e+00	2.40801995708e+01	-5.09610037851e+00
2.58000000000e+00	2.41139132322e+01	-5.09942982823e+00
2.59000000000e+00	2.41476032581e+01	-5.10279346714e+00
2.60000000000e+00	2.41812691701e+01	-5.10619019966e+00
