# kz [1/micrones]     Omega [THz]    |det|$\mu_c$ = 0.230 eV, $\eta$ = 0.85, modo = 1, R = 0.50$\mu$m, solve_det_conkz3.py
1.00000000000e-01	1.89820050779e+01	2.24843417623e-01
1.10000000000e-01	1.89850630057e+01	-3.37903810456e-02
1.20000000000e-01	1.89884066180e+01	-2.48684720481e-01
1.30000000000e-01	1.89920445280e+01	-4.33416497701e-01
1.40000000000e-01	1.89959819532e+01	-5.95922842194e-01
1.50000000000e-01	1.90002223617e+01	-7.41270717718e-01
1.60000000000e-01	1.90047682310e+01	-8.72906974730e-01
1.70000000000e-01	1.90096213432e+01	-9.93291917298e-01
1.80000000000e-01	1.90147830513e+01	-1.10424916876e+00
1.90000000000e-01	1.90202543621e+01	-1.20717211680e+00
2.00000000000e-01	1.90260359979e+01	-1.30315235106e+00
2.10000000000e-01	1.90321284889e+01	-1.39306310375e+00
2.20000000000e-01	1.90385321543e+01	-1.47761544916e+00
2.30000000000e-01	1.90452471870e+01	-1.55739732960e+00
2.40000000000e-01	1.90522736131e+01	-1.63290137493e+00
2.50000000000e-01	1.90596113587e+01	-1.70454518916e+00
2.60000000000e-01	1.90672602555e+01	-1.77268644055e+00
2.70000000000e-01	1.90752199328e+01	-1.83763428516e+00
2.80000000000e-01	1.90834900526e+01	-1.89965815011e+00
2.90000000000e-01	1.90920701232e+01	-1.95899458190e+00
3.00000000000e-01	1.91009595579e+01	-2.01585265329e+00
3.10000000000e-01	1.91101577246e+01	-2.07041828095e+00
3.20000000000e-01	1.91196639064e+01	-2.12285770916e+00
3.30000000000e-01	1.91294773071e+01	-2.17332034729e+00
3.40000000000e-01	1.91395970801e+01	-2.22194110111e+00
3.50000000000e-01	1.91500222992e+01	-2.26884230365e+00
3.60000000000e-01	1.91607519861e+01	-2.31413532633e+00
3.70000000000e-01	1.91717851041e+01	-2.35792193271e+00
3.80000000000e-01	1.91831205575e+01	-2.40029542315e+00
3.90000000000e-01	1.91947572074e+01	-2.44134160886e+00
4.00000000000e-01	1.92066938538e+01	-2.48113964521e+00
4.10000000000e-01	1.92189292500e+01	-2.51976274871e+00
4.20000000000e-01	1.92314621063e+01	-2.55727881693e+00
4.30000000000e-01	1.92442910854e+01	-2.59375096704e+00
4.40000000000e-01	1.92574148122e+01	-2.62923800600e+00
4.50000000000e-01	1.92708318629e+01	-2.66379484266e+00
4.60000000000e-01	1.92845407800e+01	-2.69747285052e+00
4.70000000000e-01	1.92985400691e+01	-2.73032018841e+00
4.80000000000e-01	1.93128281987e+01	-2.76238208492e+00
4.90000000000e-01	1.93274036023e+01	-2.79370109168e+00
5.00000000000e-01	1.93422646783e+01	-2.82431730967e+00
5.10000000000e-01	1.93574098027e+01	-2.85426859207e+00
5.20000000000e-01	1.93728373136e+01	-2.88359072676e+00
5.30000000000e-01	1.93885455238e+01	-2.91231760088e+00
5.40000000000e-01	1.94045327203e+01	-2.94048134984e+00
5.50000000000e-01	1.94207971692e+01	-2.96811249242e+00
5.60000000000e-01	1.94373371017e+01	-2.99524005384e+00
5.70000000000e-01	1.94541507382e+01	-3.02189167797e+00
5.80000000000e-01	1.94712362730e+01	-3.04809373007e+00
5.90000000000e-01	1.94885918839e+01	-3.07387139100e+00
6.00000000000e-01	1.95062157246e+01	-3.09924874388e+00
6.10000000000e-01	1.95241059379e+01	-3.12424885406e+00
6.20000000000e-01	1.95422606504e+01	-3.14889384296e+00
6.30000000000e-01	1.95606779704e+01	-3.17320495665e+00
6.40000000000e-01	1.95793559958e+01	-3.19720262949e+00
6.50000000000e-01	1.95982928152e+01	-3.22090654352e+00
6.60000000000e-01	1.96174865045e+01	-3.24433568394e+00
6.70000000000e-01	1.96369351246e+01	-3.26750839118e+00
6.80000000000e-01	1.96566367346e+01	-3.29044240980e+00
6.90000000000e-01	1.96765893864e+01	-3.31315493470e+00
7.00000000000e-01	1.96967911247e+01	-3.33566265489e+00
7.10000000000e-01	1.97172399837e+01	-3.35798179502e+00
7.20000000000e-01	1.97379339996e+01	-3.38012815515e+00
7.30000000000e-01	1.97588712026e+01	-3.40211714873e+00
7.40000000000e-01	1.97800496226e+01	-3.42396383933e+00
7.50000000000e-01	1.98014672875e+01	-3.44568297606e+00
7.60000000000e-01	1.98231222175e+01	-3.46728902813e+00
7.70000000000e-01	1.98450124451e+01	-3.48879621864e+00
7.80000000000e-01	1.98671359920e+01	-3.51021855784e+00
7.90000000000e-01	1.98894908933e+01	-3.53156987610e+00
8.00000000000e-01	1.99120751766e+01	-3.55286385678e+00
8.10000000000e-01	1.99348868745e+01	-3.57411406922e+00
8.20000000000e-01	1.99579240260e+01	-3.59533400214e+00
8.30000000000e-01	1.99811846709e+01	-3.61653709761e+00
8.40000000000e-01	2.00046668566e+01	-3.63773678591e+00
8.50000000000e-01	2.00283686335e+01	-3.65894652152e+00
8.60000000000e-01	2.00522880579e+01	-3.68017982063e+00
8.70000000000e-01	2.00764231931e+01	-3.70145030035e+00
8.80000000000e-01	2.01007721034e+01	-3.72277172016e+00
8.90000000000e-01	2.01253328625e+01	-3.74415802589e+00
9.00000000000e-01	2.01501035540e+01	-3.76562339672e+00
9.10000000000e-01	2.01750822643e+01	-3.78718229579e+00
9.20000000000e-01	2.02002670877e+01	-3.80884952486e+00
9.30000000000e-01	2.02256561207e+01	-3.83064028391e+00
9.40000000000e-01	2.02512474744e+01	-3.85257023623e+00
9.50000000000e-01	2.02770392645e+01	-3.87465558012e+00
9.60000000000e-01	2.03030296090e+01	-3.89691312804e+00
9.70000000000e-01	2.03292166348e+01	-3.91936039464e+00
9.80000000000e-01	2.03555984764e+01	-3.94201569495e+00
9.90000000000e-01	2.03821732753e+01	-3.96489825452e+00
1.00000000000e+00	2.04089391782e+01	-3.98802833348e+00
1.01000000000e+00	2.04358943357e+01	-4.01142736694e+00
1.02000000000e+00	2.04630369066e+01	-4.03511812467e+00
1.03000000000e+00	2.04903650513e+01	-4.05912489340e+00
1.04000000000e+00	2.05178769421e+01	-4.08347368610e+00
1.05000000000e+00	2.05455707440e+01	-4.10819248326e+00
1.06000000000e+00	2.05734446400e+01	-4.13331151252e+00
1.07000000000e+00	2.06014968072e+01	-4.15886357440e+00
1.08000000000e+00	2.06297254299e+01	-4.18488442380e+00
1.09000000000e+00	2.06581286931e+01	-4.21141321928e+00
1.10000000000e+00	2.06867047835e+01	-4.23849305544e+00
1.11000000000e+00	2.07154518963e+01	-4.26617159767e+00
1.12000000000e+00	2.07443682200e+01	-4.29450184416e+00
1.13000000000e+00	2.07734519469e+01	-4.32354304723e+00
1.14000000000e+00	2.08027012714e+01	-4.35336183594e+00
1.15000000000e+00	2.08321143875e+01	-4.38403359554e+00
1.16000000000e+00	2.08616894891e+01	-4.41564417774e+00
1.17000000000e+00	2.08914247663e+01	-4.44829204232e+00
1.18000000000e+00	2.09213184097e+01	-4.48209096765e+00
1.19000000000e+00	2.09513686141e+01	-4.51717352232e+00
1.20000000000e+00	2.09815735599e+01	-4.55369556968e+00
1.21000000000e+00	2.10119314419e+01	-4.59184219829e+00
1.22000000000e+00	2.10424404338e+01	-4.63183565692e+00
1.23000000000e+00	2.10730987208e+01	-4.67394616709e+00
1.24000000000e+00	2.11039044788e+01	-4.71850696460e+00
1.25000000000e+00	2.11348558801e+01	-4.76593572514e+00
1.26000000000e+00	2.11659510963e+01	-4.81676593045e+00
1.27000000000e+00	2.11971882920e+01	-4.87169428173e+00
1.28000000000e+00	2.12285656312e+01	-4.93165514807e+00
1.29000000000e+00	2.12600812712e+01	-4.99794295885e+00
1.30000000000e+00	2.12917333653e+01	-5.07242514640e+00
1.31000000000e+00	2.13235200658e+01	-5.15794022346e+00
1.32000000000e+00	2.13554395172e+01	-5.25911563859e+00
1.33000000000e+00	2.13874898632e+01	-5.38428240911e+00
1.34000000000e+00	2.14196692424e+01	-5.55092374063e+00
1.35000000000e+00	2.14519757887e+01	-5.80738794530e+00
1.36000000000e+00	2.14844076344e+01	-6.44021650546e+00
1.37000000000e+00	2.15169629070e+01	-6.11041206129e+00
1.38000000000e+00	2.15496397324e+01	-5.73069447952e+00
1.39000000000e+00	2.15824362333e+01	-5.53911913900e+00
1.40000000000e+00	2.16153505287e+01	-5.41231662925e+00
1.41000000000e+00	2.16483807379e+01	-5.31870721820e+00
1.42000000000e+00	2.16815249764e+01	-5.24533589068e+00
1.43000000000e+00	2.17147813610e+01	-5.18560722387e+00
1.44000000000e+00	2.17481480036e+01	-5.13570248258e+00
1.45000000000e+00	2.17816230219e+01	-5.09321104659e+00
1.46000000000e+00	2.18152045268e+01	-5.05651323389e+00
1.47000000000e+00	2.18488906358e+01	-5.02446810330e+00
1.48000000000e+00	2.18826794638e+01	-4.99624154818e+00
1.49000000000e+00	2.19165691317e+01	-4.97120523109e+00
1.50000000000e+00	2.19505577558e+01	-4.94887398037e+00
1.51000000000e+00	2.19846434613e+01	-4.92886531984e+00
1.52000000000e+00	2.20188243770e+01	-4.91087235882e+00
1.53000000000e+00	2.20530986312e+01	-4.89464507614e+00
1.54000000000e+00	2.20874643617e+01	-4.87997706057e+00
1.55000000000e+00	2.21219197050e+01	-4.86669590358e+00
1.56000000000e+00	2.21564628121e+01	-4.85465610011e+00
1.57000000000e+00	2.21910918364e+01	-4.84373371064e+00
1.58000000000e+00	2.22258049319e+01	-4.83382228486e+00
1.59000000000e+00	2.22606002737e+01	-4.82482970544e+00
1.60000000000e+00	2.22954760323e+01	-4.81667571336e+00
1.61000000000e+00	2.23304303941e+01	-4.80928994550e+00
1.62000000000e+00	2.23654615500e+01	-4.80261036247e+00
1.63000000000e+00	2.24005677095e+01	-4.79658197698e+00
1.64000000000e+00	2.24357470800e+01	-4.79115581646e+00
1.65000000000e+00	2.24709978882e+01	-4.78628806999e+00
1.66000000000e+00	2.25063183709e+01	-4.78193938160e+00
1.67000000000e+00	2.25417067742e+01	-4.77807426079e+00
1.68000000000e+00	2.25771613565e+01	-4.77466058775e+00
1.69000000000e+00	2.26126803938e+01	-4.77166919559e+00
1.70000000000e+00	2.26482621648e+01	-4.76907351557e+00
1.71000000000e+00	2.26839049760e+01	-4.76684927436e+00
1.72000000000e+00	2.27196071372e+01	-4.76497423441e+00
1.73000000000e+00	2.27553669738e+01	-4.76342797018e+00
1.74000000000e+00	2.27911828297e+01	-4.76219167463e+00
1.75000000000e+00	2.28270530585e+01	-4.76124799099e+00
1.76000000000e+00	2.28629760317e+01	-4.76058086610e+00
1.77000000000e+00	2.28989501423e+01	-4.76017542201e+00
1.78000000000e+00	2.29349737864e+01	-4.76001784314e+00
1.79000000000e+00	2.29710453821e+01	-4.76009527694e+00
1.80000000000e+00	2.30071633682e+01	-4.76039574594e+00
1.81000000000e+00	2.30433261917e+01	-4.76090806986e+00
1.82000000000e+00	2.30795323268e+01	-4.76162179628e+00
1.83000000000e+00	2.31157802532e+01	-4.76252713884e+00
1.84000000000e+00	2.31520684705e+01	-4.76361492198e+00
1.85000000000e+00	2.31883955011e+01	-4.76487653144e+00
1.86000000000e+00	2.32247598782e+01	-4.76630386971e+00
1.87000000000e+00	2.32611601596e+01	-4.76788931597e+00
1.88000000000e+00	2.32975949071e+01	-4.76962568995e+00
1.89000000000e+00	2.33340627115e+01	-4.77150621916e+00
1.90000000000e+00	2.33705621794e+01	-4.77352450925e+00
1.91000000000e+00	2.34070919311e+01	-4.77567451707e+00
1.92000000000e+00	2.34436506092e+01	-4.77795052617e+00
1.93000000000e+00	2.34802368632e+01	-4.78034712443e+00
1.94000000000e+00	2.35168493753e+01	-4.78285918369e+00
1.95000000000e+00	2.35534868386e+01	-4.78548184102e+00
1.96000000000e+00	2.35901479562e+01	-4.78821048165e+00
1.97000000000e+00	2.36268314611e+01	-4.79104072324e+00
1.98000000000e+00	2.36635360885e+01	-4.79396840146e+00
1.99000000000e+00	2.37002606093e+01	-4.79698955667e+00
2.00000000000e+00	2.37370038029e+01	-4.80010042166e+00
2.01000000000e+00	2.37737644593e+01	-4.80329741033e+00
2.02000000000e+00	2.38105413932e+01	-4.80657710724e+00
2.03000000000e+00	2.38473334357e+01	-4.80993625788e+00
2.04000000000e+00	2.38841394374e+01	-4.81337175967e+00
2.05000000000e+00	2.39209582524e+01	-4.81688065368e+00
2.06000000000e+00	2.39577887701e+01	-4.82046011679e+00
2.07000000000e+00	2.39946298833e+01	-4.82410745452e+00
2.08000000000e+00	2.40314805072e+01	-4.82782009429e+00
2.09000000000e+00	2.40683395735e+01	-4.83159557916e+00
2.10000000000e+00	2.41052060202e+01	-4.83543156194e+00
2.11000000000e+00	2.41420788220e+01	-4.83932579975e+00
2.12000000000e+00	2.41789569450e+01	-4.84327614888e+00
2.13000000000e+00	2.42158393959e+01	-4.84728056000e+00
2.14000000000e+00	2.42527251667e+01	-4.85133707365e+00
2.15000000000e+00	2.42896132937e+01	-4.85544381604e+00
2.16000000000e+00	2.43265028167e+01	-4.85959899509e+00
2.17000000000e+00	2.43633927907e+01	-4.86380089668e+00
2.18000000000e+00	2.44002822835e+01	-4.86804788116e+00
2.19000000000e+00	2.44371703856e+01	-4.87233838008e+00
2.20000000000e+00	2.44740561883e+01	-4.87667089306e+00
2.21000000000e+00	2.45109388191e+01	-4.88104398485e+00
2.22000000000e+00	2.45478173944e+01	-4.88545628259e+00
2.23000000000e+00	2.45846910624e+01	-4.88990647320e+00
2.24000000000e+00	2.46215589834e+01	-4.89439330092e+00
2.25000000000e+00	2.46584203294e+01	-4.89891556497e+00
2.26000000000e+00	2.46952742766e+01	-4.90347211735e+00
2.27000000000e+00	2.47321200323e+01	-4.90806186078e+00
2.28000000000e+00	2.47689568052e+01	-4.91268374670e+00
2.29000000000e+00	2.48057838244e+01	-4.91733677343e+00
2.30000000000e+00	2.48426003256e+01	-4.92201998437e+00
2.31000000000e+00	2.48794055583e+01	-4.92673246635e+00
2.32000000000e+00	2.49161987908e+01	-4.93147334803e+00
2.33000000000e+00	2.49529792991e+01	-4.93624179837e+00
2.34000000000e+00	2.49897463695e+01	-4.94103702526e+00
2.35000000000e+00	2.50264993077e+01	-4.94585827408e+00
2.36000000000e+00	2.50632374285e+01	-4.95070482647e+00
2.37000000000e+00	2.50999600491e+01	-4.95557599908e+00
2.38000000000e+00	2.51366665181e+01	-4.96047114241e+00
2.39000000000e+00	2.51733561766e+01	-4.96538963971e+00
2.40000000000e+00	2.52100283915e+01	-4.97033090591e+00
2.41000000000e+00	2.52466825363e+01	-4.97529438665e+00
2.42000000000e+00	2.52833179814e+01	-4.98027955730e+00
2.43000000000e+00	2.53199341361e+01	-4.98528592209e+00
2.44000000000e+00	2.53565303973e+01	-4.99031301322e+00
2.45000000000e+00	2.53931061883e+01	-4.99536039007e+00
2.46000000000e+00	2.54296609233e+01	-5.00042763843e+00
2.47000000000e+00	2.54661940504e+01	-5.00551436974e+00
2.48000000000e+00	2.55027050135e+01	-5.01062022040e+00
2.49000000000e+00	2.55391932720e+01	-5.01574485114e+00
2.50000000000e+00	2.55756582869e+01	-5.02088794633e+00
2.51000000000e+00	2.56120995400e+01	-5.02604921343e+00
2.52000000000e+00	2.56485165195e+01	-5.03122838244e+00
2.53000000000e+00	2.56849087181e+01	-5.03642520528e+00
2.54000000000e+00	2.57212756415e+01	-5.04163945539e+00
2.55000000000e+00	2.57576168118e+01	-5.04687092716e+00
2.56000000000e+00	2.57939317379e+01	-5.05211943552e+00
2.57000000000e+00	2.58302199665e+01	-5.05738481552e+00
2.58000000000e+00	2.58664810374e+01	-5.06266692189e+00
2.59000000000e+00	2.59027144938e+01	-5.06796562868e+00
2.60000000000e+00	2.59389198998e+01	-5.07328082890e+00
