# kz [1/micrones]     Omega [THz]    |det|$\mu_c$ = 0.890 eV, $\eta$ = 0.85, modo = 1, R = 0.50$\mu$m, solve_det_conkz3.py
2.50000000000e-01	3.71264279083e+01	-7.00872189391e-01
2.60000000000e-01	3.71419882395e+01	-7.88276573065e-01
2.70000000000e-01	3.71581579519e+01	-8.70383007892e-01
2.80000000000e-01	3.71749383962e+01	-9.47836901602e-01
2.90000000000e-01	3.71923304417e+01	-1.02116743818e+00
3.00000000000e-01	3.72103344247e+01	-1.09081439461e+00
3.10000000000e-01	3.72289503079e+01	-1.15714759886e+00
3.20000000000e-01	3.72481777341e+01	-1.22048133193e+00
3.30000000000e-01	3.72680160895e+01	-1.28108517676e+00
3.40000000000e-01	3.72884644703e+01	-1.33919231953e+00
3.50000000000e-01	3.73095218091e+01	-1.39500599155e+00
3.60000000000e-01	3.73311868225e+01	-1.44870453184e+00
3.70000000000e-01	3.73534580223e+01	-1.50044541170e+00
3.80000000000e-01	3.73763338060e+01	-1.55036846780e+00
3.90000000000e-01	3.73998124318e+01	-1.59859852427e+00
4.00000000000e-01	3.74238919485e+01	-1.64524753808e+00
4.10000000000e-01	3.74485703470e+01	-1.69041636866e+00
4.20000000000e-01	3.74738454932e+01	-1.73419624845e+00
4.30000000000e-01	3.74997151096e+01	-1.77667001345e+00
4.40000000000e-01	3.75261768558e+01	-1.81791313965e+00
4.50000000000e-01	3.75532281762e+01	-1.85799462116e+00
4.60000000000e-01	3.75808665649e+01	-1.89697771840e+00
4.70000000000e-01	3.76090894048e+01	-1.93492059907e+00
4.80000000000e-01	3.76378937943e+01	-1.97187688975e+00
4.90000000000e-01	3.76672771065e+01	-2.00789615308e+00
5.00000000000e-01	3.76972362388e+01	-2.04302430219e+00
5.10000000000e-01	3.77277683289e+01	-2.07730396213e+00
5.20000000000e-01	3.77588702536e+01	-2.11077478649e+00
5.30000000000e-01	3.77905388674e+01	-2.14347373555e+00
5.40000000000e-01	3.78227709750e+01	-2.17543532173e+00
5.50000000000e-01	3.78555632980e+01	-2.20669182679e+00
5.60000000000e-01	3.78889124756e+01	-2.23727349466e+00
5.70000000000e-01	3.79228151487e+01	-2.26720870320e+00
5.80000000000e-01	3.79572678221e+01	-2.29652411760e+00
5.90000000000e-01	3.79922669950e+01	-2.32524482783e+00
6.00000000000e-01	3.80278090907e+01	-2.35339447206e+00
6.10000000000e-01	3.80638904768e+01	-2.38099534778e+00
6.20000000000e-01	3.81005074907e+01	-2.40806851215e+00
6.30000000000e-01	3.81376563906e+01	-2.43463387280e+00
6.40000000000e-01	3.81753334073e+01	-2.46071027013e+00
6.50000000000e-01	3.82135347334e+01	-2.48631555219e+00
6.60000000000e-01	3.82522564979e+01	-2.51146664283e+00
6.70000000000e-01	3.82914948020e+01	-2.53617960393e+00
6.80000000000e-01	3.83312457025e+01	-2.56046969231e+00
6.90000000000e-01	3.83715052146e+01	-2.58435141186e+00
7.00000000000e-01	3.84122693182e+01	-2.60783856141e+00
7.10000000000e-01	3.84535339741e+01	-2.63094427878e+00
7.20000000000e-01	3.84952950892e+01	-2.65368108125e+00
7.30000000000e-01	3.85375485488e+01	-2.67606090307e+00
7.40000000000e-01	3.85802902048e+01	-2.69809512995e+00
7.50000000000e-01	3.86235158845e+01	-2.71979463111e+00
7.60000000000e-01	3.86672213825e+01	-2.74116978891e+00
7.70000000000e-01	3.87114024721e+01	-2.76223052643e+00
7.80000000000e-01	3.87560549076e+01	-2.78298633302e+00
7.90000000000e-01	3.88011744093e+01	-2.80344628813e+00
8.00000000000e-01	3.88467566904e+01	-2.82361908352e+00
8.10000000000e-01	3.88927974272e+01	-2.84351304399e+00
8.20000000000e-01	3.89392922929e+01	-2.86313614669e+00
8.30000000000e-01	3.89862369409e+01	-2.88249603924e+00
8.40000000000e-01	3.90336269935e+01	-2.90160005669e+00
8.50000000000e-01	3.90814580880e+01	-2.92045523738e+00
8.60000000000e-01	3.91297258194e+01	-2.93906833783e+00
8.70000000000e-01	3.91784257842e+01	-2.95744584677e+00
8.80000000000e-01	3.92275535717e+01	-2.97559399824e+00
8.90000000000e-01	3.92771047563e+01	-2.99351878402e+00
9.00000000000e-01	3.93270749029e+01	-3.01122596522e+00
9.10000000000e-01	3.93774595710e+01	-3.02872108331e+00
9.20000000000e-01	3.94282543217e+01	-3.04600947045e+00
9.30000000000e-01	3.94794546913e+01	-3.06309625926e+00
9.40000000000e-01	3.95310562369e+01	-3.07998639207e+00
9.50000000000e-01	3.95830544960e+01	-3.09668462963e+00
9.60000000000e-01	3.96354450103e+01	-3.11319555935e+00
9.70000000000e-01	3.96882233230e+01	-3.12952360313e+00
9.80000000000e-01	3.97413849677e+01	-3.14567302477e+00
9.90000000000e-01	3.97949254962e+01	-3.16164793691e+00
1.00000000000e+00	3.98488404474e+01	-3.17745230777e+00
1.01000000000e+00	3.99031253662e+01	-3.19308996735e+00
1.02000000000e+00	3.99577758092e+01	-3.20856461348e+00
1.03000000000e+00	4.00127873391e+01	-3.22387981749e+00
1.04000000000e+00	4.00681555051e+01	-3.23903902956e+00
1.05000000000e+00	4.01238758865e+01	-3.25404558388e+00
1.06000000000e+00	4.01799440633e+01	-3.26890270354e+00
1.07000000000e+00	4.02363556122e+01	-3.28361350511e+00
1.08000000000e+00	4.02931061346e+01	-3.29818100310e+00
1.09000000000e+00	4.03501912361e+01	-3.31260811415e+00
1.10000000000e+00	4.04076065284e+01	-3.32689766100e+00
1.11000000000e+00	4.04653476478e+01	-3.34105237632e+00
1.12000000000e+00	4.05234102273e+01	-3.35507490634e+00
1.13000000000e+00	4.05817899206e+01	-3.36896781430e+00
1.14000000000e+00	4.06404824000e+01	-3.38273358375e+00
1.15000000000e+00	4.06994833391e+01	-3.39637462170e+00
1.16000000000e+00	4.07587884401e+01	-3.40989326160e+00
1.17000000000e+00	4.08183934148e+01	-3.42329176624e+00
1.18000000000e+00	4.08782939869e+01	-3.43657233044e+00
1.19000000000e+00	4.09384859074e+01	-3.44973708370e+00
1.20000000000e+00	4.09989649345e+01	-3.46278809265e+00
1.21000000000e+00	4.10597268459e+01	-3.47572736347e+00
1.22000000000e+00	4.11207674451e+01	-3.48855684413e+00
1.23000000000e+00	4.11820825464e+01	-3.50127842659e+00
1.24000000000e+00	4.12436679945e+01	-3.51389394885e+00
1.25000000000e+00	4.13055196395e+01	-3.52640519697e+00
1.26000000000e+00	4.13676333659e+01	-3.53881390694e+00
1.27000000000e+00	4.14300050644e+01	-3.55112176648e+00
1.28000000000e+00	4.14926306647e+01	-3.56333041684e+00
1.29000000000e+00	4.15555061056e+01	-3.57544145438e+00
1.30000000000e+00	4.16186273527e+01	-3.58745643223e+00
1.31000000000e+00	4.16819903877e+01	-3.59937686178e+00
1.32000000000e+00	4.17455912269e+01	-3.61120421411e+00
1.33000000000e+00	4.18094259087e+01	-3.62293992144e+00
1.34000000000e+00	4.18734904808e+01	-3.63458537841e+00
1.35000000000e+00	4.19377810340e+01	-3.64614194340e+00
1.36000000000e+00	4.20022936696e+01	-3.65761093972e+00
1.37000000000e+00	4.20670245193e+01	-3.66899365682e+00
1.38000000000e+00	4.21319697437e+01	-3.68029135135e+00
1.39000000000e+00	4.21971255244e+01	-3.69150524829e+00
1.40000000000e+00	4.22624880686e+01	-3.70263654199e+00
1.41000000000e+00	4.23280536060e+01	-3.71368639707e+00
1.42000000000e+00	4.23938184044e+01	-3.72465594947e+00
1.43000000000e+00	4.24597787390e+01	-3.73554630728e+00
1.44000000000e+00	4.25259309316e+01	-3.74635855165e+00
1.45000000000e+00	4.25922713239e+01	-3.75709373761e+00
1.46000000000e+00	4.26587962776e+01	-3.76775289483e+00
1.47000000000e+00	4.27255021894e+01	-3.77833702846e+00
1.48000000000e+00	4.27923854784e+01	-3.78884711979e+00
1.49000000000e+00	4.28594426031e+01	-3.79928412698e+00
1.50000000000e+00	4.29266700340e+01	-3.80964898573e+00
1.51000000000e+00	4.29940642734e+01	-3.81994260993e+00
1.52000000000e+00	4.30616218687e+01	-3.83016589226e+00
1.53000000000e+00	4.31293393673e+01	-3.84031970479e+00
1.54000000000e+00	4.31972133694e+01	-3.85040489955e+00
1.55000000000e+00	4.32652404923e+01	-3.86042230906e+00
1.56000000000e+00	4.33334173794e+01	-3.87037274686e+00
1.57000000000e+00	4.34017407122e+01	-3.88025700801e+00
1.58000000000e+00	4.34702071869e+01	-3.89007586954e+00
1.59000000000e+00	4.35388135565e+01	-3.89983009094e+00
1.60000000000e+00	4.36075565657e+01	-3.90952041457e+00
1.61000000000e+00	4.36764330144e+01	-3.91914756608e+00
1.62000000000e+00	4.37454397252e+01	-3.92871225483e+00
1.63000000000e+00	4.38145735459e+01	-3.93821517426e+00
1.64000000000e+00	4.38838313556e+01	-3.94765700222e+00
1.65000000000e+00	4.39532100668e+01	-3.95703840137e+00
1.66000000000e+00	4.40227066180e+01	-3.96636001950e+00
1.67000000000e+00	4.40923179741e+01	-3.97562248982e+00
1.68000000000e+00	4.41620411309e+01	-3.98482643129e+00
1.69000000000e+00	4.42318731140e+01	-3.99397244891e+00
1.70000000000e+00	4.43018109785e+01	-4.00306113396e+00
1.71000000000e+00	4.43718518125e+01	-4.01209306431e+00
1.72000000000e+00	4.44419927319e+01	-4.02106880465e+00
1.73000000000e+00	4.45122308698e+01	-4.02998890671e+00
1.74000000000e+00	4.45825634107e+01	-4.03885390952e+00
1.75000000000e+00	4.46529875496e+01	-4.04766433961e+00
1.76000000000e+00	4.47235005211e+01	-4.05642071120e+00
1.77000000000e+00	4.47940995731e+01	-4.06512352642e+00
1.78000000000e+00	4.48647820089e+01	-4.07377327547e+00
1.79000000000e+00	4.49355451405e+01	-4.08237043683e+00
1.80000000000e+00	4.50063863117e+01	-4.09091547738e+00
1.81000000000e+00	4.50773029042e+01	-4.09940885260e+00
1.82000000000e+00	4.51482923187e+01	-4.10785100671e+00
1.83000000000e+00	4.52193519943e+01	-4.11624237278e+00
1.84000000000e+00	4.52904793862e+01	-4.12458337293e+00
1.85000000000e+00	4.53616719935e+01	-4.13287441838e+00
1.86000000000e+00	4.54329273307e+01	-4.14111590965e+00
1.87000000000e+00	4.55042429395e+01	-4.14930823663e+00
1.88000000000e+00	4.55756164071e+01	-4.15745177871e+00
1.89000000000e+00	4.56470453361e+01	-4.16554690488e+00
1.90000000000e+00	4.57185273588e+01	-4.17359397388e+00
1.91000000000e+00	4.57900601387e+01	-4.18159333423e+00
1.92000000000e+00	4.58616413602e+01	-4.18954532440e+00
1.93000000000e+00	4.59332687373e+01	-4.19745027288e+00
1.94000000000e+00	4.60049400343e+01	-4.20530849828e+00
1.95000000000e+00	4.60766530077e+01	-4.21312030948e+00
1.96000000000e+00	4.61484054663e+01	-4.22088600566e+00
1.97000000000e+00	4.62201952380e+01	-4.22860587649e+00
1.98000000000e+00	4.62920201834e+01	-4.23628020221e+00
1.99000000000e+00	4.63638781836e+01	-4.24390925374e+00
2.00000000000e+00	4.64357671471e+01	-4.25149329286e+00
2.01000000000e+00	4.65076850225e+01	-4.25903257233e+00
2.02000000000e+00	4.65796297708e+01	-4.26652733604e+00
2.03000000000e+00	4.66515993839e+01	-4.27397781918e+00
2.04000000000e+00	4.67235918958e+01	-4.28138424849e+00
2.05000000000e+00	4.67956053454e+01	-4.28874684238e+00
2.06000000000e+00	4.68676378067e+01	-4.29606581126e+00
2.07000000000e+00	4.69396873880e+01	-4.30334135774e+00
2.08000000000e+00	4.70117522220e+01	-4.31057367695e+00
2.09000000000e+00	4.70838304637e+01	-4.31776295687e+00
2.10000000000e+00	4.71559202904e+01	-4.32490937870e+00
2.11000000000e+00	4.72280199227e+01	-4.33201311725e+00
2.12000000000e+00	4.73001275975e+01	-4.33907434145e+00
2.13000000000e+00	4.73722415741e+01	-4.34609321479e+00
2.14000000000e+00	4.74443601437e+01	-4.35306989598e+00
2.15000000000e+00	4.75164816373e+01	-4.36000453951e+00
2.16000000000e+00	4.75886043896e+01	-4.36689729641e+00
2.17000000000e+00	4.76607267776e+01	-4.37374831503e+00
2.18000000000e+00	4.77328471996e+01	-4.38055774190e+00
2.19000000000e+00	4.78049640754e+01	-4.38732572272e+00
2.20000000000e+00	4.78770758725e+01	-4.39405240341e+00
2.21000000000e+00	4.79491810561e+01	-4.40073793132e+00
2.22000000000e+00	4.80212781351e+01	-4.40738245648e+00
2.23000000000e+00	4.80933656596e+01	-4.41398613309e+00
2.24000000000e+00	4.81654421694e+01	-4.42054912102e+00
2.25000000000e+00	4.82375062667e+01	-4.42707158756e+00
2.26000000000e+00	4.83095565608e+01	-4.43355370924e+00
2.27000000000e+00	4.83815916892e+01	-4.43999567389e+00
2.28000000000e+00	4.84536103294e+01	-4.44639768276e+00
2.29000000000e+00	4.85256111693e+01	-4.45275995295e+00
2.30000000000e+00	4.85975929333e+01	-4.45908271989e+00
2.31000000000e+00	4.86695543731e+01	-4.46536624006e+00
2.32000000000e+00	4.87414942686e+01	-4.47161079393e+00
2.33000000000e+00	4.88134114156e+01	-4.47781668898e+00
2.34000000000e+00	4.88853046413e+01	-4.48398426297e+00
2.35000000000e+00	4.89571728031e+01	-4.49011388738e+00
2.36000000000e+00	4.90290147904e+01	-4.49620597099e+00
2.37000000000e+00	4.91008295052e+01	-4.50226096356e+00
2.38000000000e+00	4.91726158764e+01	-4.50827935966e+00
2.39000000000e+00	4.92443728541e+01	-4.51426170262e+00
2.40000000000e+00	4.93160994304e+01	-4.52020858847e+00
2.41000000000e+00	4.93877946097e+01	-4.52612066992e+00
2.42000000000e+00	4.94594574161e+01	-4.53199866024e+00
2.43000000000e+00	4.95310868863e+01	-4.53784333715e+00
2.44000000000e+00	4.96026821057e+01	-4.54365554636e+00
2.45000000000e+00	4.96742421456e+01	-4.54943620502e+00
2.46000000000e+00	4.97457661173e+01	-4.55518630470e+00
2.47000000000e+00	4.98172531501e+01	-4.56090691398e+00
2.48000000000e+00	4.98887023650e+01	-4.56659918051e+00
2.49000000000e+00	4.99601129239e+01	-4.57226433230e+00
2.50000000000e+00	5.00314839746e+01	-4.57790367837e+00
2.51000000000e+00	5.01028146970e+01	-4.58351860838e+00
2.52000000000e+00	5.01741042562e+01	-4.58911059132e+00
2.53000000000e+00	5.02453518278e+01	-4.59468117297e+00
2.54000000000e+00	5.03165565885e+01	-4.60023197223e+00
2.55000000000e+00	5.03877177179e+01	-4.60576467598e+00
2.56000000000e+00	5.04588343939e+01	-4.61128103263e+00
2.57000000000e+00	5.05299057727e+01	-4.61678284410e+00
2.58000000000e+00	5.06009310127e+01	-4.62227195637e+00
2.59000000000e+00	5.06719092592e+01	-4.62775024847e+00
2.60000000000e+00	5.07428396377e+01	-4.63321962004e+00
2.61000000000e+00	5.08137212774e+01	-4.63868197755e+00
2.62000000000e+00	5.08845532542e+01	-4.64413921923e+00
2.63000000000e+00	5.09553346607e+01	-4.64959321898e+00
2.64000000000e+00	5.10260645398e+01	-4.65504580939e+00
2.65000000000e+00	5.10967419363e+01	-4.66049876431e+00
2.66000000000e+00	5.11673658724e+01	-4.66595378098e+00
2.67000000000e+00	5.12379353431e+01	-4.67141246241e+00
2.68000000000e+00	5.13084493159e+01	-4.67687630007e+00
2.69000000000e+00	5.13789067616e+01	-4.68234665745e+00
2.70000000000e+00	5.14493066303e+01	-4.68782475483e+00
2.71000000000e+00	5.15196478526e+01	-4.69331165550e+00
2.72000000000e+00	5.15899293666e+01	-4.69880825401e+00
2.73000000000e+00	5.16601500995e+01	-4.70431526645e+00
2.74000000000e+00	5.17303089713e+01	-4.70983322328e+00
2.75000000000e+00	5.18004049125e+01	-4.71536246470e+00
