# kz [1/micrones]     Omega [THz]    |det|$\mu_c$ = 0.350 eV, $\eta$ = 0.80, modo = 1, R = 0.50$\mu$m, solve_det_conkz3.py
1.00000000000e-01	2.33088807007e+01	1.03599067309e+00
1.10000000000e-01	2.33129716711e+01	6.67927247407e-01
1.20000000000e-01	2.33173429086e+01	3.89733046364e-01
1.30000000000e-01	2.33220476403e+01	1.63714374615e-01
1.40000000000e-01	2.33271094324e+01	-2.78994867233e-02
1.50000000000e-01	2.33325409432e+01	-1.94948897115e-01
1.60000000000e-01	2.33383498541e+01	-3.43477221356e-01
1.70000000000e-01	2.33445412614e+01	-4.77475986364e-01
1.80000000000e-01	2.33511186608e+01	-5.99728025986e-01
1.90000000000e-01	2.33580845946e+01	-7.12256386884e-01
2.00000000000e-01	2.33654409294e+01	-8.16581632610e-01
2.10000000000e-01	2.33731890017e+01	-9.13878153210e-01
2.20000000000e-01	2.33813298203e+01	-1.00507370071e+00
2.30000000000e-01	2.33898640659e+01	-1.09091529122e+00
2.40000000000e-01	2.33987921959e+01	-1.17201429438e+00
2.50000000000e-01	2.34081144352e+01	-1.24887816015e+00
2.60000000000e-01	2.34178308697e+01	-1.32193329032e+00
2.70000000000e-01	2.34279413967e+01	-1.39154187877e+00
2.80000000000e-01	2.34384457712e+01	-1.45801454378e+00
2.90000000000e-01	2.34493436578e+01	-1.52161996170e+00
3.00000000000e-01	2.34606346173e+01	-1.58259232279e+00
3.10000000000e-01	2.34723179961e+01	-1.64113717852e+00
3.20000000000e-01	2.34843931064e+01	-1.69743608247e+00
3.30000000000e-01	2.34968592498e+01	-1.75165031394e+00
3.40000000000e-01	2.35097155551e+01	-1.80392389512e+00
3.50000000000e-01	2.35229610476e+01	-1.85438605813e+00
3.60000000000e-01	2.35365947216e+01	-1.90315327900e+00
3.70000000000e-01	2.35506154725e+01	-1.95033096747e+00
3.80000000000e-01	2.35650221234e+01	-1.99601488078e+00
3.90000000000e-01	2.35798134292e+01	-2.04029231433e+00
4.00000000000e-01	2.35949880984e+01	-2.08324311052e+00
4.10000000000e-01	2.36105447457e+01	-2.12494051840e+00
4.20000000000e-01	2.36264819355e+01	-2.16545193009e+00
4.30000000000e-01	2.36427981847e+01	-2.20483951476e+00
4.40000000000e-01	2.36594919295e+01	-2.24316076699e+00
4.50000000000e-01	2.36765615615e+01	-2.28046898315e+00
4.60000000000e-01	2.36940054237e+01	-2.31681367692e+00
4.70000000000e-01	2.37118217956e+01	-2.35224094327e+00
4.80000000000e-01	2.37300089089e+01	-2.38679377829e+00
4.90000000000e-01	2.37485649553e+01	-2.42051236142e+00
5.00000000000e-01	2.37674880655e+01	-2.45343430517e+00
5.10000000000e-01	2.37867763323e+01	-2.48559487685e+00
5.20000000000e-01	2.38064278036e+01	-2.51702719610e+00
5.30000000000e-01	2.38264404700e+01	-2.54776241121e+00
5.40000000000e-01	2.38468123025e+01	-2.57782985717e+00
5.50000000000e-01	2.38675412129e+01	-2.60725719753e+00
5.60000000000e-01	2.38886250836e+01	-2.63607055213e+00
5.70000000000e-01	2.39100617519e+01	-2.66429461245e+00
5.80000000000e-01	2.39318490230e+01	-2.69195274590e+00
5.90000000000e-01	2.39539846646e+01	-2.71906709041e+00
6.00000000000e-01	2.39764664049e+01	-2.74565864047e+00
6.10000000000e-01	2.39992919417e+01	-2.77174732536e+00
6.20000000000e-01	2.40224589488e+01	-2.79735208067e+00
6.30000000000e-01	2.40459650530e+01	-2.82249091363e+00
6.40000000000e-01	2.40698078602e+01	-2.84718096298e+00
6.50000000000e-01	2.40939849440e+01	-2.87143855396e+00
6.60000000000e-01	2.41184938537e+01	-2.89527924886e+00
6.70000000000e-01	2.41433321069e+01	-2.91871789355e+00
6.80000000000e-01	2.41684971946e+01	-2.94176866047e+00
6.90000000000e-01	2.41939865828e+01	-2.96444508837e+00
7.00000000000e-01	2.42197977174e+01	-2.98676011907e+00
7.10000000000e-01	2.42459280191e+01	-3.00872613154e+00
7.20000000000e-01	2.42723748884e+01	-3.03035497360e+00
7.30000000000e-01	2.42991356961e+01	-3.05165799135e+00
7.40000000000e-01	2.43262078037e+01	-3.07264605661e+00
7.50000000000e-01	2.43535885464e+01	-3.09332959248e+00
7.60000000000e-01	2.43812752412e+01	-3.11371859726e+00
7.70000000000e-01	2.44092651963e+01	-3.13382266680e+00
7.80000000000e-01	2.44375556915e+01	-3.15365101538e+00
7.90000000000e-01	2.44661439952e+01	-3.17321249534e+00
8.00000000000e-01	2.44950273662e+01	-3.19251561550e+00
8.10000000000e-01	2.45242030485e+01	-3.21156855847e+00
8.20000000000e-01	2.45536682582e+01	-3.23037919687e+00
8.30000000000e-01	2.45834202236e+01	-3.24895510871e+00
8.40000000000e-01	2.46134561448e+01	-3.26730359184e+00
8.50000000000e-01	2.46437732147e+01	-3.28543167754e+00
8.60000000000e-01	2.46743686238e+01	-3.30334614348e+00
8.70000000000e-01	2.47052395427e+01	-3.32105352584e+00
8.80000000000e-01	2.47363831412e+01	-3.33856013090e+00
8.90000000000e-01	2.47677965824e+01	-3.35587204595e+00
9.00000000000e-01	2.47994770192e+01	-3.37299514968e+00
9.10000000000e-01	2.48314216011e+01	-3.38993512198e+00
9.20000000000e-01	2.48636274734e+01	-3.40669745336e+00
9.30000000000e-01	2.48960917750e+01	-3.42328745381e+00
9.40000000000e-01	2.49288116435e+01	-3.43971026127e+00
9.50000000000e-01	2.49617842132e+01	-3.45597084973e+00
9.60000000000e-01	2.49950066135e+01	-3.47207403688e+00
9.70000000000e-01	2.50284759772e+01	-3.48802449149e+00
9.80000000000e-01	2.50621894370e+01	-3.50382674044e+00
9.90000000000e-01	2.50961441195e+01	-3.51948517538e+00
1.00000000000e+00	2.51303371598e+01	-3.53500405918e+00
1.01000000000e+00	2.51647656834e+01	-3.55038753209e+00
1.02000000000e+00	2.51994268275e+01	-3.56563961758e+00
1.03000000000e+00	2.52343177306e+01	-3.58076422805e+00
1.04000000000e+00	2.52694355294e+01	-3.59576517024e+00
1.05000000000e+00	2.53047773689e+01	-3.61064615044e+00
1.06000000000e+00	2.53403403942e+01	-3.62541077949e+00
1.07000000000e+00	2.53761217623e+01	-3.64006257766e+00
1.08000000000e+00	2.54121186249e+01	-3.65460497927e+00
1.09000000000e+00	2.54483281503e+01	-3.66904133721e+00
1.10000000000e+00	2.54847475033e+01	-3.68337492725e+00
1.11000000000e+00	2.55213738670e+01	-3.69760895227e+00
1.12000000000e+00	2.55582044158e+01	-3.71174654631e+00
1.13000000000e+00	2.55952363448e+01	-3.72579077851e+00
1.14000000000e+00	2.56324668520e+01	-3.73974465690e+00
1.15000000000e+00	2.56698931516e+01	-3.75361113218e+00
1.16000000000e+00	2.57075124518e+01	-3.76739310125e+00
1.17000000000e+00	2.57453219865e+01	-3.78109341079e+00
1.18000000000e+00	2.57833189839e+01	-3.79471486067e+00
1.19000000000e+00	2.58215006975e+01	-3.80826020726e+00
1.20000000000e+00	2.58598643776e+01	-3.82173216678e+00
1.21000000000e+00	2.58984072940e+01	-3.83513341845e+00
1.22000000000e+00	2.59371267251e+01	-3.84846660768e+00
1.23000000000e+00	2.59760199627e+01	-3.86173434914e+00
1.24000000000e+00	2.60150843039e+01	-3.87493922985e+00
1.25000000000e+00	2.60543170608e+01	-3.88808381212e+00
1.26000000000e+00	2.60937155693e+01	-3.90117063663e+00
1.27000000000e+00	2.61332771533e+01	-3.91420222526e+00
1.28000000000e+00	2.61729991773e+01	-3.92718108411e+00
1.29000000000e+00	2.62128789923e+01	-3.94010970636e+00
1.30000000000e+00	2.62529139837e+01	-3.95299057515e+00
1.31000000000e+00	2.62931015426e+01	-3.96582616653e+00
1.32000000000e+00	2.63334390692e+01	-3.97861895229e+00
1.33000000000e+00	2.63739239787e+01	-3.99137140291e+00
1.34000000000e+00	2.64145537070e+01	-4.00408599042e+00
1.35000000000e+00	2.64553256983e+01	-4.01676519139e+00
1.36000000000e+00	2.64962374137e+01	-4.02941148988e+00
1.37000000000e+00	2.65372863194e+01	-4.04202738038e+00
1.38000000000e+00	2.65784699124e+01	-4.05461537094e+00
1.39000000000e+00	2.66197856930e+01	-4.06717798617e+00
1.40000000000e+00	2.66612311709e+01	-4.07971777043e+00
1.41000000000e+00	2.67028038861e+01	-4.09223729103e+00
1.42000000000e+00	2.67445013772e+01	-4.10473914147e+00
1.43000000000e+00	2.67863212137e+01	-4.11722594486e+00
1.44000000000e+00	2.68282609566e+01	-4.12970035733e+00
1.45000000000e+00	2.68703182100e+01	-4.14216507157e+00
1.46000000000e+00	2.69124905660e+01	-4.15462282051e+00
1.47000000000e+00	2.69547756504e+01	-4.16707638111e+00
1.48000000000e+00	2.69971710887e+01	-4.17952857823e+00
1.49000000000e+00	2.70396745370e+01	-4.19198228874e+00
1.50000000000e+00	2.70822836495e+01	-4.20444044570e+00
1.51000000000e+00	2.71249961034e+01	-4.21690604276e+00
1.52000000000e+00	2.71678095918e+01	-4.22938213873e+00
1.53000000000e+00	2.72107218083e+01	-4.24187186240e+00
1.54000000000e+00	2.72537304803e+01	-4.25437841746e+00
1.55000000000e+00	2.72968333358e+01	-4.26690508785e+00
1.56000000000e+00	2.73400281189e+01	-4.27945524315e+00
1.57000000000e+00	2.73833125867e+01	-4.29203234448e+00
1.58000000000e+00	2.74266845125e+01	-4.30463995052e+00
1.59000000000e+00	2.74701416789e+01	-4.31728172396e+00
1.60000000000e+00	2.75136818810e+01	-4.32996143833e+00
1.61000000000e+00	2.75573029269e+01	-4.34268298514e+00
1.62000000000e+00	2.76010026436e+01	-4.35545038155e+00
1.63000000000e+00	2.76447788616e+01	-4.36826777843e+00
1.64000000000e+00	2.76886294245e+01	-4.38113946895e+00
1.65000000000e+00	2.77325521909e+01	-4.39406989781e+00
1.66000000000e+00	2.77765450301e+01	-4.40706367090e+00
1.67000000000e+00	2.78206058153e+01	-4.42012556583e+00
1.68000000000e+00	2.78647324454e+01	-4.43326054301e+00
1.69000000000e+00	2.79089228171e+01	-4.44647375766e+00
1.70000000000e+00	2.79531748326e+01	-4.45977057262e+00
1.71000000000e+00	2.79974864201e+01	-4.47315657211e+00
1.72000000000e+00	2.80418555046e+01	-4.48663757661e+00
1.73000000000e+00	2.80862800318e+01	-4.50021965888e+00
1.74000000000e+00	2.81307579354e+01	-4.51390916121e+00
1.75000000000e+00	2.81752871758e+01	-4.52771271418e+00
1.76000000000e+00	2.82198657240e+01	-4.54163725693e+00
1.77000000000e+00	2.82644915423e+01	-4.55569005924e+00
1.78000000000e+00	2.83091626116e+01	-4.56987874548e+00
1.79000000000e+00	2.83538769174e+01	-4.58421132084e+00
1.80000000000e+00	2.83986324476e+01	-4.59869619983e+00
1.81000000000e+00	2.84434272107e+01	-4.61334223770e+00
1.82000000000e+00	2.84882592039e+01	-4.62815876470e+00
1.83000000000e+00	2.85331264376e+01	-4.64315562397e+00
1.84000000000e+00	2.85780269327e+01	-4.65834321311e+00
1.85000000000e+00	2.86229587116e+01	-4.67373253031e+00
1.86000000000e+00	2.86679197932e+01	-4.68933522531e+00
1.87000000000e+00	2.87129082171e+01	-4.70516365612e+00
1.88000000000e+00	2.87579220246e+01	-4.72123095208e+00
1.89000000000e+00	2.88029592467e+01	-4.73755108439e+00
1.90000000000e+00	2.88480179359e+01	-4.75413894510e+00
1.91000000000e+00	2.88930961474e+01	-4.77101043580e+00
1.92000000000e+00	2.89381919313e+01	-4.78818256768e+00
1.93000000000e+00	2.89833033491e+01	-4.80567357462e+00
1.94000000000e+00	2.90284284752e+01	-4.82350304160e+00
1.95000000000e+00	2.90735653702e+01	-4.84169205089e+00
1.96000000000e+00	2.91187121188e+01	-4.86026334928e+00
1.97000000000e+00	2.91638667999e+01	-4.87924153999e+00
1.98000000000e+00	2.92090275062e+01	-4.89865330392e+00
1.99000000000e+00	2.92541923352e+01	-4.91852765592e+00
2.00000000000e+00	2.92993593876e+01	-4.93889624281e+00
2.01000000000e+00	2.93445267747e+01	-4.95979369193e+00
2.02000000000e+00	2.93896926201e+01	-4.98125802081e+00
2.03000000000e+00	2.94348550536e+01	-5.00333112136e+00
2.04000000000e+00	2.94800122150e+01	-5.02605933568e+00
2.05000000000e+00	2.95251622648e+01	-5.04949414507e+00
2.06000000000e+00	2.95703033630e+01	-5.07369300034e+00
2.07000000000e+00	2.96154336944e+01	-5.09872032965e+00
2.08000000000e+00	2.96605514559e+01	-5.12464877169e+00
2.09000000000e+00	2.97056548636e+01	-5.15156069762e+00
2.10000000000e+00	2.97507421529e+01	-5.17955010707e+00
2.11000000000e+00	2.97958115782e+01	-5.20872501436e+00
2.12000000000e+00	2.98408614163e+01	-5.23921048562e+00
2.13000000000e+00	2.98858899767e+01	-5.27115255231e+00
2.14000000000e+00	2.99308955831e+01	-5.30472332357e+00
2.15000000000e+00	2.99758766027e+01	-5.34012776706e+00
2.16000000000e+00	3.00208314249e+01	-5.37761285796e+00
2.17000000000e+00	3.00657584757e+01	-5.41748016384e+00
2.18000000000e+00	3.01106562153e+01	-5.46010354051e+00
2.19000000000e+00	3.01555231495e+01	-5.50595465184e+00
2.20000000000e+00	3.02003578199e+01	-5.55564087135e+00
2.21000000000e+00	3.02451588142e+01	-5.60996355658e+00
2.22000000000e+00	3.02899247657e+01	-5.67001143792e+00
2.23000000000e+00	3.03346543597e+01	-5.73731803676e+00
2.24000000000e+00	3.03793463298e+01	-5.81414428986e+00
2.25000000000e+00	3.04239994696e+01	-5.90402890095e+00
2.26000000000e+00	3.04686126241e+01	-6.01298354002e+00
2.27000000000e+00	3.05131847015e+01	-6.15252584266e+00
2.28000000000e+00	3.05577146690e+01	-6.34952185795e+00
2.29000000000e+00	3.06022015614e+01	-6.69778548098e+00
2.30000000000e+00	3.06466444775e+01	-7.44302508532e+00
2.31000000000e+00	3.06910425847e+01	-6.58063825150e+00
2.32000000000e+00	3.07353951189e+01	-6.31946410104e+00
2.33000000000e+00	3.07797013912e+01	-6.16379360378e+00
2.34000000000e+00	3.08239607807e+01	-6.05431450590e+00
2.35000000000e+00	3.08681727452e+01	-5.97097078563e+00
2.36000000000e+00	3.09123368124e+01	-5.90451528634e+00
2.37000000000e+00	3.09564525905e+01	-5.84991576731e+00
2.38000000000e+00	3.10005197571e+01	-5.80412984384e+00
2.39000000000e+00	3.10445380743e+01	-5.76517847369e+00
2.40000000000e+00	3.10885073709e+01	-5.73170294870e+00
2.41000000000e+00	3.11324275555e+01	-5.70273103397e+00
2.42000000000e+00	3.11762986142e+01	-5.67754392985e+00
2.43000000000e+00	3.12201205970e+01	-5.65559601818e+00
2.44000000000e+00	3.12638936330e+01	-5.63646410496e+00
2.45000000000e+00	3.13076179232e+01	-5.61981404229e+00
2.46000000000e+00	3.13512937308e+01	-5.60537805066e+00
2.47000000000e+00	3.13949213823e+01	-5.59293887871e+00
2.48000000000e+00	3.14385012790e+01	-5.58231847339e+00
2.49000000000e+00	3.14820338716e+01	-5.57336970958e+00
2.50000000000e+00	3.15255196754e+01	-5.56597024581e+00
2.51000000000e+00	3.15689592562e+01	-5.56001789058e+00
2.52000000000e+00	3.16123532333e+01	-5.55542706318e+00
2.53000000000e+00	3.16557022693e+01	-5.55212606235e+00
2.54000000000e+00	3.16990070719e+01	-5.55005494167e+00
2.55000000000e+00	3.17422683913e+01	-5.54916384839e+00
2.56000000000e+00	3.17854870112e+01	-5.54941172238e+00
2.57000000000e+00	3.18286637450e+01	-5.55076528009e+00
2.58000000000e+00	3.18717994327e+01	-5.55319822840e+00
2.59000000000e+00	3.19148949406e+01	-5.55669066834e+00
2.60000000000e+00	3.19579511478e+01	-5.56122865951e+00
