# kz [1/micrones]     Omega [THz]    |det|$\mu_c$ = 0.700 eV, $\eta$ = 0.00, modo = 1, R = 0.50$\mu$m, solve_det_conkz3.py
2.50000000000e-01	3.30557443415e+01	-4.91244198932e-01
2.60000000000e-01	3.30694684093e+01	-5.75010176820e-01
2.70000000000e-01	3.30837351895e+01	-6.54284594936e-01
2.80000000000e-01	3.30985455154e+01	-7.29567013514e-01
2.90000000000e-01	3.31138998064e+01	-8.01274506669e-01
3.00000000000e-01	3.31297979997e+01	-8.69759202285e-01
3.10000000000e-01	3.31462399446e+01	-9.35321357750e-01
3.20000000000e-01	3.31632251203e+01	-9.98219273911e-01
3.30000000000e-01	3.31807527996e+01	-1.05867692616e+00
3.40000000000e-01	3.31988220589e+01	-1.11688991855e+00
3.50000000000e-01	3.32174318943e+01	-1.17303018673e+00
3.60000000000e-01	3.32365809684e+01	-1.22724975426e+00
3.70000000000e-01	3.32562680023e+01	-1.27968376332e+00
3.80000000000e-01	3.32764914010e+01	-1.33045294295e+00
3.90000000000e-01	3.32972496043e+01	-1.37966563631e+00
4.00000000000e-01	3.33185408505e+01	-1.42741947897e+00
4.10000000000e-01	3.33403632903e+01	-1.47380279846e+00
4.20000000000e-01	3.33627149063e+01	-1.51889578919e+00
4.30000000000e-01	3.33855937788e+01	-1.56277150517e+00
4.40000000000e-01	3.34089977787e+01	-1.60549670347e+00
4.50000000000e-01	3.34329245145e+01	-1.64713256504e+00
4.60000000000e-01	3.34573718207e+01	-1.68773531363e+00
4.70000000000e-01	3.34823372916e+01	-1.72735675005e+00
4.80000000000e-01	3.35078184460e+01	-1.76604471513e+00
4.90000000000e-01	3.35338127756e+01	-1.80384349283e+00
5.00000000000e-01	3.35603176663e+01	-1.84079416259e+00
5.10000000000e-01	3.35873304541e+01	-1.87693490838e+00
5.20000000000e-01	3.36148484062e+01	-1.91230129088e+00
5.30000000000e-01	3.36428687348e+01	-1.94692648789e+00
5.40000000000e-01	3.36713885854e+01	-1.98084150745e+00
5.50000000000e-01	3.37004050453e+01	-2.01407537730e+00
5.60000000000e-01	3.37299151491e+01	-2.04665531373e+00
5.70000000000e-01	3.37599158843e+01	-2.07860687264e+00
5.80000000000e-01	3.37904041731e+01	-2.10995408490e+00
5.90000000000e-01	3.38213768936e+01	-2.14071957800e+00
6.00000000000e-01	3.38528308867e+01	-2.17092468560e+00
6.10000000000e-01	3.38847629314e+01	-2.20058954652e+00
6.20000000000e-01	3.39171697815e+01	-2.22973319423e+00
6.30000000000e-01	3.39500481232e+01	-2.25837363805e+00
6.40000000000e-01	3.39833946267e+01	-2.28652793687e+00
6.50000000000e-01	3.40172059066e+01	-2.31421226634e+00
6.60000000000e-01	3.40514785488e+01	-2.34144198008e+00
6.70000000000e-01	3.40862090943e+01	-2.36823166562e+00
6.80000000000e-01	3.41213940577e+01	-2.39459519564e+00
6.90000000000e-01	3.41570299163e+01	-2.42054577486e+00
7.00000000000e-01	3.41931131215e+01	-2.44609598316e+00
7.10000000000e-01	3.42296400815e+01	-2.47125781523e+00
7.20000000000e-01	3.42666071865e+01	-2.49604271705e+00
7.30000000000e-01	3.43040108032e+01	-2.52046161952e+00
7.40000000000e-01	3.43418472549e+01	-2.54452496962e+00
7.50000000000e-01	3.43801128557e+01	-2.56824275907e+00
7.60000000000e-01	3.44188038879e+01	-2.59162455100e+00
7.70000000000e-01	3.44579166163e+01	-2.61467950461e+00
7.80000000000e-01	3.44974472862e+01	-2.63741639804e+00
7.90000000000e-01	3.45373921047e+01	-2.65984364971e+00
8.00000000000e-01	3.45777472880e+01	-2.68196933806e+00
8.10000000000e-01	3.46185090163e+01	-2.70380122001e+00
8.20000000000e-01	3.46596734557e+01	-2.72534674816e+00
8.30000000000e-01	3.47012367688e+01	-2.74661308680e+00
8.40000000000e-01	3.47431950870e+01	-2.76760712691e+00
8.50000000000e-01	3.47855445386e+01	-2.78833550017e+00
8.60000000000e-01	3.48282812398e+01	-2.80880459209e+00
8.70000000000e-01	3.48714012919e+01	-2.82902055426e+00
8.80000000000e-01	3.49149007936e+01	-2.84898931590e+00
8.90000000000e-01	3.49587758297e+01	-2.86871659462e+00
9.00000000000e-01	3.50030224714e+01	-2.88820790665e+00
9.10000000000e-01	3.50476367939e+01	-2.90746857631e+00
9.20000000000e-01	3.50926148656e+01	-2.92650374501e+00
9.30000000000e-01	3.51379527436e+01	-2.94531837971e+00
9.40000000000e-01	3.51836464870e+01	-2.96391728089e+00
9.50000000000e-01	3.52296921455e+01	-2.98230509001e+00
9.60000000000e-01	3.52760857794e+01	-3.00048629666e+00
9.70000000000e-01	3.53228234298e+01	-3.01846524517e+00
9.80000000000e-01	3.53699011571e+01	-3.03624614101e+00
9.90000000000e-01	3.54173150014e+01	-3.05383305669e+00
1.00000000000e+00	3.54650610223e+01	-3.07122993745e+00
1.01000000000e+00	3.55131352767e+01	-3.08844060662e+00
1.02000000000e+00	3.55615338267e+01	-3.10546877066e+00
1.03000000000e+00	3.56102527234e+01	-3.12231802395e+00
1.04000000000e+00	3.56592880472e+01	-3.13899185340e+00
1.05000000000e+00	3.57086358541e+01	-3.15549364272e+00
1.06000000000e+00	3.57582922406e+01	-3.17182667654e+00
1.07000000000e+00	3.58082532857e+01	-3.18799414433e+00
1.08000000000e+00	3.58585150832e+01	-3.20399914405e+00
1.09000000000e+00	3.59090737298e+01	-3.21984468575e+00
1.10000000000e+00	3.59599253466e+01	-3.23553369484e+00
1.11000000000e+00	3.60110660481e+01	-3.25106901535e+00
1.12000000000e+00	3.60624919645e+01	-3.26645341293e+00
1.13000000000e+00	3.61141992415e+01	-3.28168957777e+00
1.14000000000e+00	3.61661840333e+01	-3.29678012732e+00
1.15000000000e+00	3.62184425049e+01	-3.31172760899e+00
1.16000000000e+00	3.62709708307e+01	-3.32653450259e+00
1.17000000000e+00	3.63237652100e+01	-3.34120322278e+00
1.18000000000e+00	3.63768218484e+01	-3.35573612134e+00
1.19000000000e+00	3.64301369626e+01	-3.37013548937e+00
1.20000000000e+00	3.64837067946e+01	-3.38440355937e+00
1.21000000000e+00	3.65375275866e+01	-3.39854250725e+00
1.22000000000e+00	3.65915956102e+01	-3.41255445423e+00
1.23000000000e+00	3.66459071456e+01	-3.42644146869e+00
1.24000000000e+00	3.67004585067e+01	-3.44020556792e+00
1.25000000000e+00	3.67552459992e+01	-3.45384871978e+00
1.26000000000e+00	3.68102659591e+01	-3.46737284433e+00
1.27000000000e+00	3.68655147436e+01	-3.48077981538e+00
1.28000000000e+00	3.69209887253e+01	-3.49407146194e+00
1.29000000000e+00	3.69766843027e+01	-3.50724956965e+00
1.30000000000e+00	3.70325978753e+01	-3.52031588216e+00
1.31000000000e+00	3.70887258856e+01	-3.53327210242e+00
1.32000000000e+00	3.71450647716e+01	-3.54611989390e+00
1.33000000000e+00	3.72016110179e+01	-3.55886088188e+00
1.34000000000e+00	3.72583611092e+01	-3.57149665452e+00
1.35000000000e+00	3.73153115721e+01	-3.58402876403e+00
1.36000000000e+00	3.73724589278e+01	-3.59645872769e+00
1.37000000000e+00	3.74297997370e+01	-3.60878802892e+00
1.38000000000e+00	3.74873305849e+01	-3.62101811827e+00
1.39000000000e+00	3.75450480728e+01	-3.63315041432e+00
1.40000000000e+00	3.76029488193e+01	-3.64518630467e+00
1.41000000000e+00	3.76610294728e+01	-3.65712714674e+00
1.42000000000e+00	3.77192867172e+01	-3.66897426869e+00
1.43000000000e+00	3.77777172288e+01	-3.68072897020e+00
1.44000000000e+00	3.78363177351e+01	-3.69239252327e+00
1.45000000000e+00	3.78950849712e+01	-3.70396617297e+00
1.46000000000e+00	3.79540157081e+01	-3.71545113818e+00
1.47000000000e+00	3.80131067328e+01	-3.72684861228e+00
1.48000000000e+00	3.80723548596e+01	-3.73815976385e+00
1.49000000000e+00	3.81317569210e+01	-3.74938573735e+00
1.50000000000e+00	3.81913097949e+01	-3.76052765367e+00
1.51000000000e+00	3.82510103525e+01	-3.77158661083e+00
1.52000000000e+00	3.83108555174e+01	-3.78256368451e+00
1.53000000000e+00	3.83708422189e+01	-3.79345992868e+00
1.54000000000e+00	3.84309674250e+01	-3.80427637607e+00
1.55000000000e+00	3.84912281198e+01	-3.81501403877e+00
1.56000000000e+00	3.85516213265e+01	-3.82567390871e+00
1.57000000000e+00	3.86121440761e+01	-3.83625695817e+00
1.58000000000e+00	3.86727934309e+01	-3.84676414024e+00
1.59000000000e+00	3.87335664911e+01	-3.85719638930e+00
1.60000000000e+00	3.87944603675e+01	-3.86755462147e+00
1.61000000000e+00	3.88554721977e+01	-3.87783973503e+00
1.62000000000e+00	3.89165991538e+01	-3.88805261085e+00
1.63000000000e+00	3.89778384210e+01	-3.89819411276e+00
1.64000000000e+00	3.90391872370e+01	-3.90826508802e+00
1.65000000000e+00	3.91006428241e+01	-3.91826636761e+00
1.66000000000e+00	3.91622024819e+01	-3.92819876664e+00
1.67000000000e+00	3.92238634792e+01	-3.93806308472e+00
1.68000000000e+00	3.92856231529e+01	-3.94786010625e+00
1.69000000000e+00	3.93474788554e+01	-3.95759060081e+00
1.70000000000e+00	3.94094279514e+01	-3.96725532344e+00
1.71000000000e+00	3.94714678497e+01	-3.97685501498e+00
1.72000000000e+00	3.95335959795e+01	-3.98639040234e+00
1.73000000000e+00	3.95958097828e+01	-3.99586219882e+00
1.74000000000e+00	3.96581067536e+01	-4.00527110437e+00
1.75000000000e+00	3.97204843755e+01	-4.01461780587e+00
1.76000000000e+00	3.97829402096e+01	-4.02390297740e+00
1.77000000000e+00	3.98454717859e+01	-4.03312728051e+00
1.78000000000e+00	3.99080767039e+01	-4.04229136442e+00
1.79000000000e+00	3.99707525531e+01	-4.05139586629e+00
1.80000000000e+00	4.00334969865e+01	-4.06044141148e+00
1.81000000000e+00	4.00963076496e+01	-4.06942861371e+00
1.82000000000e+00	4.01591822350e+01	-4.07835807534e+00
1.83000000000e+00	4.02221184494e+01	-4.08723038752e+00
1.84000000000e+00	4.02851140319e+01	-4.09604613046e+00
1.85000000000e+00	4.03481667403e+01	-4.10480587357e+00
1.86000000000e+00	4.04112743580e+01	-4.11351017567e+00
1.87000000000e+00	4.04744347040e+01	-4.12215958519e+00
1.88000000000e+00	4.05376456050e+01	-4.13075464032e+00
1.89000000000e+00	4.06009049265e+01	-4.13929586920e+00
1.90000000000e+00	4.06642105558e+01	-4.14778379010e+00
1.91000000000e+00	4.07275604010e+01	-4.15621891153e+00
1.92000000000e+00	4.07909523981e+01	-4.16460173245e+00
1.93000000000e+00	4.08543845079e+01	-4.17293274240e+00
1.94000000000e+00	4.09178547131e+01	-4.18121242162e+00
1.95000000000e+00	4.09813610202e+01	-4.18944124124e+00
1.96000000000e+00	4.10449014667e+01	-4.19761966337e+00
1.97000000000e+00	4.11084741057e+01	-4.20574814125e+00
1.98000000000e+00	4.11720770120e+01	-4.21382711938e+00
1.99000000000e+00	4.12357083038e+01	-4.22185703361e+00
2.00000000000e+00	4.12993660992e+01	-4.22983831129e+00
2.01000000000e+00	4.13630485522e+01	-4.23777137139e+00
2.02000000000e+00	4.14267538321e+01	-4.24565662455e+00
2.03000000000e+00	4.14904801480e+01	-4.25349447325e+00
2.04000000000e+00	4.15542257102e+01	-4.26128531186e+00
2.05000000000e+00	4.16179887700e+01	-4.26902952676e+00
2.06000000000e+00	4.16817675912e+01	-4.27672749642e+00
2.07000000000e+00	4.17455604563e+01	-4.28437959150e+00
2.08000000000e+00	4.18093656944e+01	-4.29198617491e+00
2.09000000000e+00	4.18731816281e+01	-4.29954760191e+00
2.10000000000e+00	4.19370066114e+01	-4.30706422018e+00
2.11000000000e+00	4.20008390413e+01	-4.31453636988e+00
2.12000000000e+00	4.20646772919e+01	-4.32196438373e+00
2.13000000000e+00	4.21285198053e+01	-4.32934858709e+00
2.14000000000e+00	4.21923650235e+01	-4.33668929798e+00
2.15000000000e+00	4.22562114075e+01	-4.34398682716e+00
2.16000000000e+00	4.23200574473e+01	-4.35124147819e+00
2.17000000000e+00	4.23839016457e+01	-4.35845354750e+00
2.18000000000e+00	4.24477425454e+01	-4.36562332436e+00
2.19000000000e+00	4.25115786831e+01	-4.37275109102e+00
2.20000000000e+00	4.25754086329e+01	-4.37983712269e+00
2.21000000000e+00	4.26392309965e+01	-4.38688168759e+00
2.22000000000e+00	4.27030443693e+01	-4.39388504701e+00
2.23000000000e+00	4.27668473986e+01	-4.40084745530e+00
2.24000000000e+00	4.28306387307e+01	-4.40776915993e+00
2.25000000000e+00	4.28944170357e+01	-4.41465040149e+00
2.26000000000e+00	4.29581810023e+01	-4.42149141375e+00
2.27000000000e+00	4.30219293578e+01	-4.42829242364e+00
2.28000000000e+00	4.30856608172e+01	-4.43505365129e+00
2.29000000000e+00	4.31493741403e+01	-4.44177531004e+00
2.30000000000e+00	4.32130680935e+01	-4.44845760642e+00
2.31000000000e+00	4.32767414648e+01	-4.45510074023e+00
2.32000000000e+00	4.33403930625e+01	-4.46170490447e+00
2.33000000000e+00	4.34040217129e+01	-4.46827028538e+00
2.34000000000e+00	4.34676262593e+01	-4.47479706244e+00
2.35000000000e+00	4.35312055761e+01	-4.48128540836e+00
2.36000000000e+00	4.35947585226e+01	-4.48773548907e+00
2.37000000000e+00	4.36582840200e+01	-4.49414746374e+00
2.38000000000e+00	4.37217809753e+01	-4.50052148473e+00
2.39000000000e+00	4.37852483205e+01	-4.50685769759e+00
2.40000000000e+00	4.38486850156e+01	-4.51315624109e+00
2.41000000000e+00	4.39120900266e+01	-4.51941724715e+00
2.42000000000e+00	4.39754623412e+01	-4.52564084082e+00
2.43000000000e+00	4.40388009652e+01	-4.53182714032e+00
2.44000000000e+00	4.41021049254e+01	-4.53797625696e+00
2.45000000000e+00	4.41653732550e+01	-4.54408829513e+00
2.46000000000e+00	4.42286050049e+01	-4.55016335229e+00
2.47000000000e+00	4.42917992562e+01	-4.55620151894e+00
2.48000000000e+00	4.43549550937e+01	-4.56220287858e+00
2.49000000000e+00	4.44180716299e+01	-4.56816750770e+00
2.50000000000e+00	4.44811479635e+01	-4.57409547575e+00
2.51000000000e+00	4.45441832596e+01	-4.57998684507e+00
2.52000000000e+00	4.46071766596e+01	-4.58584167093e+00
2.53000000000e+00	4.46701273224e+01	-4.59166000144e+00
2.54000000000e+00	4.47330344476e+01	-4.59744187756e+00
2.55000000000e+00	4.47958972267e+01	-4.60318733305e+00
2.56000000000e+00	4.48587148790e+01	-4.60889639445e+00
2.57000000000e+00	4.49214866393e+01	-4.61456908104e+00
2.58000000000e+00	4.49842117476e+01	-4.62020540483e+00
2.59000000000e+00	4.50468894755e+01	-4.62580537055e+00
2.60000000000e+00	4.51095190883e+01	-4.63136897558e+00
2.61000000000e+00	4.51720998789e+01	-4.63689621000e+00
2.62000000000e+00	4.52346311655e+01	-4.64238705651e+00
2.63000000000e+00	4.52971122598e+01	-4.64784149047e+00
2.64000000000e+00	4.53595425048e+01	-4.65325947986e+00
2.65000000000e+00	4.54219212395e+01	-4.65864098530e+00
2.66000000000e+00	4.54842478460e+01	-4.66398596005e+00
2.67000000000e+00	4.55465216932e+01	-4.66929435003e+00
2.68000000000e+00	4.56087421720e+01	-4.67456609382e+00
2.69000000000e+00	4.56709087009e+01	-4.67980112272e+00
2.70000000000e+00	4.57330207004e+01	-4.68499936076e+00
2.71000000000e+00	4.57950776031e+01	-4.69016072477e+00
2.72000000000e+00	4.58570788681e+01	-4.69528512443e+00
2.73000000000e+00	4.59190239572e+01	-4.70037246235e+00
2.74000000000e+00	4.59809123482e+01	-4.70542263416e+00
2.75000000000e+00	4.60427435436e+01	-4.71043552862e+00
