# kz [1/micrones]     Omega [THz]    |det|$\mu_c$ = 0.900 eV, $\eta$ = 0.98, modo = 1, R = 0.50$\mu$m, solve_det_conkz3.py
2.00000000000e-01	3.72504703780e+01	-1.92757974859e-01
2.10000000000e-01	3.72631260896e+01	-3.24817410967e-01
2.20000000000e-01	3.72763691715e+01	-4.44239598564e-01
2.30000000000e-01	3.72902088924e+01	-5.53409101262e-01
2.40000000000e-01	3.73046516716e+01	-6.54073487622e-01
2.50000000000e-01	3.73197020951e+01	-7.47553637002e-01
2.60000000000e-01	3.73353632974e+01	-8.34873646153e-01
2.70000000000e-01	3.73516374533e+01	-9.16844638862e-01
2.80000000000e-01	3.73685259931e+01	-9.94120830707e-01
2.90000000000e-01	3.73860297970e+01	-1.06723820217e+00
3.00000000000e-01	3.74041492078e+01	-1.13664188686e+00
3.10000000000e-01	3.74228841658e+01	-1.20270601620e+00
3.20000000000e-01	3.74422343771e+01	-1.26574838937e+00
3.30000000000e-01	3.74621991639e+01	-1.32604151161e+00
3.40000000000e-01	3.74827776686e+01	-1.38382103198e+00
3.50000000000e-01	3.75039688125e+01	-1.43929228504e+00
3.60000000000e-01	3.75257712421e+01	-1.49263542770e+00
3.70000000000e-01	3.75481835499e+01	-1.54400951955e+00
3.80000000000e-01	3.75712040767e+01	-1.59355579853e+00
3.90000000000e-01	3.75948310233e+01	-1.64140033579e+00
4.00000000000e-01	3.76190625484e+01	-1.68765620658e+00
4.10000000000e-01	3.76438965210e+01	-1.73242527993e+00
4.20000000000e-01	3.76693308380e+01	-1.77579970507e+00
4.30000000000e-01	3.76953631986e+01	-1.81786315482e+00
4.40000000000e-01	3.77219911759e+01	-1.85869187220e+00
4.50000000000e-01	3.77492123369e+01	-1.89835555701e+00
4.60000000000e-01	3.77770240490e+01	-1.93691812087e+00
4.70000000000e-01	3.78054236955e+01	-1.97443833386e+00
4.80000000000e-01	3.78344084486e+01	-2.01097038096e+00
4.90000000000e-01	3.78639754421e+01	-2.04656434320e+00
5.00000000000e-01	3.78941217591e+01	-2.08126661548e+00
5.10000000000e-01	3.79248445445e+01	-2.11512027101e+00
5.20000000000e-01	3.79561403770e+01	-2.14816538039e+00
5.30000000000e-01	3.79880063220e+01	-2.18043929204e+00
5.40000000000e-01	3.80204390704e+01	-2.21197687960e+00
5.50000000000e-01	3.80534354168e+01	-2.24281076084e+00
5.60000000000e-01	3.80869919020e+01	-2.27297149209e+00
5.70000000000e-01	3.81211051312e+01	-2.30248774143e+00
5.80000000000e-01	3.81557716353e+01	-2.33138644334e+00
5.90000000000e-01	3.81909878479e+01	-2.35969293740e+00
6.00000000000e-01	3.82267501970e+01	-2.38743109271e+00
6.10000000000e-01	3.82630549922e+01	-2.41462342017e+00
6.20000000000e-01	3.82998985720e+01	-2.44129117366e+00
6.30000000000e-01	3.83372771598e+01	-2.46745444181e+00
6.40000000000e-01	3.83751869673e+01	-2.49313223111e+00
6.50000000000e-01	3.84136241457e+01	-2.51834254162e+00
6.60000000000e-01	3.84525848063e+01	-2.54310243586e+00
6.70000000000e-01	3.84920650288e+01	-2.56742810176e+00
6.80000000000e-01	3.85320608305e+01	-2.59133491027e+00
6.90000000000e-01	3.85725682111e+01	-2.61483746814e+00
7.00000000000e-01	3.86135831342e+01	-2.63794966641e+00
7.10000000000e-01	3.86551015020e+01	-2.66068472506e+00
7.20000000000e-01	3.86971192240e+01	-2.68305523408e+00
7.30000000000e-01	3.87396321364e+01	-2.70507319146e+00
7.40000000000e-01	3.87826360810e+01	-2.72675003828e+00
7.50000000000e-01	3.88261268460e+01	-2.74809669122e+00
7.60000000000e-01	3.88701002062e+01	-2.76912357268e+00
7.70000000000e-01	3.89145519087e+01	-2.78984063879e+00
7.80000000000e-01	3.89594776755e+01	-2.81025740545e+00
7.90000000000e-01	3.90048731998e+01	-2.83038297252e+00
8.00000000000e-01	3.90507341673e+01	-2.85022604649e+00
8.10000000000e-01	3.90970562284e+01	-2.86979496152e+00
8.20000000000e-01	3.91438350292e+01	-2.88909769919e+00
8.30000000000e-01	3.91910661919e+01	-2.90814190690e+00
8.40000000000e-01	3.92387453189e+01	-2.92693491520e+00
8.50000000000e-01	3.92868680115e+01	-2.94548375394e+00
8.60000000000e-01	3.93354298371e+01	-2.96379516748e+00
8.70000000000e-01	3.93844263760e+01	-2.98187562897e+00
8.80000000000e-01	3.94338531758e+01	-2.99973135379e+00
8.90000000000e-01	3.94837057957e+01	-3.01736831211e+00
9.00000000000e-01	3.95339797687e+01	-3.03479224088e+00
9.10000000000e-01	3.95846706292e+01	-3.05200865495e+00
9.20000000000e-01	3.96357738989e+01	-3.06902285770e+00
9.30000000000e-01	3.96872851074e+01	-3.08583995099e+00
9.40000000000e-01	3.97391997695e+01	-3.10246484460e+00
9.50000000000e-01	3.97915134056e+01	-3.11890226512e+00
9.60000000000e-01	3.98442215222e+01	-3.13515676440e+00
9.70000000000e-01	3.98973196397e+01	-3.15123272749e+00
9.80000000000e-01	3.99508032705e+01	-3.16713438023e+00
9.90000000000e-01	4.00046679286e+01	-3.18286579637e+00
1.00000000000e+00	4.00589091376e+01	-3.19843090435e+00
1.01000000000e+00	4.01135224066e+01	-3.21383349375e+00
1.02000000000e+00	4.01685032774e+01	-3.22907722137e+00
1.03000000000e+00	4.02238472734e+01	-3.24416561705e+00
1.04000000000e+00	4.02795499277e+01	-3.25910208913e+00
1.05000000000e+00	4.03356067949e+01	-3.27388992970e+00
1.06000000000e+00	4.03920134212e+01	-3.28853231956e+00
1.07000000000e+00	4.04487653676e+01	-3.30303233297e+00
1.08000000000e+00	4.05058582038e+01	-3.31739294210e+00
1.09000000000e+00	4.05632875118e+01	-3.33161702131e+00
1.10000000000e+00	4.06210488826e+01	-3.34570735126e+00
1.11000000000e+00	4.06791379191e+01	-3.35966662276e+00
1.12000000000e+00	4.07375502340e+01	-3.37349744045e+00
1.13000000000e+00	4.07962814609e+01	-3.38720232632e+00
1.14000000000e+00	4.08553272418e+01	-3.40078372310e+00
1.15000000000e+00	4.09146832295e+01	-3.41424399741e+00
1.16000000000e+00	4.09743451014e+01	-3.42758544283e+00
1.17000000000e+00	4.10343085425e+01	-3.44081028281e+00
1.18000000000e+00	4.10945692602e+01	-3.45392067343e+00
1.19000000000e+00	4.11551229726e+01	-3.46691870608e+00
1.20000000000e+00	4.12159654189e+01	-3.47980640995e+00
1.21000000000e+00	4.12770923606e+01	-3.49258575446e+00
1.22000000000e+00	4.13384995726e+01	-3.50525865158e+00
1.23000000000e+00	4.14001828429e+01	-3.51782695802e+00
1.24000000000e+00	4.14621379994e+01	-3.53029247733e+00
1.25000000000e+00	4.15243608664e+01	-3.54265696193e+00
1.26000000000e+00	4.15868473049e+01	-3.55492211501e+00
1.27000000000e+00	4.16495931913e+01	-3.56708959239e+00
1.28000000000e+00	4.17125944247e+01	-3.57916100426e+00
1.29000000000e+00	4.17758469241e+01	-3.59113791690e+00
1.30000000000e+00	4.18393466384e+01	-3.60302185423e+00
1.31000000000e+00	4.19030895253e+01	-3.61481429940e+00
1.32000000000e+00	4.19670715826e+01	-3.62651669625e+00
1.33000000000e+00	4.20312888205e+01	-3.63813045072e+00
1.34000000000e+00	4.20957372743e+01	-3.64965693220e+00
1.35000000000e+00	4.21604130083e+01	-3.66109747481e+00
1.36000000000e+00	4.22253121075e+01	-3.67245337868e+00
1.37000000000e+00	4.22904306840e+01	-3.68372591110e+00
1.38000000000e+00	4.23557648796e+01	-3.69491630766e+00
1.39000000000e+00	4.24213108414e+01	-3.70602577336e+00
1.40000000000e+00	4.24870647763e+01	-3.71705548366e+00
1.41000000000e+00	4.25530228894e+01	-3.72800658543e+00
1.42000000000e+00	4.26191814200e+01	-3.73888019799e+00
1.43000000000e+00	4.26855366427e+01	-3.74967741396e+00
1.44000000000e+00	4.27520848386e+01	-3.76039930018e+00
1.45000000000e+00	4.28188223431e+01	-3.77104689855e+00
1.46000000000e+00	4.28857455049e+01	-3.78162122685e+00
1.47000000000e+00	4.29528506927e+01	-3.79212327949e+00
1.48000000000e+00	4.30201343106e+01	-3.80255402831e+00
1.49000000000e+00	4.30875927947e+01	-3.81291442326e+00
1.50000000000e+00	4.31552226083e+01	-3.82320539309e+00
1.51000000000e+00	4.32230202265e+01	-3.83342784604e+00
1.52000000000e+00	4.32909821828e+01	-3.84358267046e+00
1.53000000000e+00	4.33591050115e+01	-3.85367073539e+00
1.54000000000e+00	4.34273852866e+01	-3.86369289122e+00
1.55000000000e+00	4.34958196126e+01	-3.87364997018e+00
1.56000000000e+00	4.35644046222e+01	-3.88354278694e+00
1.57000000000e+00	4.36331369743e+01	-3.89337213908e+00
1.58000000000e+00	4.37020133576e+01	-3.90313880763e+00
1.59000000000e+00	4.37710304869e+01	-3.91284355753e+00
1.60000000000e+00	4.38401851150e+01	-3.92248713811e+00
1.61000000000e+00	4.39094740123e+01	-3.93207028351e+00
1.62000000000e+00	4.39788939938e+01	-3.94159371314e+00
1.63000000000e+00	4.40484418802e+01	-3.95105813204e+00
1.64000000000e+00	4.41181145494e+01	-3.96046423136e+00
1.65000000000e+00	4.41879088884e+01	-3.96981268864e+00
1.66000000000e+00	4.42578218197e+01	-3.97910416827e+00
1.67000000000e+00	4.43278503005e+01	-3.98833932177e+00
1.68000000000e+00	4.43979913066e+01	-3.99751878817e+00
1.69000000000e+00	4.44682418494e+01	-4.00664319432e+00
1.70000000000e+00	4.45385989736e+01	-4.01571315523e+00
1.71000000000e+00	4.46090597441e+01	-4.02472927434e+00
1.72000000000e+00	4.46796212648e+01	-4.03369214381e+00
1.73000000000e+00	4.47502806658e+01	-4.04260234485e+00
1.74000000000e+00	4.48210350969e+01	-4.05146044792e+00
1.75000000000e+00	4.48918817488e+01	-4.06026701307e+00
1.76000000000e+00	4.49628178349e+01	-4.06902259010e+00
1.77000000000e+00	4.50338406098e+01	-4.07772771889e+00
1.78000000000e+00	4.51049473361e+01	-4.08638292958e+00
1.79000000000e+00	4.51761353280e+01	-4.09498874280e+00
1.80000000000e+00	4.52474019096e+01	-4.10354566992e+00
1.81000000000e+00	4.53187444440e+01	-4.11205421321e+00
1.82000000000e+00	4.53901603256e+01	-4.12051486608e+00
1.83000000000e+00	4.54616469661e+01	-4.12892811327e+00
1.84000000000e+00	4.55332018227e+01	-4.13729443102e+00
1.85000000000e+00	4.56048223594e+01	-4.14561428726e+00
1.86000000000e+00	4.56765060887e+01	-4.15388814180e+00
1.87000000000e+00	4.57482505411e+01	-4.16211644648e+00
1.88000000000e+00	4.58200532777e+01	-4.17029964537e+00
1.89000000000e+00	4.58919118869e+01	-4.17843817487e+00
1.90000000000e+00	4.59638239915e+01	-4.18653246391e+00
1.91000000000e+00	4.60357872304e+01	-4.19458293411e+00
1.92000000000e+00	4.61077992785e+01	-4.20258999989e+00
1.93000000000e+00	4.61798578371e+01	-4.21055406863e+00
1.94000000000e+00	4.62519606318e+01	-4.21847554081e+00
1.95000000000e+00	4.63241054209e+01	-4.22635481016e+00
1.96000000000e+00	4.63962899827e+01	-4.23419226376e+00
1.97000000000e+00	4.64685121409e+01	-4.24198828221e+00
1.98000000000e+00	4.65407697198e+01	-4.24974323973e+00
1.99000000000e+00	4.66130605878e+01	-4.25745750431e+00
2.00000000000e+00	4.66853826357e+01	-4.26513143783e+00
2.01000000000e+00	4.67577337848e+01	-4.27276539616e+00
2.02000000000e+00	4.68301119781e+01	-4.28035972935e+00
2.03000000000e+00	4.69025151840e+01	-4.28791478170e+00
2.04000000000e+00	4.69749414040e+01	-4.29543089190e+00
2.05000000000e+00	4.70473886564e+01	-4.30290839321e+00
2.06000000000e+00	4.71198549903e+01	-4.31034761351e+00
2.07000000000e+00	4.71923384878e+01	-4.31774887553e+00
2.08000000000e+00	4.72648372410e+01	-4.32511249690e+00
2.09000000000e+00	4.73373493817e+01	-4.33243879039e+00
2.10000000000e+00	4.74098730641e+01	-4.33972806398e+00
2.11000000000e+00	4.74824064556e+01	-4.34698062108e+00
2.12000000000e+00	4.75549477695e+01	-4.35419676065e+00
2.13000000000e+00	4.76274952290e+01	-4.36137677744e+00
2.14000000000e+00	4.77000470787e+01	-4.36852096210e+00
2.15000000000e+00	4.77726016014e+01	-4.37562960144e+00
2.16000000000e+00	4.78451570946e+01	-4.38270297863e+00
2.17000000000e+00	4.79177118974e+01	-4.38974137339e+00
2.18000000000e+00	4.79902643440e+01	-4.39674506230e+00
2.19000000000e+00	4.80628128081e+01	-4.40371431898e+00
2.20000000000e+00	4.81353556994e+01	-4.41064941443e+00
2.21000000000e+00	4.82078914274e+01	-4.41755061731e+00
2.22000000000e+00	4.82804184475e+01	-4.42441819423e+00
2.23000000000e+00	4.83529352186e+01	-4.43125241015e+00
2.24000000000e+00	4.84254402337e+01	-4.43805352869e+00
2.25000000000e+00	4.84979320152e+01	-4.44482181255e+00
2.26000000000e+00	4.85704090923e+01	-4.45155752393e+00
2.27000000000e+00	4.86428700298e+01	-4.45826092496e+00
2.28000000000e+00	4.87153134062e+01	-4.46493227820e+00
2.29000000000e+00	4.87877378330e+01	-4.47157184711e+00
2.30000000000e+00	4.88601419416e+01	-4.47817989662e+00
2.31000000000e+00	4.89325243681e+01	-4.48475669364e+00
2.32000000000e+00	4.90048837962e+01	-4.49130250768e+00
2.33000000000e+00	4.90772189173e+01	-4.49781761145e+00
2.34000000000e+00	4.91495284417e+01	-4.50430228149e+00
2.35000000000e+00	4.92218111067e+01	-4.51075679881e+00
2.36000000000e+00	4.92940656743e+01	-4.51718144954e+00
2.37000000000e+00	4.93662909156e+01	-4.52357652564e+00
2.38000000000e+00	4.94384856309e+01	-4.52994232550e+00
2.39000000000e+00	4.95106486449e+01	-4.53627915464e+00
2.40000000000e+00	4.95827787893e+01	-4.54258732634e+00
2.41000000000e+00	4.96548749149e+01	-4.54886716222e+00
2.42000000000e+00	4.97269359146e+01	-4.55511899281e+00
2.43000000000e+00	4.97989606760e+01	-4.56134315804e+00
2.44000000000e+00	4.98709481062e+01	-4.56754000768e+00
2.45000000000e+00	4.99428971492e+01	-4.57370990160e+00
2.46000000000e+00	5.00148067472e+01	-4.57985321005e+00
2.47000000000e+00	5.00866758640e+01	-4.58597031370e+00
2.48000000000e+00	5.01585034969e+01	-4.59206160356e+00
2.49000000000e+00	5.02302886345e+01	-4.59812748071e+00
2.50000000000e+00	5.03020302889e+01	-4.60416835589e+00
2.51000000000e+00	5.03737274974e+01	-4.61018464883e+00
2.52000000000e+00	5.04453793050e+01	-4.61617678737e+00
2.53000000000e+00	5.05169847633e+01	-4.62214520634e+00
2.54000000000e+00	5.05885429503e+01	-4.62809034625e+00
2.55000000000e+00	5.06600529491e+01	-4.63401265164e+00
2.56000000000e+00	5.07315138621e+01	-4.63991256927e+00
2.57000000000e+00	5.08029247926e+01	-4.64579054607e+00
2.58000000000e+00	5.08742848670e+01	-4.65164702687e+00
2.59000000000e+00	5.09455932246e+01	-4.65748245194e+00
2.60000000000e+00	5.10168489983e+01	-4.66329725439e+00
2.61000000000e+00	5.10880513568e+01	-4.66909185750e+00
2.62000000000e+00	5.11591994502e+01	-4.67486667191e+00
2.63000000000e+00	5.12302924709e+01	-4.68062209290e+00
2.64000000000e+00	5.13013296099e+01	-4.68635849763e+00
2.65000000000e+00	5.13723100549e+01	-4.69207624261e+00
2.66000000000e+00	5.14432330179e+01	-4.69777566120e+00
2.67000000000e+00	5.15140977278e+01	-4.70345706151e+00
2.68000000000e+00	5.15849034108e+01	-4.70912072444e+00
2.69000000000e+00	5.16556493206e+01	-4.71476690215e+00
2.70000000000e+00	5.17263347044e+01	-4.72039581692e+00
