# kz [1/micrones]     Omega [THz]    |det|$\mu_c$ = 0.630 eV, $\eta$ = 0.92, modo = 1, R = 0.50$\mu$m, solve_det_conkz3.py
2.50000000000e-01	3.13558292723e+01	-8.18219401199e-01
2.60000000000e-01	3.13684680703e+01	-8.98369296856e-01
2.70000000000e-01	3.13816090651e+01	-9.74247777217e-01
2.80000000000e-01	3.13952522926e+01	-1.04631261929e+00
2.90000000000e-01	3.14093975260e+01	-1.11494955613e+00
3.00000000000e-01	3.14240442221e+01	-1.18048713083e+00
3.10000000000e-01	3.14391916943e+01	-1.24320788153e+00
3.20000000000e-01	3.14548390976e+01	-1.30335689803e+00
3.30000000000e-01	3.14709853636e+01	-1.36114846127e+00
3.40000000000e-01	3.14876293193e+01	-1.41677126153e+00
3.50000000000e-01	3.15047696601e+01	-1.47039254738e+00
3.60000000000e-01	3.15224049813e+01	-1.52216145937e+00
3.70000000000e-01	3.15405336630e+01	-1.57221173457e+00
3.80000000000e-01	3.15591541718e+01	-1.62066392022e+00
3.90000000000e-01	3.15782647652e+01	-1.66762720030e+00
4.00000000000e-01	3.15978635483e+01	-1.71320091414e+00
4.10000000000e-01	3.16179487290e+01	-1.75747582767e+00
4.20000000000e-01	3.16385184442e+01	-1.80053520471e+00
4.30000000000e-01	3.16595703391e+01	-1.84245571500e+00
4.40000000000e-01	3.16811026131e+01	-1.88330820829e+00
4.50000000000e-01	3.17031130609e+01	-1.92315837781e+00
4.60000000000e-01	3.17255994544e+01	-1.96206733164e+00
4.70000000000e-01	3.17485596111e+01	-2.00009208712e+00
4.80000000000e-01	3.17719912351e+01	-2.03728600061e+00
4.90000000000e-01	3.17958919835e+01	-2.07369914261e+00
5.00000000000e-01	3.18202595365e+01	-2.10937862648e+00
5.10000000000e-01	3.18450915041e+01	-2.14436889770e+00
5.20000000000e-01	3.18703854661e+01	-2.17871198929e+00
5.30000000000e-01	3.18961390184e+01	-2.21244774822e+00
5.40000000000e-01	3.19223496938e+01	-2.24561403678e+00
5.50000000000e-01	3.19490150248e+01	-2.27824691244e+00
5.60000000000e-01	3.19761325401e+01	-2.31038078892e+00
5.70000000000e-01	3.20036997424e+01	-2.34204858108e+00
5.80000000000e-01	3.20317141368e+01	-2.37328183568e+00
5.90000000000e-01	3.20601732206e+01	-2.40411084992e+00
6.00000000000e-01	3.20890744729e+01	-2.43456477928e+00
6.10000000000e-01	3.21184154066e+01	-2.46467173608e+00
6.20000000000e-01	3.21481934879e+01	-2.49445888003e+00
6.30000000000e-01	3.21784062328e+01	-2.52395250182e+00
6.40000000000e-01	3.22090511277e+01	-2.55317810076e+00
6.50000000000e-01	3.22401256751e+01	-2.58216045729e+00
6.60000000000e-01	3.22716273795e+01	-2.61092370121e+00
6.70000000000e-01	3.23035537806e+01	-2.63949137641e+00
6.80000000000e-01	3.23359023782e+01	-2.66788650270e+00
6.90000000000e-01	3.23686707209e+01	-2.69613163544e+00
7.00000000000e-01	3.24018563406e+01	-2.72424892363e+00
7.10000000000e-01	3.24354567913e+01	-2.75226016706e+00
7.20000000000e-01	3.24694696284e+01	-2.78018687305e+00
7.30000000000e-01	3.25038924178e+01	-2.80805031352e+00
7.40000000000e-01	3.25387227310e+01	-2.83587158298e+00
7.50000000000e-01	3.25739581394e+01	-2.86367165803e+00
7.60000000000e-01	3.26095962237e+01	-2.89147145915e+00
7.70000000000e-01	3.26456345694e+01	-2.91929191555e+00
7.80000000000e-01	3.26820707616e+01	-2.94715403384e+00
7.90000000000e-01	3.27189023722e+01	-2.97507897138e+00
8.00000000000e-01	3.27561269777e+01	-3.00308811555e+00
8.10000000000e-01	3.27937421532e+01	-3.03120316981e+00
8.20000000000e-01	3.28317454596e+01	-3.05944624811e+00
8.30000000000e-01	3.28701344509e+01	-3.08783997894e+00
8.40000000000e-01	3.29089066547e+01	-3.11640762104e+00
8.50000000000e-01	3.29480595882e+01	-3.14517319262e+00
8.60000000000e-01	3.29875907577e+01	-3.17416161668e+00
8.70000000000e-01	3.30274976322e+01	-3.20339888524e+00
8.80000000000e-01	3.30677776600e+01	-3.23291224605e+00
8.90000000000e-01	3.31084282648e+01	-3.26273041595e+00
9.00000000000e-01	3.31494468167e+01	-3.29288382596e+00
9.10000000000e-01	3.31908306820e+01	-3.32340490439e+00
9.20000000000e-01	3.32325771618e+01	-3.35432840565e+00
9.30000000000e-01	3.32746835295e+01	-3.38569179423e+00
9.40000000000e-01	3.33171470138e+01	-3.41753569593e+00
9.50000000000e-01	3.33599647933e+01	-3.44990443110e+00
9.60000000000e-01	3.34031339946e+01	-3.48284664920e+00
9.70000000000e-01	3.34466517071e+01	-3.51641608892e+00
9.80000000000e-01	3.34905149536e+01	-3.55067249552e+00
9.90000000000e-01	3.35347207098e+01	-3.58568273658e+00
1.00000000000e+00	3.35792658971e+01	-3.62152217058e+00
1.01000000000e+00	3.36241473824e+01	-3.65827634114e+00
1.02000000000e+00	3.36693619677e+01	-3.69604309505e+00
1.03000000000e+00	3.37149064045e+01	-3.73493525919e+00
1.04000000000e+00	3.37607773878e+01	-3.77508406397e+00
1.05000000000e+00	3.38069715592e+01	-3.81664357912e+00
1.06000000000e+00	3.38534855011e+01	-3.85979654523e+00
1.07000000000e+00	3.39003157381e+01	-3.90476216482e+00
1.08000000000e+00	3.39474587419e+01	-3.95180670261e+00
1.09000000000e+00	3.39949109370e+01	-4.00125820720e+00
1.10000000000e+00	3.40426686914e+01	-4.05352744330e+00
1.11000000000e+00	3.40907283347e+01	-4.10913847343e+00
1.12000000000e+00	3.41390861414e+01	-4.16877477760e+00
1.13000000000e+00	3.41877383454e+01	-4.23335147211e+00
1.14000000000e+00	3.42366811357e+01	-4.30413364432e+00
1.15000000000e+00	3.42859106770e+01	-4.38294139350e+00
1.16000000000e+00	3.43354230840e+01	-4.47253112865e+00
1.17000000000e+00	3.43852144462e+01	-4.57737346552e+00
1.18000000000e+00	3.44352808241e+01	-4.70545622370e+00
1.19000000000e+00	3.44856182527e+01	-4.87333579705e+00
1.20000000000e+00	3.45362227483e+01	-5.12568082418e+00
1.21000000000e+00	3.45870903017e+01	-5.70261120786e+00
1.22000000000e+00	3.46382168938e+01	-5.50214017567e+00
1.23000000000e+00	3.46895984920e+01	-5.10109273511e+00
1.24000000000e+00	3.47412310561e+01	-4.90777501984e+00
1.25000000000e+00	3.47931105391e+01	-4.78270388760e+00
1.26000000000e+00	3.48452328941e+01	-4.69203713322e+00
1.27000000000e+00	3.48975940706e+01	-4.62215734120e+00
1.28000000000e+00	3.49501900279e+01	-4.56620435233e+00
1.29000000000e+00	3.50030167260e+01	-4.52023259240e+00
1.30000000000e+00	3.50560701431e+01	-4.48176284418e+00
1.31000000000e+00	3.51093462612e+01	-4.44913492412e+00
1.32000000000e+00	3.51628410799e+01	-4.42118231739e+00
1.33000000000e+00	3.52165506168e+01	-4.39705388410e+00
1.34000000000e+00	3.52704709094e+01	-4.37610943565e+00
1.35000000000e+00	3.53245980132e+01	-4.35785524915e+00
1.36000000000e+00	3.53789280121e+01	-4.34190248583e+00
1.37000000000e+00	3.54334570122e+01	-4.32793939574e+00
1.38000000000e+00	3.54881811459e+01	-4.31571216341e+00
1.39000000000e+00	3.55430965817e+01	-4.30501135877e+00
1.40000000000e+00	3.55981995035e+01	-4.29566213343e+00
1.41000000000e+00	3.56534861371e+01	-4.28751698479e+00
1.42000000000e+00	3.57089527422e+01	-4.28045032080e+00
1.43000000000e+00	3.57645956038e+01	-4.27435431322e+00
1.44000000000e+00	3.58204110441e+01	-4.26913568919e+00
1.45000000000e+00	3.58763954311e+01	-4.26471321737e+00
1.46000000000e+00	3.59325451530e+01	-4.26101571563e+00
1.47000000000e+00	3.59888566421e+01	-4.25798045561e+00
1.48000000000e+00	3.60453263609e+01	-4.25555187273e+00
1.49000000000e+00	3.61019508237e+01	-4.25368051424e+00
1.50000000000e+00	3.61587265704e+01	-4.25232217417e+00
1.51000000000e+00	3.62156501820e+01	-4.25143717695e+00
1.52000000000e+00	3.62727182809e+01	-4.25098977974e+00
1.53000000000e+00	3.63299275231e+01	-4.25094767076e+00
1.54000000000e+00	3.63872746074e+01	-4.25128154568e+00
1.55000000000e+00	3.64447562686e+01	-4.25196474774e+00
1.56000000000e+00	3.65023692810e+01	-4.25297296056e+00
1.57000000000e+00	3.65601104549e+01	-4.25428394455e+00
1.58000000000e+00	3.66179766501e+01	-4.25587730970e+00
1.59000000000e+00	3.66759647482e+01	-4.25773431882e+00
1.60000000000e+00	3.67340716774e+01	-4.25983771652e+00
1.61000000000e+00	3.67922944004e+01	-4.26217157989e+00
1.62000000000e+00	3.68506299296e+01	-4.26472118768e+00
1.63000000000e+00	3.69090753013e+01	-4.26747290531e+00
1.64000000000e+00	3.69676275920e+01	-4.27041408336e+00
1.65000000000e+00	3.70262839118e+01	-4.27353296782e+00
1.66000000000e+00	3.70850414228e+01	-4.27681862031e+00
1.67000000000e+00	3.71438973084e+01	-4.28026084714e+00
1.68000000000e+00	3.72028487836e+01	-4.28385013588e+00
1.69000000000e+00	3.72618931215e+01	-4.28757759867e+00
1.70000000000e+00	3.73210276072e+01	-4.29143492129e+00
1.71000000000e+00	3.73802495699e+01	-4.29541431732e+00
1.72000000000e+00	3.74395563832e+01	-4.29950848682e+00
1.73000000000e+00	3.74989454311e+01	-4.30371057905e+00
1.74000000000e+00	3.75584141553e+01	-4.30801415857e+00
1.75000000000e+00	3.76179600221e+01	-4.31241317458e+00
1.76000000000e+00	3.76775805201e+01	-4.31690193299e+00
1.77000000000e+00	3.77372731933e+01	-4.32147507100e+00
1.78000000000e+00	3.77970356020e+01	-4.32612753385e+00
1.79000000000e+00	3.78568653364e+01	-4.33085455362e+00
1.80000000000e+00	3.79167600289e+01	-4.33565162976e+00
1.81000000000e+00	3.79767173381e+01	-4.34051451123e+00
1.82000000000e+00	3.80367349546e+01	-4.34543918015e+00
1.83000000000e+00	3.80968105980e+01	-4.35042183667e+00
1.84000000000e+00	3.81569420182e+01	-4.35545888508e+00
1.85000000000e+00	3.82171269992e+01	-4.36054692097e+00
1.86000000000e+00	3.82773633526e+01	-4.36568271939e+00
1.87000000000e+00	3.83376489187e+01	-4.37086322385e+00
1.88000000000e+00	3.83979815623e+01	-4.37608553615e+00
1.89000000000e+00	3.84583591823e+01	-4.38134690697e+00
1.90000000000e+00	3.85187797142e+01	-4.38664472712e+00
1.91000000000e+00	3.85792411030e+01	-4.39197651935e+00
1.92000000000e+00	3.86397413317e+01	-4.39733993081e+00
1.93000000000e+00	3.87002784053e+01	-4.40273272597e+00
1.94000000000e+00	3.87608503790e+01	-4.40815278006e+00
1.95000000000e+00	3.88214552960e+01	-4.41359807289e+00
1.96000000000e+00	3.88820912644e+01	-4.41906668312e+00
1.97000000000e+00	3.89427563858e+01	-4.42455678289e+00
1.98000000000e+00	3.90034488137e+01	-4.43006663278e+00
1.99000000000e+00	3.90641667100e+01	-4.43559457711e+00
2.00000000000e+00	3.91249082743e+01	-4.44113903953e+00
2.01000000000e+00	3.91856717178e+01	-4.44669851884e+00
2.02000000000e+00	3.92464552940e+01	-4.45227158513e+00
2.03000000000e+00	3.93072572677e+01	-4.45785687609e+00
2.04000000000e+00	3.93680759249e+01	-4.46345309363e+00
2.05000000000e+00	3.94289096002e+01	-4.46905900055e+00
2.06000000000e+00	3.94897566194e+01	-4.47467341757e+00
2.07000000000e+00	3.95506153552e+01	-4.48029522042e+00
2.08000000000e+00	3.96114841983e+01	-4.48592333712e+00
2.09000000000e+00	3.96723615509e+01	-4.49155674546e+00
2.10000000000e+00	3.97332458593e+01	-4.49719447054e+00
2.11000000000e+00	3.97941355700e+01	-4.50283558253e+00
2.12000000000e+00	3.98550291709e+01	-4.50847919448e+00
2.13000000000e+00	3.99159251608e+01	-4.51412446031e+00
2.14000000000e+00	3.99768220683e+01	-4.51977057287e+00
2.15000000000e+00	4.00377184333e+01	-4.52541676210e+00
2.16000000000e+00	4.00986128254e+01	-4.53106229331e+00
2.17000000000e+00	4.01595038351e+01	-4.53670646557e+00
2.18000000000e+00	4.02203900679e+01	-4.54234861009e+00
2.19000000000e+00	4.02812701626e+01	-4.54798808883e+00
2.20000000000e+00	4.03421427666e+01	-4.55362429301e+00
2.21000000000e+00	4.04030065513e+01	-4.55925664187e+00
2.22000000000e+00	4.04638602093e+01	-4.56488458134e+00
2.23000000000e+00	4.05247024581e+01	-4.57050758288e+00
2.24000000000e+00	4.05855320199e+01	-4.57612514233e+00
2.25000000000e+00	4.06463476584e+01	-4.58173677884e+00
2.26000000000e+00	4.07071481399e+01	-4.58734203380e+00
2.27000000000e+00	4.07679322507e+01	-4.59294046992e+00
2.28000000000e+00	4.08286988090e+01	-4.59853167024e+00
2.29000000000e+00	4.08894466364e+01	-4.60411523729e+00
2.30000000000e+00	4.09501745843e+01	-4.60969079220e+00
2.31000000000e+00	4.10108815244e+01	-4.61525797391e+00
2.32000000000e+00	4.10715663262e+01	-4.62081643842e+00
2.33000000000e+00	4.11322279026e+01	-4.62636585805e+00
2.34000000000e+00	4.11928651729e+01	-4.63190592070e+00
2.35000000000e+00	4.12534770725e+01	-4.63743632924e+00
2.36000000000e+00	4.13140625576e+01	-4.64295680084e+00
2.37000000000e+00	4.13746205989e+01	-4.64846706638e+00
2.38000000000e+00	4.14351501930e+01	-4.65396686983e+00
2.39000000000e+00	4.14956503334e+01	-4.65945596777e+00
2.40000000000e+00	4.15561200577e+01	-4.66493412878e+00
2.41000000000e+00	4.16165584018e+01	-4.67040113297e+00
2.42000000000e+00	4.16769644202e+01	-4.67585677152e+00
2.43000000000e+00	4.17373371834e+01	-4.68130084616e+00
2.44000000000e+00	4.17976757858e+01	-4.68673316878e+00
2.45000000000e+00	4.18579793308e+01	-4.69215356097e+00
2.46000000000e+00	4.19182469378e+01	-4.69756185364e+00
2.47000000000e+00	4.19784777470e+01	-4.70295788661e+00
2.48000000000e+00	4.20386708994e+01	-4.70834150826e+00
2.49000000000e+00	4.20988255761e+01	-4.71371257514e+00
2.50000000000e+00	4.21589409424e+01	-4.71907095168e+00
2.51000000000e+00	4.22190162065e+01	-4.72441650981e+00
2.52000000000e+00	4.22790505783e+01	-4.72974912869e+00
2.53000000000e+00	4.23390432826e+01	-4.73506869437e+00
2.54000000000e+00	4.23989935624e+01	-4.74037509954e+00
2.55000000000e+00	4.24589006665e+01	-4.74566824322e+00
2.56000000000e+00	4.25187638676e+01	-4.75094803053e+00
2.57000000000e+00	4.25785824469e+01	-4.75621437239e+00
2.58000000000e+00	4.26383557012e+01	-4.76146718534e+00
2.59000000000e+00	4.26980829391e+01	-4.76670639123e+00
2.60000000000e+00	4.27577634807e+01	-4.77193191705e+00
2.61000000000e+00	4.28173966671e+01	-4.77714369471e+00
2.62000000000e+00	4.28769818450e+01	-4.78234166080e+00
2.63000000000e+00	4.29365183877e+01	-4.78752575641e+00
2.64000000000e+00	4.29960056522e+01	-4.79269592695e+00
2.65000000000e+00	4.30554430376e+01	-4.79785212196e+00
2.66000000000e+00	4.31148299443e+01	-4.80299429491e+00
2.67000000000e+00	4.31741657788e+01	-4.80812240305e+00
2.68000000000e+00	4.32334499760e+01	-4.81323640726e+00
2.69000000000e+00	4.32926819602e+01	-4.81833627184e+00
2.70000000000e+00	4.33518611916e+01	-4.82342196444e+00
2.71000000000e+00	4.34109871272e+01	-4.82849345584e+00
2.72000000000e+00	4.34700592408e+01	-4.83355071983e+00
2.73000000000e+00	4.35290770109e+01	-4.83859373311e+00
2.74000000000e+00	4.35880399365e+01	-4.84362247509e+00
2.75000000000e+00	4.36469475285e+01	-4.84863692786e+00
