# kz [1/micrones]     Omega [THz]    |det|$\mu_c$ = 0.820 eV, $\eta$ = 0.92, modo = 1, R = 0.50$\mu$m, solve_det_conkz3.py
2.50000000000e-01	3.56411984278e+01	-1.11410166769e+00
2.60000000000e-01	3.56560872076e+01	-1.19441764747e+00
2.70000000000e-01	3.56715639272e+01	-1.26966802269e+00
2.80000000000e-01	3.56876295321e+01	-1.34044830121e+00
2.90000000000e-01	3.57042845361e+01	-1.40725171378e+00
3.00000000000e-01	3.57215290904e+01	-1.47049201786e+00
3.10000000000e-01	3.57393630363e+01	-1.53052021370e+00
3.20000000000e-01	3.57577859119e+01	-1.58763702971e+00
3.30000000000e-01	3.57767970842e+01	-1.64210240468e+00
3.40000000000e-01	3.57963956333e+01	-1.69414279779e+00
3.50000000000e-01	3.58165805289e+01	-1.74395690026e+00
3.60000000000e-01	3.58373505366e+01	-1.79172015323e+00
3.70000000000e-01	3.58587042690e+01	-1.83758836133e+00
3.80000000000e-01	3.58806401599e+01	-1.88170061273e+00
3.90000000000e-01	3.59031565745e+01	-1.92418166101e+00
4.00000000000e-01	3.59262517339e+01	-1.96514388503e+00
4.10000000000e-01	3.59499236809e+01	-2.00468891464e+00
4.20000000000e-01	3.59741704502e+01	-2.04290898936e+00
4.30000000000e-01	3.59989898483e+01	-2.07988810177e+00
4.40000000000e-01	3.60243796983e+01	-2.11570296619e+00
4.50000000000e-01	3.60503376603e+01	-2.15042384425e+00
4.60000000000e-01	3.60768613373e+01	-2.18411525255e+00
4.70000000000e-01	3.61039481353e+01	-2.21683657264e+00
4.80000000000e-01	3.61315955079e+01	-2.24864257938e+00
4.90000000000e-01	3.61598008982e+01	-2.27958390076e+00
5.00000000000e-01	3.61885613044e+01	-2.30970742005e+00
5.10000000000e-01	3.62178740663e+01	-2.33905662876e+00
5.20000000000e-01	3.62477361991e+01	-2.36767193790e+00
5.30000000000e-01	3.62781447795e+01	-2.39559095335e+00
5.40000000000e-01	3.63090967185e+01	-2.42284872042e+00
5.50000000000e-01	3.63405889106e+01	-2.44947794181e+00
5.60000000000e-01	3.63726181669e+01	-2.47550917232e+00
5.70000000000e-01	3.64051812553e+01	-2.50097099361e+00
5.80000000000e-01	3.64382748724e+01	-2.52589017116e+00
5.90000000000e-01	3.64718956310e+01	-2.55029179591e+00
6.00000000000e-01	3.65060401444e+01	-2.57419941224e+00
6.10000000000e-01	3.65407049217e+01	-2.59763513389e+00
6.20000000000e-01	3.65758864324e+01	-2.62061974935e+00
6.30000000000e-01	3.66115811190e+01	-2.64317281768e+00
6.40000000000e-01	3.66477853569e+01	-2.66531275593e+00
6.50000000000e-01	3.66844954633e+01	-2.68705691908e+00
6.60000000000e-01	3.67217077193e+01	-2.70842167313e+00
6.70000000000e-01	3.67594183820e+01	-2.72942246225e+00
6.80000000000e-01	3.67976236409e+01	-2.75007387039e+00
6.90000000000e-01	3.68363196653e+01	-2.77038967800e+00
7.00000000000e-01	3.68755025748e+01	-2.79038291434e+00
7.10000000000e-01	3.69151684579e+01	-2.81006590567e+00
7.20000000000e-01	3.69553133553e+01	-2.82945031990e+00
7.30000000000e-01	3.69959333000e+01	-2.84854720784e+00
7.40000000000e-01	3.70370242757e+01	-2.86736704142e+00
7.50000000000e-01	3.70785822375e+01	-2.88591974920e+00
7.60000000000e-01	3.71206031216e+01	-2.90421474933e+00
7.70000000000e-01	3.71630828314e+01	-2.92226098014e+00
7.80000000000e-01	3.72060172449e+01	-2.94006692873e+00
7.90000000000e-01	3.72494022170e+01	-2.95764065750e+00
8.00000000000e-01	3.72932335863e+01	-2.97498982893e+00
8.10000000000e-01	3.73375071526e+01	-2.99212172874e+00
8.20000000000e-01	3.73822187248e+01	-3.00904328749e+00
8.30000000000e-01	3.74273640774e+01	-3.02576110079e+00
8.40000000000e-01	3.74729389589e+01	-3.04228144821e+00
8.50000000000e-01	3.75189391238e+01	-3.05861031101e+00
8.60000000000e-01	3.75653603023e+01	-3.07475338871e+00
8.70000000000e-01	3.76121982119e+01	-3.09071611466e+00
8.80000000000e-01	3.76594485618e+01	-3.10650367066e+00
8.90000000000e-01	3.77071070494e+01	-3.12212100068e+00
9.00000000000e-01	3.77551693727e+01	-3.13757282372e+00
9.10000000000e-01	3.78036311989e+01	-3.15286364593e+00
9.20000000000e-01	3.78524882135e+01	-3.16799777204e+00
9.30000000000e-01	3.79017360885e+01	-3.18297931603e+00
9.40000000000e-01	3.79513704990e+01	-3.19781221125e+00
9.50000000000e-01	3.80013870947e+01	-3.21250021994e+00
9.60000000000e-01	3.80517815474e+01	-3.22704694215e+00
9.70000000000e-01	3.81025495270e+01	-3.24145582424e+00
9.80000000000e-01	3.81536866825e+01	-3.25573016679e+00
9.90000000000e-01	3.82051886934e+01	-3.26987313217e+00
1.00000000000e+00	3.82570512229e+01	-3.28388775160e+00
1.01000000000e+00	3.83092699394e+01	-3.29777693183e+00
1.02000000000e+00	3.83618405184e+01	-3.31154346151e+00
1.03000000000e+00	3.84147586494e+01	-3.32519001715e+00
1.04000000000e+00	3.84680200145e+01	-3.33871916872e+00
1.05000000000e+00	3.85216203091e+01	-3.35213338506e+00
1.06000000000e+00	3.85755552328e+01	-3.36543503886e+00
1.07000000000e+00	3.86298205066e+01	-3.37862641146e+00
1.08000000000e+00	3.86844118427e+01	-3.39170969739e+00
1.09000000000e+00	3.87393249809e+01	-3.40468700856e+00
1.10000000000e+00	3.87945556587e+01	-3.41756037840e+00
1.11000000000e+00	3.88500996347e+01	-3.43033176558e+00
1.12000000000e+00	3.89059526760e+01	-3.44300305773e+00
1.13000000000e+00	3.89621105646e+01	-3.45557607480e+00
1.14000000000e+00	3.90185690914e+01	-3.46805257232e+00
1.15000000000e+00	3.90753240713e+01	-3.48043424449e+00
1.16000000000e+00	3.91323713268e+01	-3.49272272709e+00
1.17000000000e+00	3.91897067080e+01	-3.50491960020e+00
1.18000000000e+00	3.92473260619e+01	-3.51702639090e+00
1.19000000000e+00	3.93052252717e+01	-3.52904457564e+00
1.20000000000e+00	3.93634002248e+01	-3.54097558267e+00
1.21000000000e+00	3.94218468341e+01	-3.55282079425e+00
1.22000000000e+00	3.94805610285e+01	-3.56458154873e+00
1.23000000000e+00	3.95395387660e+01	-3.57625914259e+00
1.24000000000e+00	3.95987760009e+01	-3.58785483231e+00
1.25000000000e+00	3.96582687325e+01	-3.59936983618e+00
1.26000000000e+00	3.97180129675e+01	-3.61080533602e+00
1.27000000000e+00	3.97780047423e+01	-3.62216247879e+00
1.28000000000e+00	3.98382401025e+01	-3.63344237811e+00
1.29000000000e+00	3.98987151278e+01	-3.64464611576e+00
1.30000000000e+00	3.99594259106e+01	-3.65577474302e+00
1.31000000000e+00	4.00203685786e+01	-3.66682928202e+00
1.32000000000e+00	4.00815392685e+01	-3.67781072695e+00
1.33000000000e+00	4.01429341447e+01	-3.68872004530e+00
1.34000000000e+00	4.02045494038e+01	-3.69955817891e+00
1.35000000000e+00	4.02663812579e+01	-3.71032604510e+00
1.36000000000e+00	4.03284259429e+01	-3.72102453766e+00
1.37000000000e+00	4.03906797263e+01	-3.73165452781e+00
1.38000000000e+00	4.04531388945e+01	-3.74221686512e+00
1.39000000000e+00	4.05157997661e+01	-3.75271237835e+00
1.40000000000e+00	4.05786586694e+01	-3.76314187635e+00
1.41000000000e+00	4.06417119776e+01	-3.77350614877e+00
1.42000000000e+00	4.07049560786e+01	-3.78380596682e+00
1.43000000000e+00	4.07683873935e+01	-3.79404208401e+00
1.44000000000e+00	4.08320023609e+01	-3.80421523680e+00
1.45000000000e+00	4.08957974554e+01	-3.81432614524e+00
1.46000000000e+00	4.09597691711e+01	-3.82437551359e+00
1.47000000000e+00	4.10239140293e+01	-3.83436403088e+00
1.48000000000e+00	4.10882285853e+01	-3.84429237149e+00
1.49000000000e+00	4.11527094164e+01	-3.85416119563e+00
1.50000000000e+00	4.12173531255e+01	-3.86397114990e+00
1.51000000000e+00	4.12821563493e+01	-3.87372286769e+00
1.52000000000e+00	4.13471157478e+01	-3.88341696972e+00
1.53000000000e+00	4.14122280096e+01	-3.89305406437e+00
1.54000000000e+00	4.14774898448e+01	-3.90263474817e+00
1.55000000000e+00	4.15428980077e+01	-3.91215960615e+00
1.56000000000e+00	4.16084492658e+01	-3.92162921221e+00
1.57000000000e+00	4.16741404185e+01	-3.93104412950e+00
1.58000000000e+00	4.17399682928e+01	-3.94040491073e+00
1.59000000000e+00	4.18059297510e+01	-3.94971209848e+00
1.60000000000e+00	4.18720216743e+01	-3.95896622556e+00
1.61000000000e+00	4.19382409803e+01	-3.96816781523e+00
1.62000000000e+00	4.20045846027e+01	-3.97731738153e+00
1.63000000000e+00	4.20710495203e+01	-3.98641542951e+00
1.64000000000e+00	4.21376327276e+01	-3.99546245552e+00
1.65000000000e+00	4.22043312527e+01	-4.00445894740e+00
1.66000000000e+00	4.22711421493e+01	-4.01340538476e+00
1.67000000000e+00	4.23380625064e+01	-4.02230223916e+00
1.68000000000e+00	4.24050894304e+01	-4.03114997432e+00
1.69000000000e+00	4.24722200665e+01	-4.03994904635e+00
1.70000000000e+00	4.25394515821e+01	-4.04869990391e+00
1.71000000000e+00	4.26067811730e+01	-4.05740298839e+00
1.72000000000e+00	4.26742060655e+01	-4.06605873410e+00
1.73000000000e+00	4.27417235148e+01	-4.07466756844e+00
1.74000000000e+00	4.28093308075e+01	-4.08322991200e+00
1.75000000000e+00	4.28770252473e+01	-4.09174617879e+00
1.76000000000e+00	4.29448041741e+01	-4.10021677632e+00
1.77000000000e+00	4.30126649618e+01	-4.10864210577e+00
1.78000000000e+00	4.30806049955e+01	-4.11702256209e+00
1.79000000000e+00	4.31486217107e+01	-4.12535853416e+00
1.80000000000e+00	4.32167125427e+01	-4.13365040488e+00
1.81000000000e+00	4.32848749804e+01	-4.14189855128e+00
1.82000000000e+00	4.33531065292e+01	-4.15010334466e+00
1.83000000000e+00	4.34214047180e+01	-4.15826515064e+00
1.84000000000e+00	4.34897671167e+01	-4.16638432931e+00
1.85000000000e+00	4.35581913083e+01	-4.17446123528e+00
1.86000000000e+00	4.36266749078e+01	-4.18249621779e+00
1.87000000000e+00	4.36952155617e+01	-4.19048962079e+00
1.88000000000e+00	4.37638109375e+01	-4.19844178302e+00
1.89000000000e+00	4.38324587461e+01	-4.20635303806e+00
1.90000000000e+00	4.39011566925e+01	-4.21422371446e+00
1.91000000000e+00	4.39699025402e+01	-4.22205413574e+00
1.92000000000e+00	4.40386940643e+01	-4.22984462051e+00
1.93000000000e+00	4.41075290692e+01	-4.23759548249e+00
1.94000000000e+00	4.41764053969e+01	-4.24530703058e+00
1.95000000000e+00	4.42453208826e+01	-4.25297956894e+00
1.96000000000e+00	4.43142734251e+01	-4.26061339701e+00
1.97000000000e+00	4.43832609389e+01	-4.26820880956e+00
1.98000000000e+00	4.44522813486e+01	-4.27576609675e+00
1.99000000000e+00	4.45213326197e+01	-4.28328554419e+00
2.00000000000e+00	4.45904127411e+01	-4.29076743291e+00
2.01000000000e+00	4.46595197168e+01	-4.29821203950e+00
2.02000000000e+00	4.47286515973e+01	-4.30561963607e+00
2.03000000000e+00	4.47978064391e+01	-4.31299049029e+00
2.04000000000e+00	4.48669823322e+01	-4.32032486547e+00
2.05000000000e+00	4.49361773932e+01	-4.32762302054e+00
2.06000000000e+00	4.50053897553e+01	-4.33488521010e+00
2.07000000000e+00	4.50746175782e+01	-4.34211168444e+00
2.08000000000e+00	4.51438590565e+01	-4.34930268958e+00
2.09000000000e+00	4.52131123958e+01	-4.35645846726e+00
2.10000000000e+00	4.52823758334e+01	-4.36357925500e+00
2.11000000000e+00	4.53516476291e+01	-4.37066528610e+00
2.12000000000e+00	4.54209260635e+01	-4.37771678965e+00
2.13000000000e+00	4.54902094511e+01	-4.38473399058e+00
2.14000000000e+00	4.55594961160e+01	-4.39171710967e+00
2.15000000000e+00	4.56287844184e+01	-4.39866636352e+00
2.16000000000e+00	4.56980727273e+01	-4.40558196466e+00
2.17000000000e+00	4.57673594451e+01	-4.41246412148e+00
2.18000000000e+00	4.58366430021e+01	-4.41931303830e+00
2.19000000000e+00	4.59059218390e+01	-4.42612891539e+00
2.20000000000e+00	4.59751944212e+01	-4.43291194896e+00
2.21000000000e+00	4.60444592462e+01	-4.43966233121e+00
2.22000000000e+00	4.61137148232e+01	-4.44638025034e+00
2.23000000000e+00	4.61829596893e+01	-4.45306589059e+00
2.24000000000e+00	4.62521924023e+01	-4.45971943227e+00
2.25000000000e+00	4.63214115458e+01	-4.46634105179e+00
2.26000000000e+00	4.63906157102e+01	-4.47293092167e+00
2.27000000000e+00	4.64598035269e+01	-4.47948921064e+00
2.28000000000e+00	4.65289736345e+01	-4.48601608364e+00
2.29000000000e+00	4.65981247029e+01	-4.49251170192e+00
2.30000000000e+00	4.66672554146e+01	-4.49897622303e+00
2.31000000000e+00	4.67363644807e+01	-4.50540980097e+00
2.32000000000e+00	4.68054506247e+01	-4.51181258622e+00
2.33000000000e+00	4.68745126001e+01	-4.51818472586e+00
2.34000000000e+00	4.69435491747e+01	-4.52452636362e+00
2.35000000000e+00	4.70125591362e+01	-4.53083764005e+00
2.36000000000e+00	4.70815412939e+01	-4.53711869264e+00
2.37000000000e+00	4.71504944792e+01	-4.54336965591e+00
2.38000000000e+00	4.72194175469e+01	-4.54959066164e+00
2.39000000000e+00	4.72883093650e+01	-4.55578183902e+00
2.40000000000e+00	4.73571688148e+01	-4.56194331482e+00
2.41000000000e+00	4.74259948177e+01	-4.56807521367e+00
2.42000000000e+00	4.74947862984e+01	-4.57417765828e+00
2.43000000000e+00	4.75635422000e+01	-4.58025076970e+00
2.44000000000e+00	4.76322614940e+01	-4.58629466766e+00
2.45000000000e+00	4.77009431753e+01	-4.59230947087e+00
2.46000000000e+00	4.77695862370e+01	-4.59829529745e+00
2.47000000000e+00	4.78381897107e+01	-4.60425226526e+00
2.48000000000e+00	4.79067526397e+01	-4.61018049243e+00
2.49000000000e+00	4.79752740874e+01	-4.61608009778e+00
2.50000000000e+00	4.80437531387e+01	-4.62195120143e+00
2.51000000000e+00	4.81121888786e+01	-4.62779392533e+00
2.52000000000e+00	4.81805804440e+01	-4.63360839396e+00
2.53000000000e+00	4.82489269649e+01	-4.63939473494e+00
2.54000000000e+00	4.83172275914e+01	-4.64515307989e+00
2.55000000000e+00	4.83854815089e+01	-4.65088356515e+00
2.56000000000e+00	4.84536878949e+01	-4.65658633271e+00
2.57000000000e+00	4.85218459676e+01	-4.66226153114e+00
2.58000000000e+00	4.85899549515e+01	-4.66790931658e+00
2.59000000000e+00	4.86580140918e+01	-4.67352985383e+00
2.60000000000e+00	4.87260226469e+01	-4.67912331748e+00
2.61000000000e+00	4.87939799023e+01	-4.68468989312e+00
2.62000000000e+00	4.88618851531e+01	-4.69022977862e+00
2.63000000000e+00	4.89297377177e+01	-4.69574318543e+00
2.64000000000e+00	4.89975369161e+01	-4.70123034001e+00
2.65000000000e+00	4.90652821055e+01	-4.70669148526e+00
2.66000000000e+00	4.91329726499e+01	-4.71212688197e+00
2.67000000000e+00	4.92006079213e+01	-4.71753681038e+00
2.68000000000e+00	4.92681873192e+01	-4.72292157173e+00
2.69000000000e+00	4.93357102546e+01	-4.72828148975e+00
2.70000000000e+00	4.94031761610e+01	-4.73361691227e+00
2.71000000000e+00	4.94705844670e+01	-4.73892821270e+00
2.72000000000e+00	4.95379346291e+01	-4.74421579147e+00
2.73000000000e+00	4.96052261205e+01	-4.74948007748e+00
2.74000000000e+00	4.96724584195e+01	-4.75472152932e+00
2.75000000000e+00	4.97396310242e+01	-4.75994063644e+00
