# kz [1/micrones]     Omega [THz]    |det|$\mu_c$ = 0.600 eV, $\eta$ = 0.85, modo = 1, R = 0.50$\mu$m, solve_det_conkz3.py
2.00000000000e-01	3.05701049322e+01	-7.17023509513e-01
2.10000000000e-01	3.05801153617e+01	-8.24770881512e-01
2.20000000000e-01	3.05906178318e+01	-9.24020445594e-01
2.30000000000e-01	3.06016144780e+01	-1.01604001192e+00
2.40000000000e-01	3.06131067455e+01	-1.10182112894e+00
2.50000000000e-01	3.06250954836e+01	-1.18215558578e+00
2.60000000000e-01	3.06375811209e+01	-1.25768700289e+00
2.70000000000e-01	3.06505637504e+01	-1.32894667054e+00
2.80000000000e-01	3.06640431331e+01	-1.39637908854e+00
2.90000000000e-01	3.06780188174e+01	-1.46036057549e+00
3.00000000000e-01	3.06924900832e+01	-1.52121309543e+00
3.10000000000e-01	3.07074560593e+01	-1.57921471016e+00
3.20000000000e-01	3.07229156638e+01	-1.63460760341e+00
3.30000000000e-01	3.07388676476e+01	-1.68760432706e+00
3.40000000000e-01	3.07553106900e+01	-1.73839272438e+00
3.50000000000e-01	3.07722432171e+01	-1.78713985522e+00
3.60000000000e-01	3.07896636457e+01	-1.83399515783e+00
3.70000000000e-01	3.08075701604e+01	-1.87909302051e+00
3.80000000000e-01	3.08259609654e+01	-1.92255489148e+00
3.90000000000e-01	3.08448340801e+01	-1.96449102416e+00
4.00000000000e-01	3.08641873815e+01	-2.00500193177e+00
4.10000000000e-01	3.08840188418e+01	-2.04417960827e+00
4.20000000000e-01	3.09043259975e+01	-2.08210855984e+00
4.30000000000e-01	3.09251067792e+01	-2.11886668206e+00
4.40000000000e-01	3.09463586662e+01	-2.15452600951e+00
4.50000000000e-01	3.09680791833e+01	-2.18915336066e+00
4.60000000000e-01	3.09902658113e+01	-2.22281089505e+00
4.70000000000e-01	3.10129159373e+01	-2.25555659709e+00
4.80000000000e-01	3.10360269081e+01	-2.28744469831e+00
4.90000000000e-01	3.10595960096e+01	-2.31852604728e+00
5.00000000000e-01	3.10836204523e+01	-2.34884843509e+00
5.10000000000e-01	3.11080974365e+01	-2.37845688299e+00
5.20000000000e-01	3.11330240983e+01	-2.40739389730e+00
5.30000000000e-01	3.11583975325e+01	-2.43569969640e+00
5.40000000000e-01	3.11842147986e+01	-2.46341241326e+00
5.50000000000e-01	3.12104729296e+01	-2.49056827696e+00
5.60000000000e-01	3.12371689268e+01	-2.51720177578e+00
5.70000000000e-01	3.12642997624e+01	-2.54334580417e+00
5.80000000000e-01	3.12918623937e+01	-2.56903179557e+00
5.90000000000e-01	3.13198537609e+01	-2.59428984282e+00
6.00000000000e-01	3.13482707804e+01	-2.61914880755e+00
6.10000000000e-01	3.13771103780e+01	-2.64363641993e+00
6.20000000000e-01	3.14063694509e+01	-2.66777936969e+00
6.30000000000e-01	3.14360449102e+01	-2.69160338962e+00
6.40000000000e-01	3.14661336619e+01	-2.71513333219e+00
6.50000000000e-01	3.14966326137e+01	-2.73839324017e+00
6.60000000000e-01	3.15275386882e+01	-2.76140641192e+00
6.70000000000e-01	3.15588488141e+01	-2.78419546184e+00
6.80000000000e-01	3.15905599346e+01	-2.80678237668e+00
6.90000000000e-01	3.16226690188e+01	-2.82918856807e+00
7.00000000000e-01	3.16551730389e+01	-2.85143492188e+00
7.10000000000e-01	3.16880690083e+01	-2.87354184466e+00
7.20000000000e-01	3.17213539562e+01	-2.89552930767e+00
7.30000000000e-01	3.17550249401e+01	-2.91741688895e+00
7.40000000000e-01	3.17890790538e+01	-2.93922381357e+00
7.50000000000e-01	3.18235134201e+01	-2.96096899264e+00
7.60000000000e-01	3.18583251920e+01	-2.98267106138e+00
7.70000000000e-01	3.18935115617e+01	-3.00434841649e+00
7.80000000000e-01	3.19290697592e+01	-3.02601925337e+00
7.90000000000e-01	3.19649970538e+01	-3.04770160336e+00
8.00000000000e-01	3.20012907498e+01	-3.06941337156e+00
8.10000000000e-01	3.20379481874e+01	-3.09117237556e+00
8.20000000000e-01	3.20749667496e+01	-3.11299638552e+00
8.30000000000e-01	3.21123438600e+01	-3.13490316606e+00
8.40000000000e-01	3.21500769742e+01	-3.15691052048e+00
8.50000000000e-01	3.21881635935e+01	-3.17903633801e+00
8.60000000000e-01	3.22266012415e+01	-3.20129864438e+00
8.70000000000e-01	3.22653874881e+01	-3.22371565689e+00
8.80000000000e-01	3.23045199278e+01	-3.24630584430e+00
8.90000000000e-01	3.23439961897e+01	-3.26908799281e+00
9.00000000000e-01	3.23838139311e+01	-3.29208127894e+00
9.10000000000e-01	3.24239708275e+01	-3.31530535063e+00
9.20000000000e-01	3.24644645790e+01	-3.33878041788e+00
9.30000000000e-01	3.25052929020e+01	-3.36252735459e+00
9.40000000000e-01	3.25464535374e+01	-3.38656781342e+00
9.50000000000e-01	3.25879442201e+01	-3.41092435604e+00
9.60000000000e-01	3.26297627030e+01	-3.43562060136e+00
9.70000000000e-01	3.26719067381e+01	-3.46068139490e+00
9.80000000000e-01	3.27143740738e+01	-3.48613300325e+00
9.90000000000e-01	3.27571624587e+01	-3.51200333826e+00
1.00000000000e+00	3.28002696228e+01	-3.53832221652e+00
1.01000000000e+00	3.28436932862e+01	-3.56512166133e+00
1.02000000000e+00	3.28874311401e+01	-3.59243625566e+00
1.03000000000e+00	3.29314808634e+01	-3.62030355680e+00
1.04000000000e+00	3.29758401001e+01	-3.64876458646e+00
1.05000000000e+00	3.30205064602e+01	-3.67786441306e+00
1.06000000000e+00	3.30654775172e+01	-3.70765284832e+00
1.07000000000e+00	3.31107508143e+01	-3.73818528600e+00
1.08000000000e+00	3.31563238321e+01	-3.76952371939e+00
1.09000000000e+00	3.32021940169e+01	-3.80173798549e+00
1.10000000000e+00	3.32483587562e+01	-3.83490729945e+00
1.11000000000e+00	3.32948153954e+01	-3.86912216509e+00
1.12000000000e+00	3.33415612187e+01	-3.90448677802e+00
1.13000000000e+00	3.33885934438e+01	-3.94112208283e+00
1.14000000000e+00	3.34359092396e+01	-3.97916971098e+00
1.15000000000e+00	3.34835057140e+01	-4.01879712332e+00
1.16000000000e+00	3.35313799151e+01	-4.06020442968e+00
1.17000000000e+00	3.35795288268e+01	-4.10363358904e+00
1.18000000000e+00	3.36279493641e+01	-4.14938106477e+00
1.19000000000e+00	3.36766383980e+01	-4.19781562100e+00
1.20000000000e+00	3.37255927299e+01	-4.24940399279e+00
1.21000000000e+00	3.37748091019e+01	-4.30474902270e+00
1.22000000000e+00	3.38242842040e+01	-4.36464832215e+00
1.23000000000e+00	3.38740146691e+01	-4.43018833488e+00
1.24000000000e+00	3.39239970825e+01	-4.50290301184e+00
1.25000000000e+00	3.39742279681e+01	-4.58505897254e+00
1.26000000000e+00	3.40247038160e+01	-4.68021152714e+00
1.27000000000e+00	3.40754210672e+01	-4.79441439528e+00
1.28000000000e+00	3.41263761226e+01	-4.93929790506e+00
1.29000000000e+00	3.41775653469e+01	-5.14210418850e+00
1.30000000000e+00	3.42289850688e+01	-5.49885995208e+00
1.31000000000e+00	3.42806315933e+01	-6.20271604584e+00
1.32000000000e+00	3.43325011954e+01	-5.37736698673e+00
1.33000000000e+00	3.43845901302e+01	-5.12258821237e+00
1.34000000000e+00	3.44368946358e+01	-4.97155438702e+00
1.35000000000e+00	3.44894109320e+01	-4.86606946160e+00
1.36000000000e+00	3.45421352321e+01	-4.78632113721e+00
1.37000000000e+00	3.45950637456e+01	-4.72314128984e+00
1.38000000000e+00	3.46481926732e+01	-4.67152687613e+00
1.39000000000e+00	3.47015182200e+01	-4.62844529537e+00
1.40000000000e+00	3.47550365935e+01	-4.59191836989e+00
1.41000000000e+00	3.48087440128e+01	-4.56058362776e+00
1.42000000000e+00	3.48626367024e+01	-4.53346241833e+00
1.43000000000e+00	3.49167109018e+01	-4.50982786622e+00
1.44000000000e+00	3.49709628727e+01	-4.48912514694e+00
1.45000000000e+00	3.50253888855e+01	-4.47092102277e+00
1.46000000000e+00	3.50799852439e+01	-4.45487062907e+00
1.47000000000e+00	3.51347482635e+01	-4.44069488550e+00
1.48000000000e+00	3.51896743007e+01	-4.42816469769e+00
1.49000000000e+00	3.52447597266e+01	-4.41708963827e+00
1.50000000000e+00	3.53000009526e+01	-4.40730966448e+00
1.51000000000e+00	3.53553944097e+01	-4.39868894447e+00
1.52000000000e+00	3.54109365750e+01	-4.39111117906e+00
1.53000000000e+00	3.54666239502e+01	-4.38447600424e+00
1.54000000000e+00	3.55224530823e+01	-4.37869618786e+00
1.55000000000e+00	3.55784205435e+01	-4.37369541906e+00
1.56000000000e+00	3.56345229523e+01	-4.36940654592e+00
1.57000000000e+00	3.56907569643e+01	-4.36577015650e+00
1.58000000000e+00	3.57471192676e+01	-4.36273342591e+00
1.59000000000e+00	3.58036066052e+01	-4.36024917171e+00
1.60000000000e+00	3.58602157383e+01	-4.35827507381e+00
1.61000000000e+00	3.59169434855e+01	-4.35677302579e+00
1.62000000000e+00	3.59737866994e+01	-4.35570859175e+00
1.63000000000e+00	3.60307422727e+01	-4.35505054870e+00
1.64000000000e+00	3.60878071442e+01	-4.35477049883e+00
1.65000000000e+00	3.61449782854e+01	-4.35484253914e+00
1.66000000000e+00	3.62022527168e+01	-4.35524297845e+00
1.67000000000e+00	3.62596274929e+01	-4.35595009396e+00
1.68000000000e+00	3.63170997128e+01	-4.35694392077e+00
1.69000000000e+00	3.63746665106e+01	-4.35820606905e+00
1.70000000000e+00	3.64323250700e+01	-4.35971956484e+00
1.71000000000e+00	3.64900726089e+01	-4.36146871053e+00
1.72000000000e+00	3.65479063774e+01	-4.36343896245e+00
1.73000000000e+00	3.66058236797e+01	-4.36561682296e+00
1.74000000000e+00	3.66638218481e+01	-4.36798974492e+00
1.75000000000e+00	3.67218982501e+01	-4.37054604710e+00
1.76000000000e+00	3.67800503075e+01	-4.37327483876e+00
1.77000000000e+00	3.68382754605e+01	-4.37616595248e+00
1.78000000000e+00	3.68965711951e+01	-4.37920988393e+00
1.79000000000e+00	3.69549350375e+01	-4.38239773794e+00
1.80000000000e+00	3.70133645469e+01	-4.38572117990e+00
1.81000000000e+00	3.70718573114e+01	-4.38917239205e+00
1.82000000000e+00	3.71304109655e+01	-4.39274403386e+00
1.83000000000e+00	3.71890231725e+01	-4.39642920625e+00
1.84000000000e+00	3.72476916276e+01	-4.40022141905e+00
1.85000000000e+00	3.73064140677e+01	-4.40411456145e+00
1.86000000000e+00	3.73651882522e+01	-4.40810287501e+00
1.87000000000e+00	3.74240119848e+01	-4.41218092914e+00
1.88000000000e+00	3.74828830934e+01	-4.41634359853e+00
1.89000000000e+00	3.75417994391e+01	-4.42058604257e+00
1.90000000000e+00	3.76007589247e+01	-4.42490368646e+00
1.91000000000e+00	3.76597594642e+01	-4.42929220380e+00
1.92000000000e+00	3.77187990269e+01	-4.43374750059e+00
1.93000000000e+00	3.77778755911e+01	-4.43826570052e+00
1.94000000000e+00	3.78369871695e+01	-4.44284313129e+00
1.95000000000e+00	3.78961318115e+01	-4.44747631208e+00
1.96000000000e+00	3.79553075940e+01	-4.45216194189e+00
1.97000000000e+00	3.80145126237e+01	-4.45689688870e+00
1.98000000000e+00	3.80737450212e+01	-4.46167817953e+00
1.99000000000e+00	3.81330029564e+01	-4.46650299105e+00
2.00000000000e+00	3.81922846121e+01	-4.47136864098e+00
2.01000000000e+00	3.82515882030e+01	-4.47627258000e+00
2.02000000000e+00	3.83109119665e+01	-4.48121238426e+00
2.03000000000e+00	3.83702541757e+01	-4.48618574838e+00
2.04000000000e+00	3.84296131223e+01	-4.49119047886e+00
2.05000000000e+00	3.84889871192e+01	-4.49622448802e+00
2.06000000000e+00	3.85483745174e+01	-4.50128578824e+00
2.07000000000e+00	3.86077736802e+01	-4.50637248661e+00
2.08000000000e+00	3.86671830034e+01	-4.51148277992e+00
2.09000000000e+00	3.87266009152e+01	-4.51661494993e+00
2.10000000000e+00	3.87860258392e+01	-4.52176735898e+00
2.11000000000e+00	3.88454562575e+01	-4.52693844580e+00
2.12000000000e+00	3.89048906452e+01	-4.53212672162e+00
2.13000000000e+00	3.89643275309e+01	-4.53733076651e+00
2.14000000000e+00	3.90237654388e+01	-4.54254922591e+00
2.15000000000e+00	3.90832029294e+01	-4.54778080738e+00
2.16000000000e+00	3.91426385867e+01	-4.55302427750e+00
2.17000000000e+00	3.92020710069e+01	-4.55827845904e+00
2.18000000000e+00	3.92614988163e+01	-4.56354222814e+00
2.19000000000e+00	3.93209206669e+01	-4.56881451181e+00
2.20000000000e+00	3.93803352171e+01	-4.57409428545e+00
2.21000000000e+00	3.94397411609e+01	-4.57938057053e+00
2.22000000000e+00	3.94991371986e+01	-4.58467243245e+00
2.23000000000e+00	3.95585220689e+01	-4.58996897846e+00
2.24000000000e+00	3.96178945117e+01	-4.59526935569e+00
2.25000000000e+00	3.96772533059e+01	-4.60057274932e+00
2.26000000000e+00	3.97365972335e+01	-4.60587838082e+00
2.27000000000e+00	3.97959251076e+01	-4.61118550628e+00
2.28000000000e+00	3.98552357513e+01	-4.61649341482e+00
2.29000000000e+00	3.99145280086e+01	-4.62180142715e+00
2.30000000000e+00	3.99738007598e+01	-4.62710889407e+00
2.31000000000e+00	4.00330528747e+01	-4.63241519517e+00
2.32000000000e+00	4.00922832638e+01	-4.63771973754e+00
2.33000000000e+00	4.01514908429e+01	-4.64302195452e+00
2.34000000000e+00	4.02106745532e+01	-4.64832130458e+00
2.35000000000e+00	4.02698333496e+01	-4.65361727021e+00
2.36000000000e+00	4.03289662097e+01	-4.65890935684e+00
2.37000000000e+00	4.03880721219e+01	-4.66419709186e+00
2.38000000000e+00	4.04471500986e+01	-4.66948002368e+00
2.39000000000e+00	4.05061991606e+01	-4.67475772079e+00
2.40000000000e+00	4.05652183564e+01	-4.68002977093e+00
2.41000000000e+00	4.06242067397e+01	-4.68529578025e+00
2.42000000000e+00	4.06831633867e+01	-4.69055537251e+00
2.43000000000e+00	4.07420873917e+01	-4.69580818837e+00
2.44000000000e+00	4.08009778596e+01	-4.70105388462e+00
2.45000000000e+00	4.08598339129e+01	-4.70629213355e+00
2.46000000000e+00	4.09186546896e+01	-4.71152262225e+00
2.47000000000e+00	4.09774393514e+01	-4.71674505204e+00
2.48000000000e+00	4.10361870602e+01	-4.72195913783e+00
2.49000000000e+00	4.10948970001e+01	-4.72716460756e+00
2.50000000000e+00	4.11535683777e+01	-4.73236120168e+00
2.51000000000e+00	4.12122004023e+01	-4.73754867261e+00
2.52000000000e+00	4.12707923055e+01	-4.74272678425e+00
2.53000000000e+00	4.13293433245e+01	-4.74789531149e+00
2.54000000000e+00	4.13878527232e+01	-4.75305403979e+00
2.55000000000e+00	4.14463197654e+01	-4.75820276470e+00
2.56000000000e+00	4.15047437539e+01	-4.76334129148e+00
2.57000000000e+00	4.15631239638e+01	-4.76846943468e+00
2.58000000000e+00	4.16214597286e+01	-4.77358701777e+00
2.59000000000e+00	4.16797503596e+01	-4.77869387275e+00
2.60000000000e+00	4.17379952017e+01	-4.78378983983e+00
2.61000000000e+00	4.17961936053e+01	-4.78887476709e+00
2.62000000000e+00	4.18543449417e+01	-4.79394851013e+00
2.63000000000e+00	4.19124485850e+01	-4.79901093179e+00
2.64000000000e+00	4.19705039207e+01	-4.80406190183e+00
2.65000000000e+00	4.20285103563e+01	-4.80910129665e+00
2.66000000000e+00	4.20864673122e+01	-4.81412899906e+00
2.67000000000e+00	4.21443742029e+01	-4.81914489793e+00
2.68000000000e+00	4.22022304768e+01	-4.82414888803e+00
2.69000000000e+00	4.22600355819e+01	-4.82914086972e+00
2.70000000000e+00	4.23177889839e+01	-4.83412074876e+00
