# kz [1/micrones]     Omega [THz]    |det|$\mu_c$ = 0.300 eV, $\eta$ = 0.80, modo = 1, R = 0.50$\mu$m, solve_det_conkz3.py
1.00000000000e-01	2.15931671735e+01	-2.46028860158e-01
1.10000000000e-01	2.15967698836e+01	-5.76298706830e-01
1.20000000000e-01	2.16006812419e+01	-8.43981514845e-01
1.30000000000e-01	2.16049210484e+01	-1.07335379071e+00
1.40000000000e-01	2.16094998987e+01	-1.27729865330e+00
1.50000000000e-01	2.16144242764e+01	-1.46366691524e+00
1.60000000000e-01	2.16196985179e+01	-1.63779438121e+00
1.70000000000e-01	2.16253257034e+01	-1.80369602039e+00
1.80000000000e-01	2.16313080935e+01	-1.96473870486e+00
1.90000000000e-01	2.16376473962e+01	-2.12411563153e+00
2.00000000000e-01	2.16443449050e+01	-2.28530578588e+00
2.10000000000e-01	2.16514015997e+01	-2.45270899449e+00
2.20000000000e-01	2.16588182095e+01	-2.63282845589e+00
2.30000000000e-01	2.16665952541e+01	-2.83707603300e+00
2.40000000000e-01	2.16747330715e+01	-3.09047979301e+00
2.50000000000e-01	2.16832318531e+01	-3.47424013359e+00
2.60000000000e-01	2.16920916472e+01	-4.73411682953e+00
2.70000000000e-01	2.17013123831e+01	-3.55022318115e+00
2.80000000000e-01	2.17108938788e+01	-3.32147659733e+00
2.90000000000e-01	2.17208358124e+01	-3.20687750435e+00
3.00000000000e-01	2.17311379121e+01	-3.13899142522e+00
3.10000000000e-01	2.17417995953e+01	-3.09613848223e+00
3.20000000000e-01	2.17528203546e+01	-3.06860735416e+00
3.30000000000e-01	2.17641995553e+01	-3.05123321265e+00
3.40000000000e-01	2.17759364950e+01	-3.04095931804e+00
3.50000000000e-01	2.17880303908e+01	-3.03583901864e+00
3.60000000000e-01	2.18004804021e+01	-3.03456462334e+00
3.70000000000e-01	2.18132856205e+01	-3.03622129162e+00
3.80000000000e-01	2.18264450691e+01	-3.04014832138e+00
3.90000000000e-01	2.18399577164e+01	-3.04585619747e+00
4.00000000000e-01	2.18538224757e+01	-3.05297457132e+00
4.10000000000e-01	2.18680381970e+01	-3.06121834096e+00
4.20000000000e-01	2.18826036792e+01	-3.07036480140e+00
4.30000000000e-01	2.18975176716e+01	-3.08023782158e+00
4.40000000000e-01	2.19127788658e+01	-3.09069662450e+00
4.50000000000e-01	2.19283859092e+01	-3.10162766641e+00
4.60000000000e-01	2.19443373994e+01	-3.11293865229e+00
4.70000000000e-01	2.19606318850e+01	-3.12455405532e+00
4.80000000000e-01	2.19772678768e+01	-3.13641171470e+00
4.90000000000e-01	2.19942438327e+01	-3.14846021950e+00
5.00000000000e-01	2.20115581675e+01	-3.16065687423e+00
5.10000000000e-01	2.20292092629e+01	-3.17296610031e+00
5.20000000000e-01	2.20471954491e+01	-3.18535816849e+00
5.30000000000e-01	2.20655150219e+01	-3.19780818509e+00
5.40000000000e-01	2.20841662393e+01	-3.21029527506e+00
5.50000000000e-01	2.21031473150e+01	-3.22280191878e+00
5.60000000000e-01	2.21224564313e+01	-3.23531341038e+00
5.70000000000e-01	2.21420917327e+01	-3.24781741248e+00
5.80000000000e-01	2.21620513298e+01	-3.26030358819e+00
5.90000000000e-01	2.21823332953e+01	-3.27276329549e+00
6.00000000000e-01	2.22029356721e+01	-3.28518933208e+00
6.10000000000e-01	2.22238564630e+01	-3.29757572148e+00
6.20000000000e-01	2.22450936520e+01	-3.30991753300e+00
6.30000000000e-01	2.22666451791e+01	-3.32221072963e+00
6.40000000000e-01	2.22885089614e+01	-3.33445203901e+00
6.50000000000e-01	2.23106828846e+01	-3.34663884367e+00
6.60000000000e-01	2.23331648021e+01	-3.35876908742e+00
6.70000000000e-01	2.23559525477e+01	-3.37084119518e+00
6.80000000000e-01	2.23790439206e+01	-3.38285400426e+00
6.90000000000e-01	2.24024366964e+01	-3.39480670520e+00
7.00000000000e-01	2.24261286249e+01	-3.40669879085e+00
7.10000000000e-01	2.24501174306e+01	-3.41853001239e+00
7.20000000000e-01	2.24744008166e+01	-3.43030034123e+00
7.30000000000e-01	2.24989764597e+01	-3.44200993609e+00
7.40000000000e-01	2.25238420136e+01	-3.45365911440e+00
7.50000000000e-01	2.25489951127e+01	-3.46524832744e+00
7.60000000000e-01	2.25744333727e+01	-3.47677813879e+00
7.70000000000e-01	2.26001543804e+01	-3.48824920556e+00
7.80000000000e-01	2.26261557154e+01	-3.49966226202e+00
7.90000000000e-01	2.26524349306e+01	-3.51101810542e+00
8.00000000000e-01	2.26789895587e+01	-3.52231758364e+00
8.10000000000e-01	2.27058171279e+01	-3.53356158435e+00
8.20000000000e-01	2.27329151339e+01	-3.54475102576e+00
8.30000000000e-01	2.27602810663e+01	-3.55588684843e+00
8.40000000000e-01	2.27879124020e+01	-3.56697000827e+00
8.50000000000e-01	2.28158065977e+01	-3.57800147043e+00
8.60000000000e-01	2.28439611006e+01	-3.58898220405e+00
8.70000000000e-01	2.28723733427e+01	-3.59991317776e+00
8.80000000000e-01	2.29010407499e+01	-3.61079535577e+00
8.90000000000e-01	2.29299607337e+01	-3.62162969461e+00
9.00000000000e-01	2.29591306914e+01	-3.63241714030e+00
9.10000000000e-01	2.29885480187e+01	-3.64315862603e+00
9.20000000000e-01	2.30182101002e+01	-3.65385507016e+00
9.30000000000e-01	2.30481143083e+01	-3.66450737465e+00
9.40000000000e-01	2.30782580135e+01	-3.67511642372e+00
9.50000000000e-01	2.31086385766e+01	-3.68568308284e+00
9.60000000000e-01	2.31392533599e+01	-3.69620819793e+00
9.70000000000e-01	2.31700997134e+01	-3.70669259478e+00
9.80000000000e-01	2.32011749817e+01	-3.71713707864e+00
9.90000000000e-01	2.32324765152e+01	-3.72754243402e+00
1.00000000000e+00	2.32640016549e+01	-3.73790942457e+00
1.01000000000e+00	2.32957477400e+01	-3.74823879314e+00
1.02000000000e+00	2.33277121067e+01	-3.75853126193e+00
1.03000000000e+00	2.33598921024e+01	-3.76878753272e+00
1.04000000000e+00	2.33922850581e+01	-3.77900828722e+00
1.05000000000e+00	2.34248883214e+01	-3.78919418749e+00
1.06000000000e+00	2.34576992299e+01	-3.79934587637e+00
1.07000000000e+00	2.34907151224e+01	-3.80946397802e+00
1.08000000000e+00	2.35239333572e+01	-3.81954909851e+00
1.09000000000e+00	2.35573512741e+01	-3.82960182638e+00
1.10000000000e+00	2.35909662291e+01	-3.83962273333e+00
1.11000000000e+00	2.36247755856e+01	-3.84961237483e+00
1.12000000000e+00	2.36587767045e+01	-3.85957129088e+00
1.13000000000e+00	2.36929669564e+01	-3.86950000663e+00
1.14000000000e+00	2.37273437138e+01	-3.87939903316e+00
1.15000000000e+00	2.37619043689e+01	-3.88926886815e+00
1.16000000000e+00	2.37966463029e+01	-3.89910999666e+00
1.17000000000e+00	2.38315669185e+01	-3.90892289184e+00
1.18000000000e+00	2.38666636257e+01	-3.91870801565e+00
1.19000000000e+00	2.39019338366e+01	-3.92846581961e+00
1.20000000000e+00	2.39373749816e+01	-3.93819674551e+00
1.21000000000e+00	2.39729844917e+01	-3.94790122615e+00
1.22000000000e+00	2.40087598169e+01	-3.95757968604e+00
1.23000000000e+00	2.40446984111e+01	-3.96723254210e+00
1.24000000000e+00	2.40807977467e+01	-3.97686020436e+00
1.25000000000e+00	2.41170553006e+01	-3.98646307667e+00
1.26000000000e+00	2.41534685657e+01	-3.99604155733e+00
1.27000000000e+00	2.41900350478e+01	-4.00559603980e+00
1.28000000000e+00	2.42267522616e+01	-4.01512691329e+00
1.29000000000e+00	2.42636177410e+01	-4.02463456348e+00
1.30000000000e+00	2.43006290259e+01	-4.03411937308e+00
1.31000000000e+00	2.43377836809e+01	-4.04358172247e+00
1.32000000000e+00	2.43750792727e+01	-4.05302199029e+00
1.33000000000e+00	2.44125133877e+01	-4.06244055405e+00
1.34000000000e+00	2.44500836325e+01	-4.07183779070e+00
1.35000000000e+00	2.44877876183e+01	-4.08121407718e+00
1.36000000000e+00	2.45256229756e+01	-4.09056979097e+00
1.37000000000e+00	2.45635873537e+01	-4.09990531068e+00
1.38000000000e+00	2.46016784218e+01	-4.10922101650e+00
1.39000000000e+00	2.46398938498e+01	-4.11851729081e+00
1.40000000000e+00	2.46782313335e+01	-4.12779451861e+00
1.41000000000e+00	2.47166885836e+01	-4.13705308807e+00
1.42000000000e+00	2.47552633330e+01	-4.14629339101e+00
1.43000000000e+00	2.47939533196e+01	-4.15551582338e+00
1.44000000000e+00	2.48327563101e+01	-4.16472078573e+00
1.45000000000e+00	2.48716700771e+01	-4.17390868369e+00
1.46000000000e+00	2.49106924212e+01	-4.18307992843e+00
1.47000000000e+00	2.49498211493e+01	-4.19223493710e+00
1.48000000000e+00	2.49890540990e+01	-4.20137413330e+00
1.49000000000e+00	2.50283891074e+01	-4.21049794751e+00
1.50000000000e+00	2.50678240488e+01	-4.21960681756e+00
1.51000000000e+00	2.51073568020e+01	-4.22870118903e+00
1.52000000000e+00	2.51469852645e+01	-4.23778151573e+00
1.53000000000e+00	2.51867073588e+01	-4.24684826009e+00
1.54000000000e+00	2.52265210193e+01	-4.25590189365e+00
1.55000000000e+00	2.52664242000e+01	-4.26494289744e+00
1.56000000000e+00	2.53064148699e+01	-4.27397176245e+00
1.57000000000e+00	2.53464910206e+01	-4.28298899008e+00
1.58000000000e+00	2.53866506604e+01	-4.29199509254e+00
1.59000000000e+00	2.54268918130e+01	-4.30099059333e+00
1.60000000000e+00	2.54672125263e+01	-4.30997602766e+00
1.61000000000e+00	2.55076108582e+01	-4.31895194295e+00
1.62000000000e+00	2.55480848852e+01	-4.32791889923e+00
1.63000000000e+00	2.55886327130e+01	-4.33687746966e+00
1.64000000000e+00	2.56292524502e+01	-4.34582824097e+00
1.65000000000e+00	2.56699422316e+01	-4.35477181397e+00
1.66000000000e+00	2.57107002085e+01	-4.36370880403e+00
1.67000000000e+00	2.57515245479e+01	-4.37263984156e+00
1.68000000000e+00	2.57924134466e+01	-4.38156557259e+00
1.69000000000e+00	2.58333650967e+01	-4.39048665923e+00
1.70000000000e+00	2.58743777255e+01	-4.39940378028e+00
1.71000000000e+00	2.59154495741e+01	-4.40831763170e+00
1.72000000000e+00	2.59565788965e+01	-4.41722892729e+00
1.73000000000e+00	2.59977639715e+01	-4.42613839920e+00
1.74000000000e+00	2.60390030871e+01	-4.43504679855e+00
1.75000000000e+00	2.60802945542e+01	-4.44395489610e+00
1.76000000000e+00	2.61216366967e+01	-4.45286348287e+00
1.77000000000e+00	2.61630278582e+01	-4.46177337079e+00
1.78000000000e+00	2.62044664056e+01	-4.47068539344e+00
1.79000000000e+00	2.62459507038e+01	-4.47960040674e+00
1.80000000000e+00	2.62874791539e+01	-4.48851928970e+00
1.81000000000e+00	2.63290501656e+01	-4.49744294519e+00
1.82000000000e+00	2.63706621642e+01	-4.50637230075e+00
1.83000000000e+00	2.64123135898e+01	-4.51530830941e+00
1.84000000000e+00	2.64540029046e+01	-4.52425195057e+00
1.85000000000e+00	2.64957285793e+01	-4.53320423088e+00
1.86000000000e+00	2.65374891077e+01	-4.54216618519e+00
1.87000000000e+00	2.65792829908e+01	-4.55113887751e+00
1.88000000000e+00	2.66211087515e+01	-4.56012340204e+00
1.89000000000e+00	2.66629649288e+01	-4.56912088419e+00
1.90000000000e+00	2.67048500744e+01	-4.57813248172e+00
1.91000000000e+00	2.67467627473e+01	-4.58715938585e+00
1.92000000000e+00	2.67887015405e+01	-4.59620282249e+00
1.93000000000e+00	2.68306650360e+01	-4.60526405343e+00
1.94000000000e+00	2.68726518564e+01	-4.61434437772e+00
1.95000000000e+00	2.69146606146e+01	-4.62344513294e+00
1.96000000000e+00	2.69566899521e+01	-4.63256769668e+00
1.97000000000e+00	2.69987385273e+01	-4.64171348799e+00
1.98000000000e+00	2.70408049915e+01	-4.65088396895e+00
1.99000000000e+00	2.70828880275e+01	-4.66008064628e+00
2.00000000000e+00	2.71249863281e+01	-4.66930507303e+00
2.01000000000e+00	2.71670986027e+01	-4.67855885035e+00
2.02000000000e+00	2.72092235586e+01	-4.68784362935e+00
2.03000000000e+00	2.72513599225e+01	-4.69716111308e+00
2.04000000000e+00	2.72935064437e+01	-4.70651305850e+00
2.05000000000e+00	2.73356618665e+01	-4.71590127869e+00
2.06000000000e+00	2.73778249563e+01	-4.72532764503e+00
2.07000000000e+00	2.74199944891e+01	-4.73479408959e+00
2.08000000000e+00	2.74621692497e+01	-4.74430260761e+00
2.09000000000e+00	2.75043480395e+01	-4.75385526005e+00
2.10000000000e+00	2.75465296583e+01	-4.76345417638e+00
2.11000000000e+00	2.75887129211e+01	-4.77310155737e+00
2.12000000000e+00	2.76308966663e+01	-4.78279967820e+00
2.13000000000e+00	2.76730797223e+01	-4.79255089158e+00
2.14000000000e+00	2.77152609351e+01	-4.80235763110e+00
2.15000000000e+00	2.77574391620e+01	-4.81222241480e+00
2.16000000000e+00	2.77996132673e+01	-4.82214784885e+00
2.17000000000e+00	2.78417821205e+01	-4.83213663153e+00
2.18000000000e+00	2.78839446025e+01	-4.84219155735e+00
2.19000000000e+00	2.79260996048e+01	-4.85231552145e+00
2.20000000000e+00	2.79682460183e+01	-4.86251152426e+00
2.21000000000e+00	2.80103827553e+01	-4.87278267642e+00
2.22000000000e+00	2.80525087176e+01	-4.88313220400e+00
2.23000000000e+00	2.80946228247e+01	-4.89356345402e+00
2.24000000000e+00	2.81367240023e+01	-4.90407990037e+00
2.25000000000e+00	2.81788111796e+01	-4.91468515001e+00
2.26000000000e+00	2.82208832913e+01	-4.92538294965e+00
2.27000000000e+00	2.82629392842e+01	-4.93617719284e+00
2.28000000000e+00	2.83049781004e+01	-4.94707192749e+00
2.29000000000e+00	2.83469986959e+01	-4.95807136395e+00
2.30000000000e+00	2.83890000268e+01	-4.96917988363e+00
2.31000000000e+00	2.84309810600e+01	-4.98040204823e+00
2.32000000000e+00	2.84729407578e+01	-4.99174260958e+00
2.33000000000e+00	2.85148780902e+01	-5.00320652028e+00
2.34000000000e+00	2.85567920373e+01	-5.01479894508e+00
2.35000000000e+00	2.85986815802e+01	-5.02652527311e+00
2.36000000000e+00	2.86405456976e+01	-5.03839113110e+00
2.37000000000e+00	2.86823833828e+01	-5.05040239764e+00
2.38000000000e+00	2.87241936216e+01	-5.06256521853e+00
2.39000000000e+00	2.87659754162e+01	-5.07488602351e+00
2.40000000000e+00	2.88077277593e+01	-5.08737154430e+00
2.41000000000e+00	2.88494496575e+01	-5.10002883424e+00
2.42000000000e+00	2.88911401102e+01	-5.11286528970e+00
2.43000000000e+00	2.89327981301e+01	-5.12588867334e+00
2.44000000000e+00	2.89744227312e+01	-5.13910713962e+00
2.45000000000e+00	2.90160129318e+01	-5.15252926266e+00
2.46000000000e+00	2.90575677414e+01	-5.16616406680e+00
2.47000000000e+00	2.90990862009e+01	-5.18002106027e+00
2.48000000000e+00	2.91405673260e+01	-5.19411027220e+00
2.49000000000e+00	2.91820101532e+01	-5.20844229354e+00
2.50000000000e+00	2.92234137230e+01	-5.22302832235e+00
2.51000000000e+00	2.92647770760e+01	-5.23788021407e+00
2.52000000000e+00	2.93060992627e+01	-5.25301053742e+00
2.53000000000e+00	2.93473793307e+01	-5.26843263682e+00
2.54000000000e+00	2.93886163516e+01	-5.28416070210e+00
2.55000000000e+00	2.94298093882e+01	-5.30020984689e+00
2.56000000000e+00	2.94709575166e+01	-5.31659619662e+00
2.57000000000e+00	2.95120598164e+01	-5.33333698800e+00
2.58000000000e+00	2.95531153821e+01	-5.35045068160e+00
2.59000000000e+00	2.95941233191e+01	-5.36795708982e+00
2.60000000000e+00	2.96350827413e+01	-5.38587752275e+00
