# kz [1/micrones]     Omega [THz]    |det|$\mu_c$ = 0.800 eV, $\eta$ = 0.92, modo = 1, R = 0.50$\mu$m, solve_det_conkz3.py
2.50000000000e-01	3.52081223203e+01	-1.39315734629e+00
2.60000000000e-01	3.52227941193e+01	-1.46576610044e+00
2.70000000000e-01	3.52380467007e+01	-1.53348242241e+00
2.80000000000e-01	3.52538809496e+01	-1.59689807340e+00
2.90000000000e-01	3.52702973546e+01	-1.65650461789e+00
3.00000000000e-01	3.52872960425e+01	-1.71271529090e+00
3.10000000000e-01	3.53048768359e+01	-1.76588111109e+00
3.20000000000e-01	3.53230393382e+01	-1.81630297998e+00
3.30000000000e-01	3.53417828910e+01	-1.86424092132e+00
3.40000000000e-01	3.53611066525e+01	-1.90992124404e+00
3.50000000000e-01	3.53810096339e+01	-1.95354217133e+00
3.60000000000e-01	3.54014906131e+01	-1.99527831945e+00
3.70000000000e-01	3.54225482770e+01	-2.03528430115e+00
3.80000000000e-01	3.54441811449e+01	-2.07369765483e+00
3.90000000000e-01	3.54663876107e+01	-2.11064124756e+00
4.00000000000e-01	3.54891659569e+01	-2.14622526365e+00
4.10000000000e-01	3.55125143348e+01	-2.18054886293e+00
4.20000000000e-01	3.55364308172e+01	-2.21370157364e+00
4.30000000000e-01	3.55609132965e+01	-2.24576447027e+00
4.40000000000e-01	3.55859596574e+01	-2.27681117543e+00
4.50000000000e-01	3.56115676169e+01	-2.30690871699e+00
4.60000000000e-01	3.56377348574e+01	-2.33611826523e+00
4.70000000000e-01	3.56644589090e+01	-2.36449576972e+00
4.80000000000e-01	3.56917372060e+01	-2.39209251231e+00
4.90000000000e-01	3.57195673435e+01	-2.41895558879e+00
5.00000000000e-01	3.57479464685e+01	-2.44512833098e+00
5.10000000000e-01	3.57768718003e+01	-2.47065067664e+00
5.20000000000e-01	3.58063405839e+01	-2.49555949607e+00
5.30000000000e-01	3.58363498744e+01	-2.51988888053e+00
5.40000000000e-01	3.58668967056e+01	-2.54367039807e+00
5.50000000000e-01	3.58979780370e+01	-2.56693332105e+00
5.60000000000e-01	3.59295907435e+01	-2.58970482898e+00
5.70000000000e-01	3.59617316520e+01	-2.61201018984e+00
5.80000000000e-01	3.59943975377e+01	-2.63387292259e+00
5.90000000000e-01	3.60275850900e+01	-2.65531494313e+00
6.00000000000e-01	3.60612909693e+01	-2.67635669567e+00
6.10000000000e-01	3.60955117599e+01	-2.69701727125e+00
6.20000000000e-01	3.61302440009e+01	-2.71731451488e+00
6.30000000000e-01	3.61654841793e+01	-2.73726512257e+00
6.40000000000e-01	3.62012287340e+01	-2.75688472933e+00
6.50000000000e-01	3.62374740487e+01	-2.77618798924e+00
6.60000000000e-01	3.62742164638e+01	-2.79518864827e+00
6.70000000000e-01	3.63114522786e+01	-2.81389961077e+00
6.80000000000e-01	3.63491777496e+01	-2.83233300018e+00
6.90000000000e-01	3.63873890911e+01	-2.85050021459e+00
7.00000000000e-01	3.64260824723e+01	-2.86841197760e+00
7.10000000000e-01	3.64652540276e+01	-2.88607838510e+00
7.20000000000e-01	3.65048998691e+01	-2.90350894816e+00
7.30000000000e-01	3.65450160518e+01	-2.92071263254e+00
7.40000000000e-01	3.65855986203e+01	-2.93769789511e+00
7.50000000000e-01	3.66266435730e+01	-2.95447271741e+00
7.60000000000e-01	3.66681468766e+01	-2.97104463669e+00
7.70000000000e-01	3.67101044827e+01	-2.98742077461e+00
7.80000000000e-01	3.67525123174e+01	-3.00360786379e+00
7.90000000000e-01	3.67953662671e+01	-3.01961227244e+00
8.00000000000e-01	3.68386622083e+01	-3.03544002722e+00
8.10000000000e-01	3.68823959901e+01	-3.05109683444e+00
8.20000000000e-01	3.69265634449e+01	-3.06658809984e+00
8.30000000000e-01	3.69711603876e+01	-3.08191894690e+00
8.40000000000e-01	3.70161826113e+01	-3.09709423397e+00
8.50000000000e-01	3.70616258886e+01	-3.11211857025e+00
8.60000000000e-01	3.71074859960e+01	-3.12699633061e+00
8.70000000000e-01	3.71537586761e+01	-3.14173166954e+00
8.80000000000e-01	3.72004396722e+01	-3.15632853410e+00
8.90000000000e-01	3.72475247178e+01	-3.17079067611e+00
9.00000000000e-01	3.72950095313e+01	-3.18512166346e+00
9.10000000000e-01	3.73428898259e+01	-3.19932489078e+00
9.20000000000e-01	3.73911613159e+01	-3.21340358944e+00
9.30000000000e-01	3.74398196906e+01	-3.22736083683e+00
9.40000000000e-01	3.74888606592e+01	-3.24119956521e+00
9.50000000000e-01	3.75382799126e+01	-3.25492256989e+00
9.60000000000e-01	3.75880731415e+01	-3.26853251698e+00
9.70000000000e-01	3.76382360440e+01	-3.28203195064e+00
9.80000000000e-01	3.76887643053e+01	-3.29542329992e+00
9.90000000000e-01	3.77396536307e+01	-3.30870888516e+00
1.00000000000e+00	3.77908997064e+01	-3.32189092404e+00
1.01000000000e+00	3.78424982373e+01	-3.33497153725e+00
1.02000000000e+00	3.78944449326e+01	-3.34795275384e+00
1.03000000000e+00	3.79467354961e+01	-3.36083651625e+00
1.04000000000e+00	3.79993656476e+01	-3.37362468504e+00
1.05000000000e+00	3.80523311133e+01	-3.38631904337e+00
1.06000000000e+00	3.81056276203e+01	-3.39892130121e+00
1.07000000000e+00	3.81592509185e+01	-3.41143309925e+00
1.08000000000e+00	3.82131967509e+01	-3.42385601272e+00
1.09000000000e+00	3.82674608831e+01	-3.43619155484e+00
1.10000000000e+00	3.83220390855e+01	-3.44844118019e+00
1.11000000000e+00	3.83769271454e+01	-3.46060628781e+00
1.12000000000e+00	3.84321208636e+01	-3.47268822415e+00
1.13000000000e+00	3.84876160438e+01	-3.48468828591e+00
1.14000000000e+00	3.85434085228e+01	-3.49660772257e+00
1.15000000000e+00	3.85994941357e+01	-3.50844773899e+00
1.16000000000e+00	3.86558687400e+01	-3.52020949764e+00
1.17000000000e+00	3.87125282048e+01	-3.53189412089e+00
1.18000000000e+00	3.87694684262e+01	-3.54350269302e+00
1.19000000000e+00	3.88266853056e+01	-3.55503626226e+00
1.20000000000e+00	3.88841747765e+01	-3.56649584259e+00
1.21000000000e+00	3.89419327683e+01	-3.57788241551e+00
1.22000000000e+00	3.89999552530e+01	-3.58919693169e+00
1.23000000000e+00	3.90582382129e+01	-3.60044031256e+00
1.24000000000e+00	3.91167776469e+01	-3.61161345171e+00
1.25000000000e+00	3.91755695794e+01	-3.62271721635e+00
1.26000000000e+00	3.92346100506e+01	-3.63375244860e+00
1.27000000000e+00	3.92938951273e+01	-3.64471996671e+00
1.28000000000e+00	3.93534208959e+01	-3.65562056624e+00
1.29000000000e+00	3.94131834651e+01	-3.66645502118e+00
1.30000000000e+00	3.94731789650e+01	-3.67722408495e+00
1.31000000000e+00	3.95334035512e+01	-3.68792849144e+00
1.32000000000e+00	3.95938533959e+01	-3.69856895588e+00
1.33000000000e+00	3.96545247073e+01	-3.70914617575e+00
1.34000000000e+00	3.97154137020e+01	-3.71966083159e+00
1.35000000000e+00	3.97765166388e+01	-3.73011358779e+00
1.36000000000e+00	3.98378297845e+01	-3.74050509334e+00
1.37000000000e+00	3.98993494358e+01	-3.75083598248e+00
1.38000000000e+00	3.99610719214e+01	-3.76110687540e+00
1.39000000000e+00	4.00229935860e+01	-3.77131837883e+00
1.40000000000e+00	4.00851108065e+01	-3.78147108666e+00
1.41000000000e+00	4.01474199773e+01	-3.79156558044e+00
1.42000000000e+00	4.02099175310e+01	-3.80160242994e+00
1.43000000000e+00	4.02725999168e+01	-3.81158219363e+00
1.44000000000e+00	4.03354636136e+01	-3.82150541916e+00
1.45000000000e+00	4.03985051264e+01	-3.83137264375e+00
1.46000000000e+00	4.04617209908e+01	-3.84118439466e+00
1.47000000000e+00	4.05251077569e+01	-3.85094118954e+00
1.48000000000e+00	4.05886620185e+01	-3.86064353683e+00
1.49000000000e+00	4.06523803905e+01	-3.87029193607e+00
1.50000000000e+00	4.07162595052e+01	-3.87988687827e+00
1.51000000000e+00	4.07802960395e+01	-3.88942884619e+00
1.52000000000e+00	4.08444866809e+01	-3.89891831464e+00
1.53000000000e+00	4.09088281550e+01	-3.90835575076e+00
1.54000000000e+00	4.09733172162e+01	-3.91774161429e+00
1.55000000000e+00	4.10379506468e+01	-3.92707635779e+00
1.56000000000e+00	4.11027252416e+01	-3.93636042689e+00
1.57000000000e+00	4.11676378418e+01	-3.94559426053e+00
1.58000000000e+00	4.12326853146e+01	-3.95477829111e+00
1.59000000000e+00	4.12978645470e+01	-3.96391294477e+00
1.60000000000e+00	4.13631724562e+01	-3.97299864149e+00
1.61000000000e+00	4.14286059954e+01	-3.98203579532e+00
1.62000000000e+00	4.14941621354e+01	-3.99102481451e+00
1.63000000000e+00	4.15598378826e+01	-3.99996610171e+00
1.64000000000e+00	4.16256302692e+01	-4.00886005409e+00
1.65000000000e+00	4.16915363565e+01	-4.01770706346e+00
1.66000000000e+00	4.17575532270e+01	-4.02650751644e+00
1.67000000000e+00	4.18236780080e+01	-4.03526179457e+00
1.68000000000e+00	4.18899078333e+01	-4.04397027443e+00
1.69000000000e+00	4.19562398820e+01	-4.05263332773e+00
1.70000000000e+00	4.20226713597e+01	-4.06125132146e+00
1.71000000000e+00	4.20891994933e+01	-4.06982461794e+00
1.72000000000e+00	4.21558215395e+01	-4.07835357495e+00
1.73000000000e+00	4.22225347832e+01	-4.08683854580e+00
1.74000000000e+00	4.22893365387e+01	-4.09527987943e+00
1.75000000000e+00	4.23562241517e+01	-4.10367792048e+00
1.76000000000e+00	4.24231949896e+01	-4.11203300934e+00
1.77000000000e+00	4.24902464541e+01	-4.12034548227e+00
1.78000000000e+00	4.25573759668e+01	-4.12861567145e+00
1.79000000000e+00	4.26245809792e+01	-4.13684390502e+00
1.80000000000e+00	4.26918589764e+01	-4.14503050717e+00
1.81000000000e+00	4.27592074667e+01	-4.15317579815e+00
1.82000000000e+00	4.28266239863e+01	-4.16128009441e+00
1.83000000000e+00	4.28941060963e+01	-4.16934370854e+00
1.84000000000e+00	4.29616513897e+01	-4.17736694943e+00
1.85000000000e+00	4.30292574834e+01	-4.18535012221e+00
1.86000000000e+00	4.30969220261e+01	-4.19329352837e+00
1.87000000000e+00	4.31646426887e+01	-4.20119746576e+00
1.88000000000e+00	4.32324171618e+01	-4.20906222863e+00
1.89000000000e+00	4.33002431805e+01	-4.21688810770e+00
1.90000000000e+00	4.33681184964e+01	-4.22467539012e+00
1.91000000000e+00	4.34360408873e+01	-4.23242435960e+00
1.92000000000e+00	4.35040081593e+01	-4.24013529633e+00
1.93000000000e+00	4.35720181432e+01	-4.24780847711e+00
1.94000000000e+00	4.36400686961e+01	-4.25544417529e+00
1.95000000000e+00	4.37081577015e+01	-4.26304266084e+00
1.96000000000e+00	4.37762830711e+01	-4.27060420037e+00
1.97000000000e+00	4.38444427428e+01	-4.27812905713e+00
1.98000000000e+00	4.39126346745e+01	-4.28561749104e+00
1.99000000000e+00	4.39808568497e+01	-4.29306975871e+00
2.00000000000e+00	4.40491072872e+01	-4.30048611344e+00
2.01000000000e+00	4.41173840188e+01	-4.30786680526e+00
2.02000000000e+00	4.41856851121e+01	-4.31521208091e+00
2.03000000000e+00	4.42540086468e+01	-4.32252218388e+00
2.04000000000e+00	4.43223527488e+01	-4.32979735441e+00
2.05000000000e+00	4.43907155412e+01	-4.33703782947e+00
2.06000000000e+00	4.44590951855e+01	-4.34424384283e+00
2.07000000000e+00	4.45274898719e+01	-4.35141562501e+00
2.08000000000e+00	4.45958978108e+01	-4.35855340331e+00
2.09000000000e+00	4.46643172328e+01	-4.36565740182e+00
2.10000000000e+00	4.47327463941e+01	-4.37272784139e+00
2.11000000000e+00	4.48011835873e+01	-4.37976493968e+00
2.12000000000e+00	4.48696270953e+01	-4.38676891113e+00
2.13000000000e+00	4.49380752684e+01	-4.39373996696e+00
2.14000000000e+00	4.50065264421e+01	-4.40067831521e+00
2.15000000000e+00	4.50749789950e+01	-4.40758416068e+00
2.16000000000e+00	4.51434313317e+01	-4.41445770496e+00
2.17000000000e+00	4.52118818580e+01	-4.42129914645e+00
2.18000000000e+00	4.52803290241e+01	-4.42810868033e+00
2.19000000000e+00	4.53487712983e+01	-4.43488649854e+00
2.20000000000e+00	4.54172071584e+01	-4.44163278985e+00
2.21000000000e+00	4.54856351237e+01	-4.44834773978e+00
2.22000000000e+00	4.55540537092e+01	-4.45503153064e+00
2.23000000000e+00	4.56224614800e+01	-4.46168434153e+00
2.24000000000e+00	4.56908570105e+01	-4.46830634831e+00
2.25000000000e+00	4.57592388955e+01	-4.47489772366e+00
2.26000000000e+00	4.58276057491e+01	-4.48145863700e+00
2.27000000000e+00	4.58959562039e+01	-4.48798925458e+00
2.28000000000e+00	4.59642889253e+01	-4.49448973941e+00
2.29000000000e+00	4.60326025920e+01	-4.50096025132e+00
2.30000000000e+00	4.61008959024e+01	-4.50740094695e+00
2.31000000000e+00	4.61691675828e+01	-4.51381197975e+00
2.32000000000e+00	4.62374163670e+01	-4.52019350001e+00
2.33000000000e+00	4.63056410171e+01	-4.52654565489e+00
2.34000000000e+00	4.63738403159e+01	-4.53286858840e+00
2.35000000000e+00	4.64420130625e+01	-4.53916244148e+00
2.36000000000e+00	4.65101580758e+01	-4.54542735199e+00
2.37000000000e+00	4.65782742025e+01	-4.55166345479e+00
2.38000000000e+00	4.66463602966e+01	-4.55787088174e+00
2.39000000000e+00	4.67144152340e+01	-4.56404976177e+00
2.40000000000e+00	4.67824379183e+01	-4.57020022098e+00
2.41000000000e+00	4.68504272671e+01	-4.57632238263e+00
2.42000000000e+00	4.69183822066e+01	-4.58241636730e+00
2.43000000000e+00	4.69863017020e+01	-4.58848229292e+00
2.44000000000e+00	4.70541847170e+01	-4.59452027491e+00
2.45000000000e+00	4.71220302490e+01	-4.60053042630e+00
2.46000000000e+00	4.71898373054e+01	-4.60651285783e+00
2.47000000000e+00	4.72576049128e+01	-4.61246767812e+00
2.48000000000e+00	4.73253321120e+01	-4.61839499385e+00
2.49000000000e+00	4.73930179777e+01	-4.62429490992e+00
2.50000000000e+00	4.74606615810e+01	-4.63016752967e+00
2.51000000000e+00	4.75282620262e+01	-4.63601295513e+00
2.52000000000e+00	4.75958184316e+01	-4.64183128723e+00
2.53000000000e+00	4.76633299262e+01	-4.64762262615e+00
2.54000000000e+00	4.77307956638e+01	-4.65338707156e+00
2.55000000000e+00	4.77982148096e+01	-4.65912472302e+00
2.56000000000e+00	4.78655865569e+01	-4.66483568037e+00
2.57000000000e+00	4.79329100992e+01	-4.67052004407e+00
2.58000000000e+00	4.80001846640e+01	-4.67617791574e+00
2.59000000000e+00	4.80674094788e+01	-4.68180939863e+00
2.60000000000e+00	4.81345838067e+01	-4.68741459813e+00
2.61000000000e+00	4.82017069156e+01	-4.69299362241e+00
2.62000000000e+00	4.82687780881e+01	-4.69854658301e+00
2.63000000000e+00	4.83357966262e+01	-4.70407359556e+00
2.64000000000e+00	4.84027618516e+01	-4.70957478050e+00
2.65000000000e+00	4.84696730979e+01	-4.71505026391e+00
2.66000000000e+00	4.85365297208e+01	-4.72050017830e+00
2.67000000000e+00	4.86033310854e+01	-4.72592466360e+00
2.68000000000e+00	4.86700765741e+01	-4.73132386806e+00
2.69000000000e+00	4.87367655836e+01	-4.73669794930e+00
2.70000000000e+00	4.88033975286e+01	-4.74204707540e+00
2.71000000000e+00	4.88699718469e+01	-4.74737142603e+00
2.72000000000e+00	4.89364879731e+01	-4.75267119364e+00
2.73000000000e+00	4.90029453726e+01	-4.75794658470e+00
2.74000000000e+00	4.90693435263e+01	-4.76319782098e+00
2.75000000000e+00	4.91356819063e+01	-4.76842514087e+00
