# kz [1/micrones]     Omega [THz]    |det|$\mu_c$ = 0.710 eV, $\eta$ = 0.92, modo = 1, R = 0.50$\mu$m, solve_det_conkz3.py
2.50000000000e-01	3.32084470616e+01	-8.48727170263e-01
2.60000000000e-01	3.32219430505e+01	-9.36378479005e-01
2.70000000000e-01	3.32359776485e+01	-1.01971458226e+00
2.80000000000e-01	3.32505516632e+01	-1.09924678378e+00
2.90000000000e-01	3.32656655948e+01	-1.17540324122e+00
3.00000000000e-01	3.32813196791e+01	-1.24854681060e+00
3.10000000000e-01	3.32975138853e+01	-1.31898834498e+00
3.20000000000e-01	3.33142479943e+01	-1.38699677842e+00
3.30000000000e-01	3.33315216444e+01	-1.45280689214e+00
3.40000000000e-01	3.33493342538e+01	-1.51662538122e+00
3.50000000000e-01	3.33676851655e+01	-1.57863565580e+00
3.60000000000e-01	3.33865735255e+01	-1.63900168737e+00
3.70000000000e-01	3.34059984658e+01	-1.69787112556e+00
3.80000000000e-01	3.34259588585e+01	-1.75537785203e+00
3.90000000000e-01	3.34464536121e+01	-1.81164409582e+00
4.00000000000e-01	3.34674814413e+01	-1.86678220479e+00
4.10000000000e-01	3.34890409839e+01	-1.92089614568e+00
4.20000000000e-01	3.35111308813e+01	-1.97408278940e+00
4.30000000000e-01	3.35337495775e+01	-2.02643302647e+00
4.40000000000e-01	3.35568955170e+01	-2.07803274855e+00
4.50000000000e-01	3.35805672655e+01	-2.12896372555e+00
4.60000000000e-01	3.36047621052e+01	-2.17930440330e+00
4.70000000000e-01	3.36294793234e+01	-2.22913064272e+00
4.80000000000e-01	3.36547165942e+01	-2.27851642002e+00
4.90000000000e-01	3.36804719465e+01	-2.32753450508e+00
5.00000000000e-01	3.37067433795e+01	-2.37625713542e+00
5.10000000000e-01	3.37335287827e+01	-2.42475670292e+00
5.20000000000e-01	3.37608259944e+01	-2.47310647184e+00
5.30000000000e-01	3.37886327765e+01	-2.52138134883e+00
5.40000000000e-01	3.38169468196e+01	-2.56965872873e+00
5.50000000000e-01	3.38457657851e+01	-2.61801944492e+00
5.60000000000e-01	3.38750872140e+01	-2.66654885982e+00
5.70000000000e-01	3.39049086464e+01	-2.71533814046e+00
5.80000000000e-01	3.39352275207e+01	-2.76448577732e+00
5.90000000000e-01	3.39660412169e+01	-2.81409942327e+00
6.00000000000e-01	3.39973470735e+01	-2.86429815556e+00
6.10000000000e-01	3.40291423534e+01	-2.91521530150e+00
6.20000000000e-01	3.40614242479e+01	-2.96700202290e+00
6.30000000000e-01	3.40941899125e+01	-3.01983193575e+00
6.40000000000e-01	3.41274364221e+01	-3.07390716317e+00
6.50000000000e-01	3.41611608167e+01	-3.12946640867e+00
6.60000000000e-01	3.41953600558e+01	-3.18679593481e+00
6.70000000000e-01	3.42300310500e+01	-3.24624481857e+00
6.80000000000e-01	3.42651706503e+01	-3.30824667155e+00
6.90000000000e-01	3.43007756612e+01	-3.37335144017e+00
7.00000000000e-01	3.43368428111e+01	-3.44227350072e+00
7.10000000000e-01	3.43733687952e+01	-3.51596724949e+00
7.20000000000e-01	3.44103502464e+01	-3.59575154161e+00
7.30000000000e-01	3.44477837429e+01	-3.68352659389e+00
7.40000000000e-01	3.44856658120e+01	-3.78218046880e+00
7.50000000000e-01	3.45239929339e+01	-3.89642702816e+00
7.60000000000e-01	3.45627615365e+01	-4.03477717861e+00
7.70000000000e-01	3.46019680024e+01	-4.21519185960e+00
7.80000000000e-01	3.46416086643e+01	-4.48794408416e+00
7.90000000000e-01	3.46816798126e+01	-5.16727117582e+00
8.00000000000e-01	3.47221776929e+01	-4.78417816690e+00
8.10000000000e-01	3.47630985097e+01	-4.42687313040e+00
8.20000000000e-01	3.48044384270e+01	-4.24913851158e+00
8.30000000000e-01	3.48461935685e+01	-4.13439237190e+00
8.40000000000e-01	3.48883600250e+01	-4.05207304941e+00
8.50000000000e-01	3.49309338479e+01	-3.98953323497e+00
8.60000000000e-01	3.49739110583e+01	-3.94030463498e+00
8.70000000000e-01	3.50172876450e+01	-3.90063214481e+00
8.80000000000e-01	3.50610595720e+01	-3.86814163703e+00
8.90000000000e-01	3.51052227631e+01	-3.84123666568e+00
9.00000000000e-01	3.51497731333e+01	-3.81879237358e+00
9.10000000000e-01	3.51947065662e+01	-3.79998656557e+00
9.20000000000e-01	3.52400189179e+01	-3.78420021975e+00
9.30000000000e-01	3.52857060377e+01	-3.77095577397e+00
9.40000000000e-01	3.53317637463e+01	-3.75987718567e+00
9.50000000000e-01	3.53781878584e+01	-3.75066315237e+00
9.60000000000e-01	3.54249741670e+01	-3.74306861000e+00
9.70000000000e-01	3.54721184550e+01	-3.73689161727e+00
9.80000000000e-01	3.55196165054e+01	-3.73196384835e+00
9.90000000000e-01	3.55674640745e+01	-3.72814356482e+00
1.00000000000e+00	3.56156569290e+01	-3.72531032997e+00
1.01000000000e+00	3.56641908278e+01	-3.72336097172e+00
1.02000000000e+00	3.57130615201e+01	-3.72220645653e+00
1.03000000000e+00	3.57622647614e+01	-3.72176943845e+00
1.04000000000e+00	3.58117963079e+01	-3.72198231569e+00
1.05000000000e+00	3.58616519129e+01	-3.72278567395e+00
1.06000000000e+00	3.59118273373e+01	-3.72412702764e+00
1.07000000000e+00	3.59623183495e+01	-3.72595979336e+00
1.08000000000e+00	3.60131207213e+01	-3.72824244608e+00
1.09000000000e+00	3.60642302294e+01	-3.73093782045e+00
1.10000000000e+00	3.61156426749e+01	-3.73401252834e+00
1.11000000000e+00	3.61673538551e+01	-3.73743647022e+00
1.12000000000e+00	3.62193595810e+01	-3.74118242287e+00
1.13000000000e+00	3.62716556811e+01	-3.74522568957e+00
1.14000000000e+00	3.63242379997e+01	-3.74954380182e+00
1.15000000000e+00	3.63771023957e+01	-3.75411626365e+00
1.16000000000e+00	3.64302447369e+01	-3.75892433166e+00
1.17000000000e+00	3.64836609149e+01	-3.76395082471e+00
1.18000000000e+00	3.65373468476e+01	-3.76917995889e+00
1.19000000000e+00	3.65912984604e+01	-3.77459720362e+00
1.20000000000e+00	3.66455116945e+01	-3.78018915587e+00
1.21000000000e+00	3.66999825291e+01	-3.78594342977e+00
1.22000000000e+00	3.67547069570e+01	-3.79184855945e+00
1.23000000000e+00	3.68096809816e+01	-3.79789391321e+00
1.24000000000e+00	3.68649006509e+01	-3.80406961750e+00
1.25000000000e+00	3.69203620153e+01	-3.81036648942e+00
1.26000000000e+00	3.69760611600e+01	-3.81677597658e+00
1.27000000000e+00	3.70319941998e+01	-3.82329010337e+00
1.28000000000e+00	3.70881572611e+01	-3.82990142289e+00
1.29000000000e+00	3.71445465069e+01	-3.83660297378e+00
1.30000000000e+00	3.72011581168e+01	-3.84338824143e+00
1.31000000000e+00	3.72579883053e+01	-3.85025112294e+00
1.32000000000e+00	3.73150333122e+01	-3.85718589552e+00
1.33000000000e+00	3.73722893950e+01	-3.86418718785e+00
1.34000000000e+00	3.74297528516e+01	-3.87124995412e+00
1.35000000000e+00	3.74874199962e+01	-3.87836945038e+00
1.36000000000e+00	3.75452871757e+01	-3.88554121306e+00
1.37000000000e+00	3.76033507645e+01	-3.89276103935e+00
1.38000000000e+00	3.76616071684e+01	-3.90002496926e+00
1.39000000000e+00	3.77200528113e+01	-3.90732926921e+00
1.40000000000e+00	3.77786841580e+01	-3.91467041695e+00
1.41000000000e+00	3.78374976988e+01	-3.92204508777e+00
1.42000000000e+00	3.78964899448e+01	-3.92945014174e+00
1.43000000000e+00	3.79556574426e+01	-3.93688261201e+00
1.44000000000e+00	3.80149967678e+01	-3.94433969399e+00
1.45000000000e+00	3.80745045250e+01	-3.95181873535e+00
1.46000000000e+00	3.81341773435e+01	-3.95931722680e+00
1.47000000000e+00	3.81940118909e+01	-3.96683279350e+00
1.48000000000e+00	3.82540048536e+01	-3.97436318713e+00
1.49000000000e+00	3.83141529531e+01	-3.98190627850e+00
1.50000000000e+00	3.83744529452e+01	-3.98946005071e+00
1.51000000000e+00	3.84349016003e+01	-3.99702259276e+00
1.52000000000e+00	3.84954957339e+01	-4.00459209355e+00
1.53000000000e+00	3.85562321802e+01	-4.01216683641e+00
1.54000000000e+00	3.86171078042e+01	-4.01974519386e+00
1.55000000000e+00	3.86781195117e+01	-4.02732562275e+00
1.56000000000e+00	3.87392642207e+01	-4.03490665977e+00
1.57000000000e+00	3.88005388906e+01	-4.04248691715e+00
1.58000000000e+00	3.88619405041e+01	-4.05006507872e+00
1.59000000000e+00	3.89234660797e+01	-4.05763989614e+00
1.60000000000e+00	3.89851126541e+01	-4.06521018539e+00
1.61000000000e+00	3.90468772976e+01	-4.07277482349e+00
1.62000000000e+00	3.91087571201e+01	-4.08033274535e+00
1.63000000000e+00	3.91707492486e+01	-4.08788294091e+00
1.64000000000e+00	3.92328508390e+01	-4.09542445233e+00
1.65000000000e+00	3.92950590839e+01	-4.10295637141e+00
1.66000000000e+00	3.93573711960e+01	-4.11047783714e+00
1.67000000000e+00	3.94197844204e+01	-4.11798803340e+00
1.68000000000e+00	3.94822960332e+01	-4.12548618675e+00
1.69000000000e+00	3.95449033419e+01	-4.13297156438e+00
1.70000000000e+00	3.96076036661e+01	-4.14044347214e+00
1.71000000000e+00	3.96703943737e+01	-4.14790125270e+00
1.72000000000e+00	3.97332728528e+01	-4.15534428381e+00
1.73000000000e+00	3.97962365159e+01	-4.16277197661e+00
1.74000000000e+00	3.98592828011e+01	-4.17018377408e+00
1.75000000000e+00	3.99224091889e+01	-4.17757914954e+00
1.76000000000e+00	3.99856131790e+01	-4.18495760521e+00
1.77000000000e+00	4.00488922930e+01	-4.19231867092e+00
1.78000000000e+00	4.01122440836e+01	-4.19966190278e+00
1.79000000000e+00	4.01756661390e+01	-4.20698688198e+00
1.80000000000e+00	4.02391560645e+01	-4.21429321365e+00
1.81000000000e+00	4.03027114966e+01	-4.22158052575e+00
1.82000000000e+00	4.03663301008e+01	-4.22884846803e+00
1.83000000000e+00	4.04300095628e+01	-4.23609671101e+00
1.84000000000e+00	4.04937476096e+01	-4.24332494510e+00
1.85000000000e+00	4.05575419710e+01	-4.25053287962e+00
1.86000000000e+00	4.06213904239e+01	-4.25772024197e+00
1.87000000000e+00	4.06852907700e+01	-4.26488677684e+00
1.88000000000e+00	4.07492408233e+01	-4.27203224540e+00
1.89000000000e+00	4.08132384384e+01	-4.27915642455e+00
1.90000000000e+00	4.08772814839e+01	-4.28625910621e+00
1.91000000000e+00	4.09413678672e+01	-4.29334009668e+00
1.92000000000e+00	4.10054955057e+01	-4.30039921593e+00
1.93000000000e+00	4.10696623655e+01	-4.30743629704e+00
1.94000000000e+00	4.11338664068e+01	-4.31445118557e+00
1.95000000000e+00	4.11981056428e+01	-4.32144373900e+00
1.96000000000e+00	4.12623780964e+01	-4.32841382623e+00
1.97000000000e+00	4.13266818157e+01	-4.33536132701e+00
1.98000000000e+00	4.13910148842e+01	-4.34228613146e+00
1.99000000000e+00	4.14553753962e+01	-4.34918813965e+00
2.00000000000e+00	4.15197614835e+01	-4.35606726106e+00
2.01000000000e+00	4.15841712933e+01	-4.36292341422e+00
2.02000000000e+00	4.16486029963e+01	-4.36975652628e+00
2.03000000000e+00	4.17130547911e+01	-4.37656653260e+00
2.04000000000e+00	4.17775249044e+01	-4.38335337636e+00
2.05000000000e+00	4.18420115770e+01	-4.39011700824e+00
2.06000000000e+00	4.19065130712e+01	-4.39685738604e+00
2.07000000000e+00	4.19710276871e+01	-4.40357447435e+00
2.08000000000e+00	4.20355537384e+01	-4.41026824424e+00
2.09000000000e+00	4.21000895592e+01	-4.41693867295e+00
2.10000000000e+00	4.21646335063e+01	-4.42358574359e+00
2.11000000000e+00	4.22291839675e+01	-4.43020944487e+00
2.12000000000e+00	4.22937393493e+01	-4.43680977083e+00
2.13000000000e+00	4.23582980753e+01	-4.44338672057e+00
2.14000000000e+00	4.24228585886e+01	-4.44994029801e+00
2.15000000000e+00	4.24874193701e+01	-4.45647051163e+00
2.16000000000e+00	4.25519789116e+01	-4.46297737430e+00
2.17000000000e+00	4.26165357179e+01	-4.46946090299e+00
2.18000000000e+00	4.26810883358e+01	-4.47592111860e+00
2.19000000000e+00	4.27456353107e+01	-4.48235804574e+00
2.20000000000e+00	4.28101752355e+01	-4.48877171254e+00
2.21000000000e+00	4.28747066908e+01	-4.49516215049e+00
2.22000000000e+00	4.29392283096e+01	-4.50152939421e+00
2.23000000000e+00	4.30037387218e+01	-4.50787348129e+00
2.24000000000e+00	4.30682365932e+01	-4.51419445218e+00
2.25000000000e+00	4.31327206018e+01	-4.52049234993e+00
2.26000000000e+00	4.31971894510e+01	-4.52676722013e+00
2.27000000000e+00	4.32616418467e+01	-4.53301911071e+00
2.28000000000e+00	4.33260765436e+01	-4.53924807181e+00
2.29000000000e+00	4.33904922954e+01	-4.54545415565e+00
2.30000000000e+00	4.34548878759e+01	-4.55163741636e+00
2.31000000000e+00	4.35192620855e+01	-4.55779790992e+00
2.32000000000e+00	4.35836137403e+01	-4.56393569397e+00
2.33000000000e+00	4.36479416703e+01	-4.57005082775e+00
2.34000000000e+00	4.37122447381e+01	-4.57614337193e+00
2.35000000000e+00	4.37765218017e+01	-4.58221338853e+00
2.36000000000e+00	4.38407717611e+01	-4.58826094083e+00
2.37000000000e+00	4.39049935126e+01	-4.59428609321e+00
2.38000000000e+00	4.39691859991e+01	-4.60028891113e+00
2.39000000000e+00	4.40333481479e+01	-4.60626946095e+00
2.40000000000e+00	4.40974789278e+01	-4.61222780992e+00
2.41000000000e+00	4.41615773088e+01	-4.61816402601e+00
2.42000000000e+00	4.42256423035e+01	-4.62407817790e+00
2.43000000000e+00	4.42896728969e+01	-4.62997033483e+00
2.44000000000e+00	4.43536681432e+01	-4.63584056657e+00
2.45000000000e+00	4.44176270747e+01	-4.64168894330e+00
2.46000000000e+00	4.44815487537e+01	-4.64751553558e+00
2.47000000000e+00	4.45454322632e+01	-4.65332041423e+00
2.48000000000e+00	4.46092767009e+01	-4.65910365029e+00
2.49000000000e+00	4.46730811635e+01	-4.66486531495e+00
2.50000000000e+00	4.47368447979e+01	-4.67060547947e+00
2.51000000000e+00	4.48005667229e+01	-4.67632421510e+00
2.52000000000e+00	4.48642461164e+01	-4.68202159308e+00
2.53000000000e+00	4.49278821381e+01	-4.68769768451e+00
2.54000000000e+00	4.49914739837e+01	-4.69335256033e+00
2.55000000000e+00	4.50550208472e+01	-4.69898629125e+00
2.56000000000e+00	4.51185219629e+01	-4.70459894771e+00
2.57000000000e+00	4.51819765521e+01	-4.71019059981e+00
2.58000000000e+00	4.52453838597e+01	-4.71576131726e+00
2.59000000000e+00	4.53087431586e+01	-4.72131116935e+00
2.60000000000e+00	4.53720537187e+01	-4.72684022489e+00
2.61000000000e+00	4.54353148223e+01	-4.73234855215e+00
2.62000000000e+00	4.54985257920e+01	-4.73783621885e+00
2.63000000000e+00	4.55616859226e+01	-4.74330329208e+00
2.64000000000e+00	4.56247945680e+01	-4.74874983829e+00
2.65000000000e+00	4.56878510626e+01	-4.75417592325e+00
2.66000000000e+00	4.57508547673e+01	-4.75958161198e+00
2.67000000000e+00	4.58138050507e+01	-4.76496696877e+00
2.68000000000e+00	4.58767013034e+01	-4.77033205710e+00
2.69000000000e+00	4.59395429151e+01	-4.77567693964e+00
2.70000000000e+00	4.60023293065e+01	-4.78100167820e+00
2.71000000000e+00	4.60650598907e+01	-4.78630633373e+00
2.72000000000e+00	4.61277341112e+01	-4.79159096628e+00
2.73000000000e+00	4.61903514113e+01	-4.79685563498e+00
2.74000000000e+00	4.62529112671e+01	-4.80210039803e+00
2.75000000000e+00	4.63154131283e+01	-4.80732531270e+00
