# kz [1/micrones]     Omega [THz]    |det|$\mu_c$ = 0.800 eV, $\eta$ = 0.85, modo = 1, R = 0.50$\mu$m, solve_det_conkz3.py
2.00000000000e-01	3.51509048114e+01	-6.81550477359e-01
2.10000000000e-01	3.51627127842e+01	-8.00314560206e-01
2.20000000000e-01	3.51750849023e+01	-9.07997731303e-01
2.30000000000e-01	3.51880270287e+01	-1.00652862547e+00
2.40000000000e-01	3.52015433112e+01	-1.09735641385e+00
2.50000000000e-01	3.52156367209e+01	-1.18160002917e+00
2.60000000000e-01	3.52303093368e+01	-1.26014327428e+00
2.70000000000e-01	3.52455625797e+01	-1.33369780077e+00
2.80000000000e-01	3.52613973468e+01	-1.40284617794e+00
2.90000000000e-01	3.52778141325e+01	-1.46807216970e+00
3.00000000000e-01	3.52948130234e+01	-1.52978253367e+00
3.10000000000e-01	3.53123938622e+01	-1.58832304810e+00
3.20000000000e-01	3.53305562501e+01	-1.64399051501e+00
3.30000000000e-01	3.53492994937e+01	-1.69704189905e+00
3.40000000000e-01	3.53686227757e+01	-1.74770138945e+00
3.50000000000e-01	3.53885250349e+01	-1.79616593027e+00
3.60000000000e-01	3.54090051259e+01	-1.84260960430e+00
3.70000000000e-01	3.54300616461e+01	-1.88718714685e+00
3.80000000000e-01	3.54516931545e+01	-1.93003679105e+00
3.90000000000e-01	3.54738980282e+01	-1.97128259348e+00
4.00000000000e-01	3.54966745139e+01	-2.01103635163e+00
4.10000000000e-01	3.55200207783e+01	-2.04939919757e+00
4.20000000000e-01	3.55439348456e+01	-2.08646293248e+00
4.30000000000e-01	3.55684146291e+01	-2.12231115191e+00
4.40000000000e-01	3.55934579959e+01	-2.15702020083e+00
4.50000000000e-01	3.56190626889e+01	-2.19065998915e+00
4.60000000000e-01	3.56452263176e+01	-2.22329469207e+00
4.70000000000e-01	3.56719464441e+01	-2.25498335464e+00
4.80000000000e-01	3.56992206242e+01	-2.28578041646e+00
4.90000000000e-01	3.57270460290e+01	-2.31573616891e+00
5.00000000000e-01	3.57554201778e+01	-2.34489715575e+00
5.10000000000e-01	3.57843402491e+01	-2.37330652506e+00
5.20000000000e-01	3.58138033455e+01	-2.40100434010e+00
5.30000000000e-01	3.58438066080e+01	-2.42802785462e+00
5.40000000000e-01	3.58743470190e+01	-2.45441175762e+00
5.50000000000e-01	3.59054215517e+01	-2.48018839170e+00
5.60000000000e-01	3.59370270751e+01	-2.50538794831e+00
5.70000000000e-01	3.59691604281e+01	-2.53003864303e+00
5.80000000000e-01	3.60018183456e+01	-2.55416687321e+00
5.90000000000e-01	3.60349975436e+01	-2.57779736026e+00
6.00000000000e-01	3.60686946716e+01	-2.60095327818e+00
6.10000000000e-01	3.61029063138e+01	-2.62365637020e+00
6.20000000000e-01	3.61376289989e+01	-2.64592705464e+00
6.30000000000e-01	3.61728592174e+01	-2.66778452136e+00
6.40000000000e-01	3.62085934146e+01	-2.68924681963e+00
6.50000000000e-01	3.62448279650e+01	-2.71033093851e+00
6.60000000000e-01	3.62815592201e+01	-2.73105288045e+00
6.70000000000e-01	3.63187834763e+01	-2.75142772871e+00
6.80000000000e-01	3.63564969909e+01	-2.77146970937e+00
6.90000000000e-01	3.63946959713e+01	-2.79119224832e+00
7.00000000000e-01	3.64333766056e+01	-2.81060802384e+00
7.10000000000e-01	3.64725350298e+01	-2.82972901505e+00
7.20000000000e-01	3.65121673473e+01	-2.84856654671e+00
7.30000000000e-01	3.65522696355e+01	-2.86713133067e+00
7.40000000000e-01	3.65928379257e+01	-2.88543350427e+00
7.50000000000e-01	3.66338682307e+01	-2.90348266593e+00
7.60000000000e-01	3.66753565225e+01	-2.92128790823e+00
7.70000000000e-01	3.67172987588e+01	-2.93885784861e+00
7.80000000000e-01	3.67596908692e+01	-2.95620065802e+00
7.90000000000e-01	3.68025287473e+01	-2.97332408748e+00
8.00000000000e-01	3.68458082776e+01	-2.99023549299e+00
8.10000000000e-01	3.68895253195e+01	-3.00694185864e+00
8.20000000000e-01	3.69336757056e+01	-3.02344981828e+00
8.30000000000e-01	3.69782552603e+01	-3.03976567574e+00
8.40000000000e-01	3.70232597869e+01	-3.05589542377e+00
8.50000000000e-01	3.70686850658e+01	-3.07184476172e+00
8.60000000000e-01	3.71145268738e+01	-3.08761911218e+00
8.70000000000e-01	3.71607809764e+01	-3.10322363649e+00
8.80000000000e-01	3.72074431150e+01	-3.11866324939e+00
8.90000000000e-01	3.72545090305e+01	-3.13394263266e+00
9.00000000000e-01	3.73019744580e+01	-3.14906624804e+00
9.10000000000e-01	3.73498351137e+01	-3.16403834928e+00
9.20000000000e-01	3.73980867141e+01	-3.17886299355e+00
9.30000000000e-01	3.74467249745e+01	-3.19354405208e+00
9.40000000000e-01	3.74957455949e+01	-3.20808522028e+00
9.50000000000e-01	3.75451442791e+01	-3.22249002716e+00
9.60000000000e-01	3.75949167349e+01	-3.23676184431e+00
9.70000000000e-01	3.76450586622e+01	-3.25090389424e+00
9.80000000000e-01	3.76955657606e+01	-3.26491925839e+00
9.90000000000e-01	3.77464337338e+01	-3.27881088452e+00
1.00000000000e+00	3.77976582887e+01	-3.29258159383e+00
1.01000000000e+00	3.78492351260e+01	-3.30623408757e+00
1.02000000000e+00	3.79011599709e+01	-3.31977095330e+00
1.03000000000e+00	3.79534285322e+01	-3.33319467089e+00
1.04000000000e+00	3.80060365440e+01	-3.34650761802e+00
1.05000000000e+00	3.80589797299e+01	-3.35971207555e+00
1.06000000000e+00	3.81122538366e+01	-3.37281023244e+00
1.07000000000e+00	3.81658546088e+01	-3.38580419051e+00
1.08000000000e+00	3.82197778048e+01	-3.39869596891e+00
1.09000000000e+00	3.82740191981e+01	-3.41148750828e+00
1.10000000000e+00	3.83285745648e+01	-3.42418067476e+00
1.11000000000e+00	3.83834396997e+01	-3.43677726378e+00
1.12000000000e+00	3.84386104068e+01	-3.44927900358e+00
1.13000000000e+00	3.84940825038e+01	-3.46168755860e+00
1.14000000000e+00	3.85498518249e+01	-3.47400453265e+00
1.15000000000e+00	3.86059142187e+01	-3.48623147193e+00
1.16000000000e+00	3.86622655449e+01	-3.49836986790e+00
1.17000000000e+00	3.87189016853e+01	-3.51042115993e+00
1.18000000000e+00	3.87758185326e+01	-3.52238673788e+00
1.19000000000e+00	3.88330120003e+01	-3.53426794453e+00
1.20000000000e+00	3.88904780213e+01	-3.54606607783e+00
1.21000000000e+00	3.89482125376e+01	-3.55778239307e+00
1.22000000000e+00	3.90062115234e+01	-3.56941810495e+00
1.23000000000e+00	3.90644709663e+01	-3.58097438948e+00
1.24000000000e+00	3.91229868640e+01	-3.59245238585e+00
1.25000000000e+00	3.91817552562e+01	-3.60385319813e+00
1.26000000000e+00	3.92407721811e+01	-3.61517789695e+00
1.27000000000e+00	3.93000337121e+01	-3.62642752101e+00
1.28000000000e+00	3.93595359313e+01	-3.63760307862e+00
1.29000000000e+00	3.94192749644e+01	-3.64870554900e+00
1.30000000000e+00	3.94792469348e+01	-3.65973588369e+00
1.31000000000e+00	3.95394480083e+01	-3.67069500775e+00
1.32000000000e+00	3.95998743599e+01	-3.68158382097e+00
1.33000000000e+00	3.96605221974e+01	-3.69240319896e+00
1.34000000000e+00	3.97213877475e+01	-3.70315399424e+00
1.35000000000e+00	3.97824672600e+01	-3.71383703724e+00
1.36000000000e+00	3.98437570148e+01	-3.72445313723e+00
1.37000000000e+00	3.99052533111e+01	-3.73500308328e+00
1.38000000000e+00	3.99669524704e+01	-3.74548764504e+00
1.39000000000e+00	4.00288508457e+01	-3.75590757361e+00
1.40000000000e+00	4.00909448230e+01	-3.76626360226e+00
1.41000000000e+00	4.01532307918e+01	-3.77655644720e+00
1.42000000000e+00	4.02157051865e+01	-3.78678680826e+00
1.43000000000e+00	4.02783644559e+01	-3.79695536950e+00
1.44000000000e+00	4.03412050917e+01	-3.80706279989e+00
1.45000000000e+00	4.04042235902e+01	-3.81710975387e+00
1.46000000000e+00	4.04674164853e+01	-3.82709687187e+00
1.47000000000e+00	4.05307803415e+01	-3.83702478092e+00
1.48000000000e+00	4.05943117426e+01	-3.84689409506e+00
1.49000000000e+00	4.06580073068e+01	-3.85670541587e+00
1.50000000000e+00	4.07218636716e+01	-3.86645933292e+00
1.51000000000e+00	4.07858775130e+01	-3.87615642414e+00
1.52000000000e+00	4.08500455165e+01	-3.88579725629e+00
1.53000000000e+00	4.09143644174e+01	-3.89538238532e+00
1.54000000000e+00	4.09788309605e+01	-3.90491235671e+00
1.55000000000e+00	4.10434419226e+01	-3.91438770584e+00
1.56000000000e+00	4.11081941207e+01	-3.92380895831e+00
1.57000000000e+00	4.11730843817e+01	-3.93317663026e+00
1.58000000000e+00	4.12381095769e+01	-3.94249122863e+00
1.59000000000e+00	4.13032665931e+01	-3.95175325147e+00
1.60000000000e+00	4.13685523439e+01	-3.96096318822e+00
1.61000000000e+00	4.14339637855e+01	-3.97012151991e+00
1.62000000000e+00	4.14994978896e+01	-3.97922871943e+00
1.63000000000e+00	4.15651516617e+01	-3.98828525176e+00
1.64000000000e+00	4.16309221361e+01	-3.99729157419e+00
1.65000000000e+00	4.16968063659e+01	-4.00624813647e+00
1.66000000000e+00	4.17628014469e+01	-4.01515538108e+00
1.67000000000e+00	4.18289044933e+01	-4.02401374337e+00
1.68000000000e+00	4.18951126440e+01	-4.03282365172e+00
1.69000000000e+00	4.19614230806e+01	-4.04158552775e+00
1.70000000000e+00	4.20278330034e+01	-4.05029978643e+00
1.71000000000e+00	4.20943396368e+01	-4.05896683628e+00
1.72000000000e+00	4.21609402395e+01	-4.06758707944e+00
1.73000000000e+00	4.22276320995e+01	-4.07616091188e+00
1.74000000000e+00	4.22944125329e+01	-4.08468872347e+00
1.75000000000e+00	4.23612788708e+01	-4.09317089814e+00
1.76000000000e+00	4.24282284935e+01	-4.10160781395e+00
1.77000000000e+00	4.24952587900e+01	-4.10999984323e+00
1.78000000000e+00	4.25623671921e+01	-4.11834735268e+00
1.79000000000e+00	4.26295511465e+01	-4.12665070346e+00
1.80000000000e+00	4.26968081378e+01	-4.13491025127e+00
1.81000000000e+00	4.27641356726e+01	-4.14312634646e+00
1.82000000000e+00	4.28315312861e+01	-4.15129933408e+00
1.83000000000e+00	4.28989925364e+01	-4.15942955400e+00
1.84000000000e+00	4.29665170171e+01	-4.16751734093e+00
1.85000000000e+00	4.30341023498e+01	-4.17556302452e+00
1.86000000000e+00	4.31017461695e+01	-4.18356692943e+00
1.87000000000e+00	4.31694461530e+01	-4.19152937537e+00
1.88000000000e+00	4.32372000049e+01	-4.19945067717e+00
1.89000000000e+00	4.33050054317e+01	-4.20733114481e+00
1.90000000000e+00	4.33728601997e+01	-4.21517108350e+00
1.91000000000e+00	4.34407620872e+01	-4.22297079371e+00
1.92000000000e+00	4.35087088877e+01	-4.23073057121e+00
1.93000000000e+00	4.35766984408e+01	-4.23845070711e+00
1.94000000000e+00	4.36447285997e+01	-4.24613148791e+00
1.95000000000e+00	4.37127972485e+01	-4.25377319550e+00
1.96000000000e+00	4.37809022953e+01	-4.26137610723e+00
1.97000000000e+00	4.38490416790e+01	-4.26894049592e+00
1.98000000000e+00	4.39172133513e+01	-4.27646662988e+00
1.99000000000e+00	4.39854153055e+01	-4.28395477293e+00
2.00000000000e+00	4.40536455468e+01	-4.29140518443e+00
2.01000000000e+00	4.41219021155e+01	-4.29881811931e+00
2.02000000000e+00	4.41901830734e+01	-4.30619382805e+00
2.03000000000e+00	4.42584865010e+01	-4.31353255673e+00
2.04000000000e+00	4.43268105166e+01	-4.32083454699e+00
2.05000000000e+00	4.43951532543e+01	-4.32810003611e+00
2.06000000000e+00	4.44635128664e+01	-4.33532925696e+00
2.07000000000e+00	4.45318875484e+01	-4.34252243802e+00
2.08000000000e+00	4.46002755087e+01	-4.34967980340e+00
2.09000000000e+00	4.46686749723e+01	-4.35680157280e+00
2.10000000000e+00	4.47370841971e+01	-4.36388796157e+00
2.11000000000e+00	4.48055014720e+01	-4.37093918065e+00
2.12000000000e+00	4.48739250887e+01	-4.37795543660e+00
2.13000000000e+00	4.49423533868e+01	-4.38493693159e+00
2.14000000000e+00	4.50107847084e+01	-4.39188386338e+00
2.15000000000e+00	4.50792174349e+01	-4.39879642534e+00
2.16000000000e+00	4.51476499496e+01	-4.40567480640e+00
2.17000000000e+00	4.52160806902e+01	-4.41251919110e+00
2.18000000000e+00	4.52845080889e+01	-4.41932975953e+00
2.19000000000e+00	4.53529306097e+01	-4.42610668736e+00
2.20000000000e+00	4.54213467465e+01	-4.43285014578e+00
2.21000000000e+00	4.54897550015e+01	-4.43956030156e+00
2.22000000000e+00	4.55581539113e+01	-4.44623731700e+00
2.23000000000e+00	4.56265420192e+01	-4.45288134990e+00
2.24000000000e+00	4.56949179185e+01	-4.45949255364e+00
2.25000000000e+00	4.57632801928e+01	-4.46607107707e+00
2.26000000000e+00	4.58316274612e+01	-4.47261706459e+00
2.27000000000e+00	4.58999583692e+01	-4.47913065612e+00
2.28000000000e+00	4.59682715701e+01	-4.48561198709e+00
2.29000000000e+00	4.60365657456e+01	-4.49206118850e+00
2.30000000000e+00	4.61048396042e+01	-4.49847838685e+00
2.31000000000e+00	4.61730918726e+01	-4.50486370425e+00
2.32000000000e+00	4.62413212836e+01	-4.51121725838e+00
2.33000000000e+00	4.63095266081e+01	-4.51753916253e+00
2.34000000000e+00	4.63777066325e+01	-4.52382952567e+00
2.35000000000e+00	4.64458601550e+01	-4.53008845247e+00
2.36000000000e+00	4.65139860062e+01	-4.53631604336e+00
2.37000000000e+00	4.65820830279e+01	-4.54251239461e+00
2.38000000000e+00	4.66501500851e+01	-4.54867759838e+00
2.39000000000e+00	4.67181860677e+01	-4.55481174286e+00
2.40000000000e+00	4.67861898716e+01	-4.56091491234e+00
2.41000000000e+00	4.68541604266e+01	-4.56698718737e+00
2.42000000000e+00	4.69220966747e+01	-4.57302864487e+00
2.43000000000e+00	4.69899975731e+01	-4.57903935832e+00
2.44000000000e+00	4.70578621161e+01	-4.58501939796e+00
2.45000000000e+00	4.71256892856e+01	-4.59096883096e+00
2.46000000000e+00	4.71934781215e+01	-4.59688772172e+00
2.47000000000e+00	4.72612276488e+01	-4.60277613210e+00
2.48000000000e+00	4.73289369259e+01	-4.60863412174e+00
2.49000000000e+00	4.73966050357e+01	-4.61446174841e+00
2.50000000000e+00	4.74642310738e+01	-4.62025906838e+00
2.51000000000e+00	4.75318141422e+01	-4.62602613686e+00
2.52000000000e+00	4.75993533882e+01	-4.63176300844e+00
2.53000000000e+00	4.76668479572e+01	-4.63746973765e+00
2.54000000000e+00	4.77342970104e+01	-4.64314637950e+00
2.55000000000e+00	4.78016997465e+01	-4.64879299014e+00
2.56000000000e+00	4.78690553651e+01	-4.65440962753e+00
2.57000000000e+00	4.79363630948e+01	-4.65999635223e+00
2.58000000000e+00	4.80036221801e+01	-4.66555322818e+00
2.59000000000e+00	4.80708318681e+01	-4.67108032366e+00
2.60000000000e+00	4.81379914601e+01	-4.67657771224e+00
2.61000000000e+00	4.82051002411e+01	-4.68204547387e+00
2.62000000000e+00	4.82721575264e+01	-4.68748369602e+00
2.63000000000e+00	4.83391626545e+01	-4.69289247490e+00
2.64000000000e+00	4.84061149683e+01	-4.69827191687e+00
2.65000000000e+00	4.84730138482e+01	-4.70362213981e+00
2.66000000000e+00	4.85398586734e+01	-4.70894327467e+00
2.67000000000e+00	4.86066488595e+01	-4.71423546714e+00
2.68000000000e+00	4.86733838202e+01	-4.71949887935e+00
2.69000000000e+00	4.87400630026e+01	-4.72473369173e+00
2.70000000000e+00	4.88066858570e+01	-4.72994010492e+00
