# kz [1/micrones]     Omega [THz]    |det|$\mu_c$ = 0.400 eV, $\eta$ = 0.75, modo = 1, R = 0.50$\mu$m, solve_det_conkz3.py
1.00000000000e-01	2.49198073458e+01	1.49484838757e+00
1.10000000000e-01	2.49245083686e+01	1.04621317557e+00
1.20000000000e-01	2.49293487957e+01	7.28478481555e-01
1.30000000000e-01	2.49344869410e+01	4.78900200865e-01
1.40000000000e-01	2.49399788203e+01	2.71563616431e-01
1.50000000000e-01	2.49458505940e+01	9.31859032991e-02
1.60000000000e-01	2.49521166311e+01	-6.39804768361e-02
1.70000000000e-01	2.49587857281e+01	-2.04865716432e-01
1.80000000000e-01	2.49658636440e+01	-3.32811180168e-01
1.90000000000e-01	2.49733543396e+01	-4.50192276343e-01
2.00000000000e-01	2.49812606201e+01	-5.58762275800e-01
2.10000000000e-01	2.49895845056e+01	-6.59854995668e-01
2.20000000000e-01	2.49983274490e+01	-7.54510727530e-01
2.30000000000e-01	2.50074904729e+01	-8.43557915699e-01
2.40000000000e-01	2.50170742612e+01	-9.27668071358e-01
2.50000000000e-01	2.50270792174e+01	-1.00739383404e+00
2.60000000000e-01	2.50375055145e+01	-1.08319605168e+00
2.70000000000e-01	2.50483531209e+01	-1.15546349037e+00
2.80000000000e-01	2.50596218482e+01	-1.22452746864e+00
2.90000000000e-01	2.50713113322e+01	-1.29067291610e+00
3.00000000000e-01	2.50834211335e+01	-1.35414686247e+00
3.10000000000e-01	2.50959505820e+01	-1.41516504601e+00
3.20000000000e-01	2.51088989675e+01	-1.47391712366e+00
3.30000000000e-01	2.51222655481e+01	-1.53057082603e+00
3.40000000000e-01	2.51360492855e+01	-1.58527530559e+00
3.50000000000e-01	2.51502491236e+01	-1.63816386063e+00
3.60000000000e-01	2.51648640255e+01	-1.68935617071e+00
3.70000000000e-01	2.51798927594e+01	-1.73896014598e+00
3.80000000000e-01	2.51953340472e+01	-1.78707346844e+00
3.90000000000e-01	2.52111865208e+01	-1.83378488535e+00
4.00000000000e-01	2.52274487651e+01	-1.87917530146e+00
4.10000000000e-01	2.52441192660e+01	-1.92331870690e+00
4.20000000000e-01	2.52611964550e+01	-1.96628296981e+00
4.30000000000e-01	2.52786786966e+01	-2.00813051685e+00
4.40000000000e-01	2.52965642894e+01	-2.04891892045e+00
4.50000000000e-01	2.53148514817e+01	-2.08870140760e+00
4.60000000000e-01	2.53335384540e+01	-2.12752730292e+00
4.70000000000e-01	2.53526233374e+01	-2.16544241569e+00
4.80000000000e-01	2.53721041977e+01	-2.20248937942e+00
4.90000000000e-01	2.53919790683e+01	-2.23870795088e+00
5.00000000000e-01	2.54122459040e+01	-2.27413527411e+00
5.10000000000e-01	2.54329026276e+01	-2.30880611455e+00
5.20000000000e-01	2.54539471185e+01	-2.34275306706e+00
5.30000000000e-01	2.54753772039e+01	-2.37600674142e+00
5.40000000000e-01	2.54971906580e+01	-2.40859592825e+00
5.50000000000e-01	2.55193852275e+01	-2.44054774760e+00
5.60000000000e-01	2.55419586035e+01	-2.47188778264e+00
5.70000000000e-01	2.55649084505e+01	-2.50264020001e+00
5.80000000000e-01	2.55882323827e+01	-2.53282785855e+00
5.90000000000e-01	2.56119279796e+01	-2.56247240770e+00
6.00000000000e-01	2.56359927878e+01	-2.59159437673e+00
6.10000000000e-01	2.56604243185e+01	-2.62021325589e+00
6.20000000000e-01	2.56852200429e+01	-2.64834757032e+00
6.30000000000e-01	2.57103774077e+01	-2.67601494743e+00
6.40000000000e-01	2.57358938195e+01	-2.70323217864e+00
6.50000000000e-01	2.57617666633e+01	-2.73001527578e+00
6.60000000000e-01	2.57879932894e+01	-2.75637952303e+00
6.70000000000e-01	2.58145710221e+01	-2.78233952447e+00
6.80000000000e-01	2.58414971549e+01	-2.80790924805e+00
6.90000000000e-01	2.58687689668e+01	-2.83310206606e+00
7.00000000000e-01	2.58963836953e+01	-2.85793079253e+00
7.10000000000e-01	2.59243385679e+01	-2.88240771785e+00
7.20000000000e-01	2.59526307804e+01	-2.90654464091e+00
7.30000000000e-01	2.59812575094e+01	-2.93035289886e+00
7.40000000000e-01	2.60102159195e+01	-2.95384339488e+00
7.50000000000e-01	2.60395031385e+01	-2.97702662396e+00
7.60000000000e-01	2.60691162924e+01	-2.99991269702e+00
7.70000000000e-01	2.60990524740e+01	-3.02251136339e+00
7.80000000000e-01	2.61293087718e+01	-3.04483203193e+00
7.90000000000e-01	2.61598822528e+01	-3.06688379072e+00
8.00000000000e-01	2.61907699630e+01	-3.08867542565e+00
8.10000000000e-01	2.62219689493e+01	-3.11021543780e+00
8.20000000000e-01	2.62534762248e+01	-3.13151205994e+00
8.30000000000e-01	2.62852888138e+01	-3.15257327196e+00
8.40000000000e-01	2.63174037063e+01	-3.17340681554e+00
8.50000000000e-01	2.63498178943e+01	-3.19402020803e+00
8.60000000000e-01	2.63825283553e+01	-3.21442075557e+00
8.70000000000e-01	2.64155320581e+01	-3.23461556561e+00
8.80000000000e-01	2.64488259609e+01	-3.25461155878e+00
8.90000000000e-01	2.64824070185e+01	-3.27441548026e+00
9.00000000000e-01	2.65162721761e+01	-3.29403391060e+00
9.10000000000e-01	2.65504183732e+01	-3.31347327608e+00
9.20000000000e-01	2.65848425375e+01	-3.33273985871e+00
9.30000000000e-01	2.66195415971e+01	-3.35183980580e+00
9.40000000000e-01	2.66545124776e+01	-3.37077913916e+00
9.50000000000e-01	2.66897520958e+01	-3.38956376404e+00
9.60000000000e-01	2.67252573688e+01	-3.40819947775e+00
9.70000000000e-01	2.67610252015e+01	-3.42669197808e+00
9.80000000000e-01	2.67970525149e+01	-3.44504687141e+00
9.90000000000e-01	2.68333362099e+01	-3.46326968068e+00
1.00000000000e+00	2.68698731959e+01	-3.48136585323e+00
1.01000000000e+00	2.69066603838e+01	-3.49934076837e+00
1.02000000000e+00	2.69436946730e+01	-3.51719974494e+00
1.03000000000e+00	2.69809729750e+01	-3.53494804872e+00
1.04000000000e+00	2.70184921995e+01	-3.55259089981e+00
1.05000000000e+00	2.70562492460e+01	-3.57013347985e+00
1.06000000000e+00	2.70942410376e+01	-3.58758093935e+00
1.07000000000e+00	2.71324644816e+01	-3.60493840493e+00
1.08000000000e+00	2.71709164891e+01	-3.62221098656e+00
1.09000000000e+00	2.72095939834e+01	-3.63940378490e+00
1.10000000000e+00	2.72484938828e+01	-3.65652189866e+00
1.11000000000e+00	2.72876131125e+01	-3.67357043206e+00
1.12000000000e+00	2.73269485978e+01	-3.69055450242e+00
1.13000000000e+00	2.73664972708e+01	-3.70747924780e+00
1.14000000000e+00	2.74062560722e+01	-3.72434983496e+00
1.15000000000e+00	2.74462219328e+01	-3.74117146735e+00
1.16000000000e+00	2.74863918088e+01	-3.75794939342e+00
1.17000000000e+00	2.75267626415e+01	-3.77468891517e+00
1.18000000000e+00	2.75673313844e+01	-3.79139539697e+00
1.19000000000e+00	2.76080950042e+01	-3.80807427469e+00
1.20000000000e+00	2.76490504583e+01	-3.82473106525e+00
1.21000000000e+00	2.76901947157e+01	-3.84137137651e+00
1.22000000000e+00	2.77315247543e+01	-3.85800091765e+00
1.23000000000e+00	2.77730375570e+01	-3.87462551004e+00
1.24000000000e+00	2.78147301022e+01	-3.89125109864e+00
1.25000000000e+00	2.78565993833e+01	-3.90788376410e+00
1.26000000000e+00	2.78986423984e+01	-3.92452973538e+00
1.27000000000e+00	2.79408561420e+01	-3.94119540329e+00
1.28000000000e+00	2.79832376270e+01	-3.95788733474e+00
1.29000000000e+00	2.80257838629e+01	-3.97461228798e+00
1.30000000000e+00	2.80684918612e+01	-3.99137722876e+00
1.31000000000e+00	2.81113586500e+01	-4.00818934774e+00
1.32000000000e+00	2.81543812532e+01	-4.02505607902e+00
1.33000000000e+00	2.81975566985e+01	-4.04198512012e+00
1.34000000000e+00	2.82408820223e+01	-4.05898445347e+00
1.35000000000e+00	2.82843542625e+01	-4.07606236959e+00
1.36000000000e+00	2.83279704675e+01	-4.09322749218e+00
1.37000000000e+00	2.83717276771e+01	-4.11048880531e+00
1.38000000000e+00	2.84156229496e+01	-4.12785568299e+00
1.39000000000e+00	2.84596533375e+01	-4.14533792134e+00
1.40000000000e+00	2.85038158968e+01	-4.16294577383e+00
1.41000000000e+00	2.85481076881e+01	-4.18068998973e+00
1.42000000000e+00	2.85925257767e+01	-4.19858185640e+00
1.43000000000e+00	2.86370672379e+01	-4.21663324587e+00
1.44000000000e+00	2.86817291304e+01	-4.23485666614e+00
1.45000000000e+00	2.87265085325e+01	-4.25326531808e+00
1.46000000000e+00	2.87714025183e+01	-4.27187315846e+00
1.47000000000e+00	2.88164081704e+01	-4.29069497025e+00
1.48000000000e+00	2.88615225601e+01	-4.30974644099e+00
1.49000000000e+00	2.89067427805e+01	-4.32904425069e+00
1.50000000000e+00	2.89520659096e+01	-4.34860617055e+00
1.51000000000e+00	2.89974890391e+01	-4.36845117431e+00
1.52000000000e+00	2.90430092574e+01	-4.38859956431e+00
1.53000000000e+00	2.90886236620e+01	-4.40907311463e+00
1.54000000000e+00	2.91343293488e+01	-4.42989523442e+00
1.55000000000e+00	2.91801234190e+01	-4.45109115489e+00
1.56000000000e+00	2.92260029805e+01	-4.47268814430e+00
1.57000000000e+00	2.92719651386e+01	-4.49471575646e+00
1.58000000000e+00	2.93180070128e+01	-4.51720611904e+00
1.59000000000e+00	2.93641257286e+01	-4.54019426992e+00
1.60000000000e+00	2.94103184128e+01	-4.56371855168e+00
1.61000000000e+00	2.94565822026e+01	-4.58782107680e+00
1.62000000000e+00	2.95029142518e+01	-4.61254827951e+00
1.63000000000e+00	2.95493117142e+01	-4.63795157471e+00
1.64000000000e+00	2.95957717604e+01	-4.66408815010e+00
1.65000000000e+00	2.96422915813e+01	-4.69102192519e+00
1.66000000000e+00	2.96888683758e+01	-4.71882472196e+00
1.67000000000e+00	2.97354993653e+01	-4.74757770555e+00
1.68000000000e+00	2.97821817882e+01	-4.77737317410e+00
1.69000000000e+00	2.98289129101e+01	-4.80831680448e+00
1.70000000000e+00	2.98756900150e+01	-4.84053050138e+00
1.71000000000e+00	2.99225104175e+01	-4.87415605541e+00
1.72000000000e+00	2.99693714675e+01	-4.90935990345e+00
1.73000000000e+00	3.00162705428e+01	-4.94633941543e+00
1.74000000000e+00	3.00632050564e+01	-4.98533133632e+00
1.75000000000e+00	3.01101724670e+01	-5.02662333584e+00
1.76000000000e+00	3.01571702751e+01	-5.07057014948e+00
1.77000000000e+00	3.02041960220e+01	-5.11761669210e+00
1.78000000000e+00	3.02512473119e+01	-5.16833210422e+00
1.79000000000e+00	3.02983217905e+01	-5.22346159172e+00
1.80000000000e+00	3.03454171708e+01	-5.28400853559e+00
1.81000000000e+00	3.03925312217e+01	-5.35137092273e+00
1.82000000000e+00	3.04396617825e+01	-5.42758189375e+00
1.83000000000e+00	3.04868067605e+01	-5.51576722947e+00
1.84000000000e+00	3.05339641353e+01	-5.62110733798e+00
1.85000000000e+00	3.05811319645e+01	-5.75316571790e+00
1.86000000000e+00	3.06283083870e+01	-5.93287734082e+00
1.87000000000e+00	3.06754916246e+01	-6.22348227554e+00
1.88000000000e+00	3.07226799884e+01	-7.24495938293e+00
1.89000000000e+00	3.07698718777e+01	-6.34129444904e+00
1.90000000000e+00	3.08170657861e+01	-6.02668488203e+00
1.91000000000e+00	3.08642603025e+01	-5.85466587722e+00
1.92000000000e+00	3.09114541142e+01	-5.73822637253e+00
1.93000000000e+00	3.09586460078e+01	-5.65172748791e+00
1.94000000000e+00	3.10058348707e+01	-5.58405437072e+00
1.95000000000e+00	3.10530196922e+01	-5.52937409495e+00
1.96000000000e+00	3.11001995662e+01	-5.48424521450e+00
1.97000000000e+00	3.11473736862e+01	-5.44646869165e+00
1.98000000000e+00	3.11945413509e+01	-5.41455565234e+00
1.99000000000e+00	3.12417019606e+01	-5.38745289960e+00
2.00000000000e+00	3.12888550134e+01	-5.36438954833e+00
2.01000000000e+00	3.13360001124e+01	-5.34478583094e+00
2.02000000000e+00	3.13831369514e+01	-5.32819610217e+00
2.03000000000e+00	3.14302653187e+01	-5.31427173765e+00
2.04000000000e+00	3.14773850986e+01	-5.30273615242e+00
2.05000000000e+00	3.15244962563e+01	-5.29336749703e+00
2.06000000000e+00	3.15715988472e+01	-5.28598638286e+00
2.07000000000e+00	3.16186929964e+01	-5.28044700042e+00
2.08000000000e+00	3.16657789133e+01	-5.27663058731e+00
2.09000000000e+00	3.17128568682e+01	-5.27444056351e+00
2.10000000000e+00	3.17599272024e+01	-5.27379887704e+00
2.11000000000e+00	3.18069903059e+01	-5.27464324873e+00
2.12000000000e+00	3.18540466300e+01	-5.27692510082e+00
2.13000000000e+00	3.19010966641e+01	-5.28060801989e+00
2.14000000000e+00	3.19481409421e+01	-5.28566664964e+00
2.15000000000e+00	3.19951800294e+01	-5.29208594298e+00
2.16000000000e+00	3.20422145175e+01	-5.29986072690e+00
2.17000000000e+00	3.20892450167e+01	-5.30899555450e+00
2.18000000000e+00	3.21362721510e+01	-5.31950483498e+00
2.19000000000e+00	3.21832965538e+01	-5.33141324949e+00
2.20000000000e+00	3.22303188578e+01	-5.34475647726e+00
2.21000000000e+00	3.22773396871e+01	-5.35958227667e+00
2.22000000000e+00	3.23243596568e+01	-5.37595199004e+00
2.23000000000e+00	3.23713793622e+01	-5.39394257337e+00
2.24000000000e+00	3.24183993773e+01	-5.41364929704e+00
2.25000000000e+00	3.24654202461e+01	-5.43518932660e+00
2.26000000000e+00	3.25124424781e+01	-5.45870648677e+00
2.27000000000e+00	3.25594665441e+01	-5.48437765224e+00
2.28000000000e+00	3.26064928729e+01	-5.51242142759e+00
2.29000000000e+00	3.26535218473e+01	-5.54311012622e+00
2.30000000000e+00	3.27005537963e+01	-5.57678662985e+00
2.31000000000e+00	3.27475889968e+01	-5.61388868133e+00
2.32000000000e+00	3.27946276681e+01	-5.65498488099e+00
2.33000000000e+00	3.28416699721e+01	-5.70082983407e+00
2.34000000000e+00	3.28887160096e+01	-5.75245209869e+00
2.35000000000e+00	3.29357658186e+01	-5.81130149320e+00
2.36000000000e+00	3.29828193719e+01	-5.87951139365e+00
2.37000000000e+00	3.30298765826e+01	-5.96040394935e+00
2.38000000000e+00	3.30769372955e+01	-6.05957083929e+00
2.39000000000e+00	3.31240012922e+01	-6.18755541227e+00
2.40000000000e+00	3.31710682929e+01	-6.36823814597e+00
2.41000000000e+00	3.32181379537e+01	-6.67928554920e+00
2.42000000000e+00	3.32652098690e+01	-8.12816052339e+00
2.43000000000e+00	3.33122835744e+01	-6.65464205936e+00
2.44000000000e+00	3.33593585463e+01	-6.36396686338e+00
2.45000000000e+00	3.34064342083e+01	-6.19360678715e+00
2.46000000000e+00	3.34535099260e+01	-6.07338712630e+00
2.47000000000e+00	3.35005850205e+01	-5.98090953906e+00
2.48000000000e+00	3.35476587564e+01	-5.90611191120e+00
2.49000000000e+00	3.35947303622e+01	-5.84359777333e+00
2.50000000000e+00	3.36417990187e+01	-5.79013280591e+00
2.51000000000e+00	3.36888638660e+01	-5.74362359635e+00
2.52000000000e+00	3.37359240158e+01	-5.70263619899e+00
2.53000000000e+00	3.37829785380e+01	-5.66614461494e+00
2.54000000000e+00	3.38300264813e+01	-5.63338884240e+00
2.55000000000e+00	3.38770668600e+01	-5.60378978082e+00
2.56000000000e+00	3.39240986761e+01	-5.57689567808e+00
2.57000000000e+00	3.39711208972e+01	-5.55234705278e+00
2.58000000000e+00	3.40181324871e+01	-5.52985293398e+00
2.59000000000e+00	3.40651323885e+01	-5.50917430068e+00
2.60000000000e+00	3.41121195371e+01	-5.49011225159e+00
