# kz [1/micrones]     Omega [THz]    |det|$\mu_c$ = 0.430 eV, $\eta$ = 0.80, modo = 1, R = 0.50$\mu$m, solve_det_conkz3.py
1.00000000000e-01	2.58367448542e+01	1.65911212941e+00
1.10000000000e-01	2.58418185020e+01	1.14290069950e+00
1.20000000000e-01	2.58469197509e+01	7.96086946814e-01
1.30000000000e-01	2.58522957636e+01	5.30393902975e-01
1.40000000000e-01	2.58580240437e+01	3.12846641716e-01
1.50000000000e-01	2.58641386806e+01	1.27427876597e-01
1.60000000000e-01	2.58706576562e+01	-3.48904581118e-02
1.70000000000e-01	2.58775917133e+01	-1.79717320598e-01
1.80000000000e-01	2.58849477102e+01	-3.10786887278e-01
1.90000000000e-01	2.58927303593e+01	-4.30717322457e-01
2.00000000000e-01	2.59009429133e+01	-5.41419776718e-01
2.10000000000e-01	2.59095877370e+01	-6.44335028834e-01
2.20000000000e-01	2.59186664944e+01	-7.40578301661e-01
2.30000000000e-01	2.59281803966e+01	-8.31032018581e-01
2.40000000000e-01	2.59381301992e+01	-9.16407507509e-01
2.50000000000e-01	2.59485164505e+01	-9.97287381168e-01
2.60000000000e-01	2.59593393395e+01	-1.07415545262e+00
2.70000000000e-01	2.59705989012e+01	-1.14741835848e+00
2.80000000000e-01	2.59822949785e+01	-1.21742151562e+00
2.90000000000e-01	2.59944271787e+01	-1.28446111358e+00
3.00000000000e-01	2.60069951033e+01	-1.34879327504e+00
3.10000000000e-01	2.60199980446e+01	-1.41064115568e+00
3.20000000000e-01	2.60334352916e+01	-1.47020051919e+00
3.30000000000e-01	2.60473060122e+01	-1.52764416704e+00
3.40000000000e-01	2.60616092598e+01	-1.58312549625e+00
3.50000000000e-01	2.60763438573e+01	-1.63678138495e+00
3.60000000000e-01	2.60915087462e+01	-1.68873455381e+00
3.70000000000e-01	2.61071026903e+01	-1.73909551464e+00
3.80000000000e-01	2.61231243000e+01	-1.78796419039e+00
3.90000000000e-01	2.61395721836e+01	-1.83543127174e+00
4.00000000000e-01	2.61564448666e+01	-1.88157936040e+00
4.10000000000e-01	2.61737407772e+01	-1.92648393847e+00
4.20000000000e-01	2.61914582630e+01	-1.97021419514e+00
4.30000000000e-01	2.62095956518e+01	-2.01283373538e+00
4.40000000000e-01	2.62281511622e+01	-2.05440119046e+00
4.50000000000e-01	2.62471229639e+01	-2.09497074643e+00
4.60000000000e-01	2.62665091677e+01	-2.13459260353e+00
4.70000000000e-01	2.62863078204e+01	-2.17331337726e+00
4.80000000000e-01	2.63065169193e+01	-2.21117644981e+00
4.90000000000e-01	2.63271344006e+01	-2.24822227930e+00
5.00000000000e-01	2.63481581441e+01	-2.28448867263e+00
5.10000000000e-01	2.63695859920e+01	-2.32001102722e+00
5.20000000000e-01	2.63914157211e+01	-2.35482254578e+00
5.30000000000e-01	2.64136450702e+01	-2.38895442767e+00
5.40000000000e-01	2.64362717265e+01	-2.42243604007e+00
5.50000000000e-01	2.64592933386e+01	-2.45529507122e+00
5.60000000000e-01	2.64827074992e+01	-2.48755766833e+00
5.70000000000e-01	2.65065117715e+01	-2.51924856173e+00
5.80000000000e-01	2.65307036694e+01	-2.55039117710e+00
5.90000000000e-01	2.65552806734e+01	-2.58100773703e+00
6.00000000000e-01	2.65802402210e+01	-2.61111935329e+00
6.10000000000e-01	2.66055797142e+01	-2.64074611078e+00
6.20000000000e-01	2.66312965197e+01	-2.66990714398e+00
6.30000000000e-01	2.66573879688e+01	-2.69862070703e+00
6.40000000000e-01	2.66838513612e+01	-2.72690423771e+00
6.50000000000e-01	2.67106839640e+01	-2.75477441638e+00
6.60000000000e-01	2.67378830074e+01	-2.78224722007e+00
6.70000000000e-01	2.67654457025e+01	-2.80933797244e+00
6.80000000000e-01	2.67933692236e+01	-2.83606138995e+00
6.90000000000e-01	2.68216507189e+01	-2.86243162459e+00
7.00000000000e-01	2.68502873085e+01	-2.88846230364e+00
7.10000000000e-01	2.68792760893e+01	-2.91416656658e+00
7.20000000000e-01	2.69086141361e+01	-2.93955709960e+00
7.30000000000e-01	2.69382984862e+01	-2.96464616786e+00
7.40000000000e-01	2.69683261717e+01	-2.98944564572e+00
7.50000000000e-01	2.69986941908e+01	-3.01396704519e+00
7.60000000000e-01	2.70293995277e+01	-3.03822154272e+00
7.70000000000e-01	2.70604391409e+01	-3.06222000463e+00
7.80000000000e-01	2.70918099691e+01	-3.08597301110e+00
7.90000000000e-01	2.71235089382e+01	-3.10949087906e+00
8.00000000000e-01	2.71555329538e+01	-3.13278368410e+00
8.10000000000e-01	2.71878788972e+01	-3.15586128137e+00
8.20000000000e-01	2.72205436470e+01	-3.17873332569e+00
8.30000000000e-01	2.72535240569e+01	-3.20140929107e+00
8.40000000000e-01	2.72868169660e+01	-3.22389848945e+00
8.50000000000e-01	2.73204192072e+01	-3.24621008911e+00
8.60000000000e-01	2.73543275881e+01	-3.26835313255e+00
8.70000000000e-01	2.73885389132e+01	-3.29033655409e+00
8.80000000000e-01	2.74230499692e+01	-3.31216919724e+00
8.90000000000e-01	2.74578575367e+01	-3.33385983189e+00
9.00000000000e-01	2.74929583802e+01	-3.35541717145e+00
9.10000000000e-01	2.75283492559e+01	-3.37684988996e+00
9.20000000000e-01	2.75640269107e+01	-3.39816663941e+00
9.30000000000e-01	2.75999880792e+01	-3.41937606708e+00
9.40000000000e-01	2.76362294920e+01	-3.44048683333e+00
9.50000000000e-01	2.76727478690e+01	-3.46150762963e+00
9.60000000000e-01	2.77095399183e+01	-3.48244719719e+00
9.70000000000e-01	2.77466023479e+01	-3.50331434603e+00
9.80000000000e-01	2.77839318500e+01	-3.52411797491e+00
9.90000000000e-01	2.78215251164e+01	-3.54486709189e+00
1.00000000000e+00	2.78593788309e+01	-3.56557083608e+00
1.01000000000e+00	2.78974896682e+01	-3.58623850023e+00
1.02000000000e+00	2.79358543031e+01	-3.60687955482e+00
1.03000000000e+00	2.79744693993e+01	-3.62750367346e+00
1.04000000000e+00	2.80133316144e+01	-3.64812075995e+00
1.05000000000e+00	2.80524376035e+01	-3.66874097726e+00
1.06000000000e+00	2.80917840199e+01	-3.68937477857e+00
1.07000000000e+00	2.81313674992e+01	-3.71003294080e+00
1.08000000000e+00	2.81711846855e+01	-3.73072660072e+00
1.09000000000e+00	2.82112322189e+01	-3.75146729434e+00
1.10000000000e+00	2.82515067184e+01	-3.77226699966e+00
1.11000000000e+00	2.82920048156e+01	-3.79313818347e+00
1.12000000000e+00	2.83327231331e+01	-3.81409385273e+00
1.13000000000e+00	2.83736582820e+01	-3.83514761107e+00
1.14000000000e+00	2.84148068775e+01	-3.85631372123e+00
1.15000000000e+00	2.84561655245e+01	-3.87760717433e+00
1.16000000000e+00	2.84977308286e+01	-3.89904376690e+00
1.17000000000e+00	2.85394993863e+01	-3.92064018687e+00
1.18000000000e+00	2.85814677937e+01	-3.94241410999e+00
1.19000000000e+00	2.86236326340e+01	-3.96438430822e+00
1.20000000000e+00	2.86659905018e+01	-3.98657077217e+00
1.21000000000e+00	2.87085379699e+01	-4.00899484981e+00
1.22000000000e+00	2.87512716164e+01	-4.03167940440e+00
1.23000000000e+00	2.87941880161e+01	-4.05464899487e+00
1.24000000000e+00	2.88372837329e+01	-4.07793008299e+00
1.25000000000e+00	2.88805553312e+01	-4.10155127207e+00
1.26000000000e+00	2.89239993749e+01	-4.12554358363e+00
1.27000000000e+00	2.89676124079e+01	-4.14994077941e+00
1.28000000000e+00	2.90113909886e+01	-4.17477973827e+00
1.29000000000e+00	2.90553316671e+01	-4.20010089982e+00
1.30000000000e+00	2.90994309821e+01	-4.22594878950e+00
1.31000000000e+00	2.91436854798e+01	-4.25237264426e+00
1.32000000000e+00	2.91880916969e+01	-4.27942716276e+00
1.33000000000e+00	2.92326461761e+01	-4.30717341178e+00
1.34000000000e+00	2.92773454520e+01	-4.33567992936e+00
1.35000000000e+00	2.93221860591e+01	-4.36502407906e+00
1.36000000000e+00	2.93671645385e+01	-4.39529372711e+00
1.37000000000e+00	2.94122774289e+01	-4.42658934025e+00
1.38000000000e+00	2.94575212686e+01	-4.45902663770e+00
1.39000000000e+00	2.95028926093e+01	-4.49273998352e+00
1.40000000000e+00	2.95483880037e+01	-4.52788678232e+00
1.41000000000e+00	2.95940040059e+01	-4.56465325792e+00
1.42000000000e+00	2.96397371867e+01	-4.60326217258e+00
1.43000000000e+00	2.96855841296e+01	-4.64398332655e+00
1.44000000000e+00	2.97315414240e+01	-4.68714813410e+00
1.45000000000e+00	2.97776056819e+01	-4.73317033747e+00
1.46000000000e+00	2.98237735271e+01	-4.78257624894e+00
1.47000000000e+00	2.98700416075e+01	-4.83605031926e+00
1.48000000000e+00	2.99164065998e+01	-4.89450641680e+00
1.49000000000e+00	2.99628651996e+01	-4.95920446707e+00
1.50000000000e+00	3.00094141405e+01	-5.03195221466e+00
1.51000000000e+00	3.00560501856e+01	-5.11547960323e+00
1.52000000000e+00	3.01027701372e+01	-5.21420031560e+00
1.53000000000e+00	3.01495708416e+01	-5.33596949584e+00
1.54000000000e+00	3.01964491874e+01	-5.49697629903e+00
1.55000000000e+00	3.02434021160e+01	-5.74044418249e+00
1.56000000000e+00	3.02904266258e+01	-6.29021118639e+00
1.57000000000e+00	3.03375197699e+01	-6.13517100811e+00
1.58000000000e+00	3.03846786671e+01	-5.71697999859e+00
1.59000000000e+00	3.04319005052e+01	-5.51610714197e+00
1.60000000000e+00	3.04791825454e+01	-5.38523658004e+00
1.61000000000e+00	3.05265221231e+01	-5.28950115702e+00
1.62000000000e+00	3.05739166613e+01	-5.21499640226e+00
1.63000000000e+00	3.06213636653e+01	-5.15475476445e+00
1.64000000000e+00	3.06688607334e+01	-5.10478496268e+00
1.65000000000e+00	3.07164055632e+01	-5.06258801320e+00
1.66000000000e+00	3.07639959400e+01	-5.02649648130e+00
1.67000000000e+00	3.08116297648e+01	-4.99534328374e+00
1.68000000000e+00	3.08593050383e+01	-4.96828057666e+00
1.69000000000e+00	3.09070198717e+01	-4.94467385521e+00
1.70000000000e+00	3.09547724872e+01	-4.92403664321e+00
1.71000000000e+00	3.10025612231e+01	-4.90598842749e+00
1.72000000000e+00	3.10503845354e+01	-4.89022656691e+00
1.73000000000e+00	3.10982409914e+01	-4.87650695255e+00
1.74000000000e+00	3.11461292862e+01	-4.86463034032e+00
1.75000000000e+00	3.11940482239e+01	-4.85443247206e+00
1.76000000000e+00	3.12419967354e+01	-4.84577679321e+00
1.77000000000e+00	3.12899738668e+01	-4.83854899159e+00
1.78000000000e+00	3.13379787726e+01	-4.83265283956e+00
1.79000000000e+00	3.13860107338e+01	-4.82800698656e+00
1.80000000000e+00	3.14340691365e+01	-4.82454245612e+00
1.81000000000e+00	3.14821534714e+01	-4.82220067345e+00
1.82000000000e+00	3.15302633443e+01	-4.82093189818e+00
1.83000000000e+00	3.15783984564e+01	-4.82069397121e+00
1.84000000000e+00	3.16265585995e+01	-4.82145130800e+00
1.85000000000e+00	3.16747436665e+01	-4.82317408820e+00
1.86000000000e+00	3.17229536298e+01	-4.82583760384e+00
1.87000000000e+00	3.17711885364e+01	-4.82942173743e+00
1.88000000000e+00	3.18194485141e+01	-4.83391054858e+00
1.89000000000e+00	3.18677337538e+01	-4.83929195270e+00
1.90000000000e+00	3.19160445029e+01	-4.84555747971e+00
1.91000000000e+00	3.19643810573e+01	-4.85270210403e+00
1.92000000000e+00	3.20127437655e+01	-4.86072413983e+00
1.93000000000e+00	3.20611330012e+01	-4.86962519781e+00
1.94000000000e+00	3.21095491768e+01	-4.87941020218e+00
1.95000000000e+00	3.21579927143e+01	-4.89008746832e+00
1.96000000000e+00	3.22064640597e+01	-4.90166884387e+00
1.97000000000e+00	3.22549636516e+01	-4.91416991827e+00
1.98000000000e+00	3.23034919344e+01	-4.92761030818e+00
1.99000000000e+00	3.23520493403e+01	-4.94201402957e+00
2.00000000000e+00	3.24006362799e+01	-4.95740997071e+00
2.01000000000e+00	3.24492531461e+01	-4.97383248536e+00
2.02000000000e+00	3.24979002929e+01	-4.99132213143e+00
2.03000000000e+00	3.25465780444e+01	-5.00992658869e+00
2.04000000000e+00	3.25952866722e+01	-5.02970180002e+00
2.05000000000e+00	3.26440264068e+01	-5.05071339565e+00
2.06000000000e+00	3.26927974236e+01	-5.07303848060e+00
2.07000000000e+00	3.27415998326e+01	-5.09676789471e+00
2.08000000000e+00	3.27904336895e+01	-5.12200909632e+00
2.09000000000e+00	3.28392989737e+01	-5.14888988162e+00
2.10000000000e+00	3.28881956079e+01	-5.17756324183e+00
2.11000000000e+00	3.29371234336e+01	-5.20821379736e+00
2.12000000000e+00	3.29860822200e+01	-5.24106646047e+00
2.13000000000e+00	3.30350716627e+01	-5.27639831695e+00
2.14000000000e+00	3.30840913830e+01	-5.31455527276e+00
2.15000000000e+00	3.31331409204e+01	-5.35597595568e+00
2.16000000000e+00	3.31822197401e+01	-5.40122702677e+00
2.17000000000e+00	3.32313272392e+01	-5.45105712963e+00
2.18000000000e+00	3.32804627293e+01	-5.50648268602e+00
2.19000000000e+00	3.33296254559e+01	-5.56893114976e+00
2.20000000000e+00	3.33788145920e+01	-5.64049513692e+00
2.21000000000e+00	3.34280292422e+01	-5.72441959930e+00
2.22000000000e+00	3.34772684448e+01	-5.82613735474e+00
2.23000000000e+00	3.35265311791e+01	-5.95581521067e+00
2.24000000000e+00	3.35758163583e+01	-6.13619343979e+00
2.25000000000e+00	3.36251228460e+01	-6.43918255067e+00
2.26000000000e+00	3.36744494503e+01	-8.20892780446e+00
2.27000000000e+00	3.37237949326e+01	-6.46631756854e+00
2.28000000000e+00	3.37731580074e+01	-6.16761311564e+00
2.29000000000e+00	3.38225373537e+01	-5.99656828477e+00
2.30000000000e+00	3.38719316081e+01	-5.87745240856e+00
2.31000000000e+00	3.39213393802e+01	-5.78675064634e+00
2.32000000000e+00	3.39707592478e+01	-5.71402912249e+00
2.33000000000e+00	3.40201897693e+01	-5.65373294999e+00
2.34000000000e+00	3.40696294751e+01	-5.60254948814e+00
2.35000000000e+00	3.41190768844e+01	-5.55834260693e+00
2.36000000000e+00	3.41685305072e+01	-5.51965343098e+00
2.37000000000e+00	3.42179888353e+01	-5.48544071622e+00
2.38000000000e+00	3.42674503636e+01	-5.45493484766e+00
2.39000000000e+00	3.43169135793e+01	-5.42755056162e+00
2.40000000000e+00	3.43663769740e+01	-5.40283214662e+00
2.41000000000e+00	3.44158390358e+01	-5.38041761848e+00
2.42000000000e+00	3.44652982703e+01	-5.36001449354e+00
2.43000000000e+00	3.45147531847e+01	-5.34138292674e+00
2.44000000000e+00	3.45642022954e+01	-5.32432368076e+00
2.45000000000e+00	3.46136441376e+01	-5.30866935479e+00
2.46000000000e+00	3.46630772641e+01	-5.29427786702e+00
2.47000000000e+00	3.47125002352e+01	-5.28102752964e+00
2.48000000000e+00	3.47619116417e+01	-5.26881327085e+00
2.49000000000e+00	3.48113100824e+01	-5.25754369728e+00
2.50000000000e+00	3.48606941916e+01	-5.24713878188e+00
2.51000000000e+00	3.49100626152e+01	-5.23752802381e+00
2.52000000000e+00	3.49594140322e+01	-5.22864896904e+00
2.53000000000e+00	3.50087471356e+01	-5.22044600981e+00
2.54000000000e+00	3.50580606520e+01	-5.21286940218e+00
2.55000000000e+00	3.51073533291e+01	-5.20587445545e+00
2.56000000000e+00	3.51566239506e+01	-5.19942085873e+00
2.57000000000e+00	3.52058713115e+01	-5.19347211735e+00
2.58000000000e+00	3.52550942502e+01	-5.18799507847e+00
2.59000000000e+00	3.53042916232e+01	-5.18295952912e+00
2.60000000000e+00	3.53534623168e+01	-5.17833785401e+00
