# kz [1/micrones]     Omega [THz]    |det|$\mu_c$ = 0.370 eV, $\eta$ = 0.80, modo = 1, R = 0.50$\mu$m, solve_det_conkz3.py
1.00000000000e-01	2.39650360010e+01	1.23171497830e+00
1.10000000000e-01	2.39693468235e+01	8.35120100371e-01
1.20000000000e-01	2.39739008973e+01	5.42237853138e-01
1.30000000000e-01	2.39787801956e+01	3.07217245371e-01
1.40000000000e-01	2.39840180188e+01	1.09466728046e-01
1.50000000000e-01	2.39896313139e+01	-6.20873533340e-02
1.60000000000e-01	2.39956299437e+01	-2.14112114660e-01
1.70000000000e-01	2.40020202367e+01	-3.50947732848e-01
1.80000000000e-01	2.40088064557e+01	-4.75586690474e-01
1.90000000000e-01	2.40159916296e+01	-5.90185310216e-01
2.00000000000e-01	2.40235779576e+01	-6.96352658056e-01
2.10000000000e-01	2.40315670101e+01	-7.95323983351e-01
2.20000000000e-01	2.40399599356e+01	-8.88070092827e-01
2.30000000000e-01	2.40487575427e+01	-9.75369177920e-01
2.40000000000e-01	2.40579603562e+01	-1.05785561760e+00
2.50000000000e-01	2.40675686675e+01	-1.13605411240e+00
2.60000000000e-01	2.40775825702e+01	-1.21040416280e+00
2.70000000000e-01	2.40880019900e+01	-1.28127800972e+00
2.80000000000e-01	2.40988267183e+01	-1.34899403729e+00
2.90000000000e-01	2.41100563923e+01	-1.41382695693e+00
3.00000000000e-01	2.41216904843e+01	-1.47601566343e+00
3.10000000000e-01	2.41337284131e+01	-1.53576937816e+00
3.20000000000e-01	2.41461694343e+01	-1.59327251188e+00
3.30000000000e-01	2.41590129639e+01	-1.64868855691e+00
3.40000000000e-01	2.41722577993e+01	-1.70216323418e+00
3.50000000000e-01	2.41859031110e+01	-1.75382706125e+00
3.60000000000e-01	2.41999477978e+01	-1.80379746569e+00
3.70000000000e-01	2.42143907193e+01	-1.85218053795e+00
3.80000000000e-01	2.42292306498e+01	-1.89907249567e+00
3.90000000000e-01	2.42444662832e+01	-1.94456091517e+00
4.00000000000e-01	2.42600962646e+01	-1.98872577342e+00
4.10000000000e-01	2.42761191575e+01	-2.03164033500e+00
4.20000000000e-01	2.42925334663e+01	-2.07337191091e+00
4.30000000000e-01	2.43093376246e+01	-2.11398251120e+00
4.40000000000e-01	2.43265300170e+01	-2.15352940884e+00
4.50000000000e-01	2.43441089705e+01	-2.19206562911e+00
4.60000000000e-01	2.43620727454e+01	-2.22964037615e+00
4.70000000000e-01	2.43804195577e+01	-2.26629940605e+00
4.80000000000e-01	2.43991475700e+01	-2.30208535466e+00
4.90000000000e-01	2.44182548892e+01	-2.33703802634e+00
5.00000000000e-01	2.44377395777e+01	-2.37119464941e+00
5.10000000000e-01	2.44575996528e+01	-2.40459010268e+00
5.20000000000e-01	2.44778330760e+01	-2.43725711702e+00
5.30000000000e-01	2.44984377778e+01	-2.46922645529e+00
5.40000000000e-01	2.45194116340e+01	-2.50052707323e+00
5.50000000000e-01	2.45407524818e+01	-2.53118626391e+00
5.60000000000e-01	2.45624581270e+01	-2.56122978759e+00
5.70000000000e-01	2.45845263233e+01	-2.59068198883e+00
5.80000000000e-01	2.46069547945e+01	-2.61956590234e+00
5.90000000000e-01	2.46297412252e+01	-2.64790334881e+00
6.00000000000e-01	2.46528832653e+01	-2.67571502192e+00
6.10000000000e-01	2.46763785293e+01	-2.70302056753e+00
6.20000000000e-01	2.47002246044e+01	-2.72983865579e+00
6.30000000000e-01	2.47244190407e+01	-2.75618704703e+00
6.40000000000e-01	2.47489593522e+01	-2.78208265204e+00
6.50000000000e-01	2.47738430356e+01	-2.80754158735e+00
6.60000000000e-01	2.47990675526e+01	-2.83257922597e+00
6.70000000000e-01	2.48246303391e+01	-2.85721024405e+00
6.80000000000e-01	2.48505288049e+01	-2.88144866394e+00
6.90000000000e-01	2.48767603341e+01	-2.90530789385e+00
7.00000000000e-01	2.49033222816e+01	-2.92880076458e+00
7.10000000000e-01	2.49302119914e+01	-2.95193956350e+00
7.20000000000e-01	2.49574267737e+01	-2.97473606606e+00
7.30000000000e-01	2.49849639208e+01	-2.99720156509e+00
7.40000000000e-01	2.50128207111e+01	-3.01934689797e+00
7.50000000000e-01	2.50409943936e+01	-3.04118247205e+00
7.60000000000e-01	2.50694822058e+01	-3.06271828824e+00
7.70000000000e-01	2.50982813647e+01	-3.08396396317e+00
7.80000000000e-01	2.51273890768e+01	-3.10492874979e+00
7.90000000000e-01	2.51568025282e+01	-3.12562155677e+00
8.00000000000e-01	2.51865188907e+01	-3.14605096661e+00
8.10000000000e-01	2.52165353183e+01	-3.16622525272e+00
8.20000000000e-01	2.52468489643e+01	-3.18615239542e+00
8.30000000000e-01	2.52774569568e+01	-3.20584009703e+00
8.40000000000e-01	2.53083564223e+01	-3.22529579608e+00
8.50000000000e-01	2.53395444717e+01	-3.24452668076e+00
8.60000000000e-01	2.53710182121e+01	-3.26353970156e+00
8.70000000000e-01	2.54027747337e+01	-3.28234158332e+00
8.80000000000e-01	2.54348111249e+01	-3.30093883654e+00
8.90000000000e-01	2.54671244642e+01	-3.31933776821e+00
9.00000000000e-01	2.54997118280e+01	-3.33754449202e+00
9.10000000000e-01	2.55325702854e+01	-3.35556493809e+00
9.20000000000e-01	2.55656968940e+01	-3.37340486227e+00
9.30000000000e-01	2.55990887182e+01	-3.39106985493e+00
9.40000000000e-01	2.56327428058e+01	-3.40856534943e+00
9.50000000000e-01	2.56666562202e+01	-3.42589663017e+00
9.60000000000e-01	2.57008260101e+01	-3.44306884027e+00
9.70000000000e-01	2.57352492177e+01	-3.46008698901e+00
9.80000000000e-01	2.57699228968e+01	-3.47695595887e+00
9.90000000000e-01	2.58048440974e+01	-3.49368051237e+00
1.00000000000e+00	2.58400098648e+01	-3.51026529861e+00
1.01000000000e+00	2.58754172572e+01	-3.52671485962e+00
1.02000000000e+00	2.59110633175e+01	-3.54303363642e+00
1.03000000000e+00	2.59469451088e+01	-3.55922597490e+00
1.04000000000e+00	2.59830596788e+01	-3.57529613157e+00
1.05000000000e+00	2.60194040917e+01	-3.59124827908e+00
1.06000000000e+00	2.60559754152e+01	-3.60708651157e+00
1.07000000000e+00	2.60927707101e+01	-3.62281484992e+00
1.08000000000e+00	2.61297870615e+01	-3.63843724684e+00
1.09000000000e+00	2.61670215380e+01	-3.65395759187e+00
1.10000000000e+00	2.62044712265e+01	-3.66937971622e+00
1.11000000000e+00	2.62421332182e+01	-3.68470739758e+00
1.12000000000e+00	2.62800046119e+01	-3.69994436480e+00
1.13000000000e+00	2.63180825098e+01	-3.71509430254e+00
1.14000000000e+00	2.63563640279e+01	-3.73016085578e+00
1.15000000000e+00	2.63948462760e+01	-3.74514763441e+00
1.16000000000e+00	2.64335263907e+01	-3.76005821765e+00
1.17000000000e+00	2.64724015045e+01	-3.77489615849e+00
1.18000000000e+00	2.65114687614e+01	-3.78966498820e+00
1.19000000000e+00	2.65507253149e+01	-3.80436822065e+00
1.20000000000e+00	2.65901683272e+01	-3.81900935683e+00
1.21000000000e+00	2.66297949776e+01	-3.83359188923e+00
1.22000000000e+00	2.66696024400e+01	-3.84811930634e+00
1.23000000000e+00	2.67095879124e+01	-3.86259509718e+00
1.24000000000e+00	2.67497485960e+01	-3.87702275582e+00
1.25000000000e+00	2.67900817037e+01	-3.89140578604e+00
1.26000000000e+00	2.68305844612e+01	-3.90574770600e+00
1.27000000000e+00	2.68712541008e+01	-3.92005205308e+00
1.28000000000e+00	2.69120878699e+01	-3.93432238871e+00
1.29000000000e+00	2.69530830320e+01	-3.94856230345e+00
1.30000000000e+00	2.69942368432e+01	-3.96277542208e+00
1.31000000000e+00	2.70355465907e+01	-3.97696540894e+00
1.32000000000e+00	2.70770095626e+01	-3.99113597340e+00
1.33000000000e+00	2.71186230631e+01	-4.00529087547e+00
1.34000000000e+00	2.71603844050e+01	-4.01943393171e+00
1.35000000000e+00	2.72022909142e+01	-4.03356902131e+00
1.36000000000e+00	2.72443399301e+01	-4.04770009244e+00
1.37000000000e+00	2.72865287991e+01	-4.06183116885e+00
1.38000000000e+00	2.73288548776e+01	-4.07596635684e+00
1.39000000000e+00	2.73713155444e+01	-4.09010985250e+00
1.40000000000e+00	2.74139081755e+01	-4.10426594934e+00
1.41000000000e+00	2.74566301662e+01	-4.11843904636e+00
1.42000000000e+00	2.74994789228e+01	-4.13263365647e+00
1.43000000000e+00	2.75424518629e+01	-4.14685441551e+00
1.44000000000e+00	2.75855464117e+01	-4.16110609169e+00
1.45000000000e+00	2.76287600054e+01	-4.17539359570e+00
1.46000000000e+00	2.76720900948e+01	-4.18972199139e+00
1.47000000000e+00	2.77155341403e+01	-4.20409650719e+00
1.48000000000e+00	2.77590896041e+01	-4.21852254827e+00
1.49000000000e+00	2.78027539713e+01	-4.23300570956e+00
1.50000000000e+00	2.78465247290e+01	-4.24755178973e+00
1.51000000000e+00	2.78903993784e+01	-4.26216680609e+00
1.52000000000e+00	2.79343754146e+01	-4.27685701075e+00
1.53000000000e+00	2.79784503711e+01	-4.29162890795e+00
1.54000000000e+00	2.80226217620e+01	-4.30648927280e+00
1.55000000000e+00	2.80668871251e+01	-4.32144517150e+00
1.56000000000e+00	2.81112440016e+01	-4.33650398336e+00
1.57000000000e+00	2.81556899355e+01	-4.35167342464e+00
1.58000000000e+00	2.82002224924e+01	-4.36696157450e+00
1.59000000000e+00	2.82448392357e+01	-4.38237690335e+00
1.60000000000e+00	2.82895377288e+01	-4.39792830383e+00
1.61000000000e+00	2.83343155584e+01	-4.41362512470e+00
1.62000000000e+00	2.83791703061e+01	-4.42947720817e+00
1.63000000000e+00	2.84240995624e+01	-4.44549493083e+00
1.64000000000e+00	2.84691009195e+01	-4.46168924902e+00
1.65000000000e+00	2.85141719848e+01	-4.47807174884e+00
1.66000000000e+00	2.85593103647e+01	-4.49465470173e+00
1.67000000000e+00	2.86045136633e+01	-4.51145112626e+00
1.68000000000e+00	2.86497795126e+01	-4.52847485703e+00
1.69000000000e+00	2.86951055174e+01	-4.54574062178e+00
1.70000000000e+00	2.87404893088e+01	-4.56326412792e+00
1.71000000000e+00	2.87859285239e+01	-4.58106215985e+00
1.72000000000e+00	2.88314207877e+01	-4.59915268901e+00
1.73000000000e+00	2.88769637455e+01	-4.61755499845e+00
1.74000000000e+00	2.89225550351e+01	-4.63628982463e+00
1.75000000000e+00	2.89681923076e+01	-4.65537951925e+00
1.76000000000e+00	2.90138732118e+01	-4.67484823482e+00
1.77000000000e+00	2.90595954029e+01	-4.69472213816e+00
1.78000000000e+00	2.91053565473e+01	-4.71502965735e+00
1.79000000000e+00	2.91511543046e+01	-4.73580176852e+00
1.80000000000e+00	2.91969863552e+01	-4.75707233063e+00
1.81000000000e+00	2.92428503718e+01	-4.77887847830e+00
1.82000000000e+00	2.92887440386e+01	-4.80126108532e+00
1.83000000000e+00	2.93346650538e+01	-4.82426531479e+00
1.84000000000e+00	2.93806111156e+01	-4.84794127617e+00
1.85000000000e+00	2.94265799384e+01	-4.87234481547e+00
1.86000000000e+00	2.94725692445e+01	-4.89753847223e+00
1.87000000000e+00	2.95185767665e+01	-4.92359264787e+00
1.88000000000e+00	2.95646002522e+01	-4.95058704395e+00
1.89000000000e+00	2.96106374640e+01	-4.97861244922e+00
1.90000000000e+00	2.96566861838e+01	-5.00777298215e+00
1.91000000000e+00	2.97027442052e+01	-5.03818893624e+00
1.92000000000e+00	2.97488093484e+01	-5.07000043364e+00
1.93000000000e+00	2.97948794520e+01	-5.10337217976e+00
1.94000000000e+00	2.98409523785e+01	-5.13849974283e+00
1.95000000000e+00	2.98870260235e+01	-5.17561798621e+00
1.96000000000e+00	2.99330983063e+01	-5.21501260487e+00
1.97000000000e+00	2.99791671767e+01	-5.25703624737e+00
1.98000000000e+00	3.00252306234e+01	-5.30213160136e+00
1.99000000000e+00	3.00712866730e+01	-5.35086539633e+00
2.00000000000e+00	3.01173333897e+01	-5.40398017243e+00
2.01000000000e+00	3.01633688834e+01	-5.46247626905e+00
2.02000000000e+00	3.02093913086e+01	-5.52774803434e+00
2.03000000000e+00	3.02553988702e+01	-5.60182393755e+00
2.04000000000e+00	3.03013898275e+01	-5.68782311313e+00
2.05000000000e+00	3.03473624947e+01	-5.79091503514e+00
2.06000000000e+00	3.03933152448e+01	-5.92064121516e+00
2.07000000000e+00	3.04392465147e+01	-6.09787759455e+00
2.08000000000e+00	3.04851548061e+01	-6.38560170169e+00
2.09000000000e+00	3.05310386880e+01	-7.39406485735e+00
2.10000000000e+00	3.05768968026e+01	-6.50122278361e+00
2.11000000000e+00	3.06227278664e+01	-6.18334946742e+00
2.12000000000e+00	3.06685306715e+01	-6.00853814416e+00
2.13000000000e+00	3.07143040906e+01	-5.88936334773e+00
2.14000000000e+00	3.07600470752e+01	-5.80010785295e+00
2.15000000000e+00	3.08057586633e+01	-5.72962908910e+00
2.16000000000e+00	3.08514379762e+01	-5.67208014565e+00
2.17000000000e+00	3.08970842231e+01	-5.62401046959e+00
2.18000000000e+00	3.09426966995e+01	-5.58321389677e+00
2.19000000000e+00	3.09882747895e+01	-5.54819524869e+00
2.20000000000e+00	3.10338179680e+01	-5.51789530563e+00
2.21000000000e+00	3.10793257946e+01	-5.49153715240e+00
2.22000000000e+00	3.11247979226e+01	-5.46853480645e+00
2.23000000000e+00	3.11702340902e+01	-5.44843609685e+00
2.24000000000e+00	3.12156341224e+01	-5.43088546042e+00
2.25000000000e+00	3.12609979336e+01	-5.41559886659e+00
2.26000000000e+00	3.13063255163e+01	-5.40234641969e+00
2.27000000000e+00	3.13516169506e+01	-5.39093998517e+00
2.28000000000e+00	3.13968723951e+01	-5.38122419863e+00
2.29000000000e+00	3.14420920795e+01	-5.37306981086e+00
2.30000000000e+00	3.14872763101e+01	-5.36636868229e+00
2.31000000000e+00	3.15324254678e+01	-5.36102996593e+00
2.32000000000e+00	3.15775399894e+01	-5.35697716222e+00
2.33000000000e+00	3.16226203850e+01	-5.35414582478e+00
2.34000000000e+00	3.16676672143e+01	-5.35248175991e+00
2.35000000000e+00	3.17126810912e+01	-5.35193960656e+00
2.36000000000e+00	3.17576626837e+01	-5.35248171426e+00
2.37000000000e+00	3.18026126951e+01	-5.35407725833e+00
2.38000000000e+00	3.18475318715e+01	-5.35670154730e+00
2.39000000000e+00	3.18924209973e+01	-5.36033548961e+00
2.40000000000e+00	3.19372808732e+01	-5.36496519497e+00
2.41000000000e+00	3.19821123327e+01	-5.37058169308e+00
2.42000000000e+00	3.20269162220e+01	-5.37718075759e+00
2.43000000000e+00	3.20716934018e+01	-5.38476282804e+00
2.44000000000e+00	3.21164447386e+01	-5.39333302639e+00
2.45000000000e+00	3.21611710998e+01	-5.40290126888e+00
2.46000000000e+00	3.22058733518e+01	-5.41348247753e+00
2.47000000000e+00	3.22505523492e+01	-5.42509690014e+00
2.48000000000e+00	3.22952089374e+01	-5.43777055221e+00
2.49000000000e+00	3.23398439410e+01	-5.45153580039e+00
2.50000000000e+00	3.23844581619e+01	-5.46643211414e+00
2.51000000000e+00	3.24290523793e+01	-5.48250702215e+00
2.52000000000e+00	3.24736273393e+01	-5.49981732278e+00
2.53000000000e+00	3.25181837500e+01	-5.51843061534e+00
2.54000000000e+00	3.25627222898e+01	-5.53842724302e+00
2.55000000000e+00	3.26072435872e+01	-5.55990277288e+00
2.56000000000e+00	3.26517482358e+01	-5.58297118724e+00
2.57000000000e+00	3.26962367753e+01	-5.60776903328e+00
2.58000000000e+00	3.27407096997e+01	-5.63446088589e+00
2.59000000000e+00	3.27851674521e+01	-5.66324664438e+00
2.60000000000e+00	3.28296104237e+01	-5.69437144385e+00
