# Re(epsi1)     Omega/c [1/micrones]    Im(epsi1)     Eq(det).Opt det SIN kz, mu = 0.3 eV, R = 0.25 micrones, solve_det_sinkz_vs_re_epsi1.py
1.000000000e+00	5.083491854e-01	-1.984688255e-02	8.634839423e-14
1.010000000e+00	5.071194215e-01	-1.989626044e-02	5.670971501e-14
1.020000000e+00	5.058985241e-01	-1.994560050e-02	8.002868171e-14
1.030000000e+00	5.046863873e-01	-1.999490311e-02	1.113579844e-13
1.040000000e+00	5.034829071e-01	-2.004416861e-02	1.054711873e-13
1.050000000e+00	5.022879811e-01	-2.009339738e-02	6.410941976e-14
1.060000000e+00	5.011015086e-01	-2.014258977e-02	8.129730813e-14
1.070000000e+00	4.999233906e-01	-2.019174612e-02	1.534162822e-13
1.080000000e+00	4.987535295e-01	-2.024086679e-02	1.262169809e-13
1.090000000e+00	4.975918297e-01	-2.028995212e-02	1.801089414e-13
1.100000000e+00	4.964381968e-01	-2.033900246e-02	5.751641079e-14
1.110000000e+00	4.952925379e-01	-2.038801813e-02	1.203502018e-13
1.120000000e+00	4.941547619e-01	-2.043699947e-02	1.478142717e-13
1.130000000e+00	4.930247788e-01	-2.048594682e-02	5.818935080e-14
1.140000000e+00	4.919025002e-01	-2.053486050e-02	8.086574928e-14
1.150000000e+00	4.907878391e-01	-2.058374084e-02	1.095906681e-13
1.160000000e+00	4.896807099e-01	-2.063258816e-02	5.127692172e-14
1.170000000e+00	4.885810282e-01	-2.068140277e-02	9.134706979e-14
1.180000000e+00	4.874887111e-01	-2.073018500e-02	1.401274864e-13
1.190000000e+00	4.864036768e-01	-2.077893515e-02	1.033062524e-13
1.200000000e+00	4.853258448e-01	-2.082765353e-02	8.950217347e-14
1.210000000e+00	4.842551360e-01	-2.087634045e-02	8.171846706e-14
1.220000000e+00	4.831914724e-01	-2.092499622e-02	1.153790966e-13
1.230000000e+00	4.821347771e-01	-2.097362113e-02	8.987913677e-14
1.240000000e+00	4.810849745e-01	-2.102221547e-02	1.330480938e-13
1.250000000e+00	4.800419900e-01	-2.107077955e-02	1.217951091e-13
1.260000000e+00	4.790057504e-01	-2.111931366e-02	1.063081302e-13
1.270000000e+00	4.779761832e-01	-2.116781808e-02	1.526533748e-13
1.280000000e+00	4.769532174e-01	-2.121629310e-02	6.943466516e-14
1.290000000e+00	4.759367827e-01	-2.126473901e-02	9.336878278e-14
1.300000000e+00	4.749268101e-01	-2.131315607e-02	9.286058291e-14
1.310000000e+00	4.739232314e-01	-2.136154459e-02	8.318378889e-14
1.320000000e+00	4.729259796e-01	-2.140990481e-02	1.774769899e-13
1.330000000e+00	4.719349885e-01	-2.145823703e-02	1.891043566e-13
1.340000000e+00	4.709501931e-01	-2.150654151e-02	1.094187172e-13
1.350000000e+00	4.699715290e-01	-2.155481852e-02	1.200701453e-13
1.360000000e+00	4.689989330e-01	-2.160306832e-02	1.434942644e-13
1.370000000e+00	4.680323428e-01	-2.165129117e-02	1.369020239e-13
1.380000000e+00	4.670716968e-01	-2.169948734e-02	1.818552855e-13
1.390000000e+00	4.661169345e-01	-2.174765709e-02	2.045077899e-13
1.400000000e+00	4.651679961e-01	-2.179580066e-02	9.087085594e-14
1.410000000e+00	4.642248227e-01	-2.184391831e-02	1.188764402e-13
1.420000000e+00	4.632873563e-01	-2.189201030e-02	1.228382885e-13
1.430000000e+00	4.623555396e-01	-2.194007687e-02	1.431180401e-13
1.440000000e+00	4.614293161e-01	-2.198811826e-02	1.394624407e-13
1.450000000e+00	4.605086302e-01	-2.203613472e-02	1.162275856e-13
1.460000000e+00	4.595934269e-01	-2.208412649e-02	8.042797662e-14
1.470000000e+00	4.586836523e-01	-2.213209382e-02	9.957710316e-14
1.480000000e+00	4.577792527e-01	-2.218003693e-02	6.626666784e-14
1.490000000e+00	4.568801757e-01	-2.222795606e-02	7.401834924e-14
1.500000000e+00	4.559863692e-01	-2.227585145e-02	9.931154400e-14
1.510000000e+00	4.550977820e-01	-2.232372333e-02	9.744197964e-14
1.520000000e+00	4.542143636e-01	-2.237157192e-02	1.783472388e-13
1.530000000e+00	4.533360641e-01	-2.241939745e-02	8.539462825e-14
1.540000000e+00	4.524628344e-01	-2.246720014e-02	1.274954231e-13
1.550000000e+00	4.515946258e-01	-2.251498023e-02	1.342479551e-13
1.560000000e+00	4.507313905e-01	-2.256273792e-02	7.978482029e-14
1.570000000e+00	4.498730812e-01	-2.261047343e-02	9.652991771e-14
1.580000000e+00	4.490196514e-01	-2.265818699e-02	7.816167219e-14
1.590000000e+00	4.481710550e-01	-2.270587881e-02	7.074351219e-14
1.600000000e+00	4.473272466e-01	-2.275354910e-02	5.046940646e-14
1.610000000e+00	4.464881814e-01	-2.280119807e-02	1.162275856e-13
1.620000000e+00	4.456538152e-01	-2.284882593e-02	1.669063025e-13
1.630000000e+00	4.448241043e-01	-2.289643288e-02	9.068728183e-14
1.640000000e+00	4.439990057e-01	-2.294401914e-02	8.348923281e-14
1.650000000e+00	4.431784767e-01	-2.299158490e-02	2.212444967e-13
1.660000000e+00	4.423624755e-01	-2.303913037e-02	5.762057498e-14
1.670000000e+00	4.415509606e-01	-2.308665575e-02	9.927579274e-14
1.680000000e+00	4.407438910e-01	-2.313416123e-02	2.788186759e-13
1.690000000e+00	4.399412264e-01	-2.318164702e-02	8.249853570e-14
1.700000000e+00	4.391429269e-01	-2.322911330e-02	1.429167120e-13
1.710000000e+00	4.383489530e-01	-2.327656026e-02	1.730307427e-13
1.720000000e+00	4.375592660e-01	-2.332398811e-02	1.152148888e-13
1.730000000e+00	4.367738274e-01	-2.337139703e-02	1.055784154e-13
1.740000000e+00	4.359925993e-01	-2.341878721e-02	1.598052183e-13
1.750000000e+00	4.352155442e-01	-2.346615883e-02	9.053785380e-14
1.760000000e+00	4.344426251e-01	-2.351351208e-02	2.005698632e-13
1.770000000e+00	4.336738056e-01	-2.356084714e-02	8.792966355e-14
1.780000000e+00	4.329090495e-01	-2.360816420e-02	6.892482357e-14
1.790000000e+00	4.321483212e-01	-2.365546343e-02	9.443561224e-14
1.800000000e+00	4.313915856e-01	-2.370274501e-02	8.384705354e-14
1.810000000e+00	4.306388077e-01	-2.375000913e-02	5.592174750e-14
1.820000000e+00	4.298899534e-01	-2.379725595e-02	3.002463674e-13
1.830000000e+00	4.291449886e-01	-2.384448564e-02	1.006665609e-13
1.840000000e+00	4.284038799e-01	-2.389169839e-02	1.876960001e-13
1.850000000e+00	4.276665940e-01	-2.393889437e-02	1.592151172e-13
1.860000000e+00	4.269330983e-01	-2.398607374e-02	2.783061407e-13
1.870000000e+00	4.262033605e-01	-2.403323666e-02	1.418105996e-13
1.880000000e+00	4.254773486e-01	-2.408038332e-02	9.363018338e-14
1.890000000e+00	4.247550310e-01	-2.412751387e-02	8.600925789e-14
1.900000000e+00	4.240363765e-01	-2.417462848e-02	7.416298115e-14
1.910000000e+00	4.233213543e-01	-2.422172731e-02	1.755878699e-13
1.920000000e+00	4.226099340e-01	-2.426881052e-02	8.348877145e-14
1.930000000e+00	4.219020853e-01	-2.431587827e-02	1.544619903e-13
1.940000000e+00	4.211977786e-01	-2.436293073e-02	7.964138263e-14
1.950000000e+00	4.204969845e-01	-2.440996804e-02	1.197199361e-13
1.960000000e+00	4.197996738e-01	-2.445699037e-02	1.723395521e-13
1.970000000e+00	4.191058178e-01	-2.450399786e-02	2.678947684e-13
1.980000000e+00	4.184153881e-01	-2.455099068e-02	1.797975939e-13
1.990000000e+00	4.177283566e-01	-2.459796898e-02	2.304426151e-13
2.000000000e+00	4.170446956e-01	-2.464493290e-02	2.860003469e-13
2.010000000e+00	4.163643776e-01	-2.469188260e-02	1.980431565e-13
2.020000000e+00	4.156873755e-01	-2.473881822e-02	1.069508444e-13
2.030000000e+00	4.150136624e-01	-2.478573992e-02	8.651423160e-14
2.040000000e+00	4.143432119e-01	-2.483264783e-02	1.253296248e-13
2.050000000e+00	4.136759977e-01	-2.487954211e-02	1.903447184e-13
2.060000000e+00	4.130119938e-01	-2.492642290e-02	1.185282025e-13
2.070000000e+00	4.123511746e-01	-2.497329034e-02	1.268354857e-13
2.080000000e+00	4.116935149e-01	-2.502014457e-02	1.258466080e-13
2.090000000e+00	4.110389894e-01	-2.506698574e-02	9.417440221e-14
2.100000000e+00	4.103875733e-01	-2.511381398e-02	2.849254533e-13
2.110000000e+00	4.097392423e-01	-2.516062943e-02	1.604883353e-13
2.120000000e+00	4.090939720e-01	-2.520743223e-02	8.998698346e-14
2.130000000e+00	4.084517384e-01	-2.525422251e-02	5.928143935e-14
2.140000000e+00	4.078125177e-01	-2.530100041e-02	2.541549552e-13
2.150000000e+00	4.071762866e-01	-2.534776606e-02	2.545527137e-13
2.160000000e+00	4.065430219e-01	-2.539451961e-02	2.002653085e-13
2.170000000e+00	4.059127004e-01	-2.544126117e-02	1.244783323e-13
2.180000000e+00	4.052852996e-01	-2.548799087e-02	1.333573814e-13
2.190000000e+00	4.046607970e-01	-2.553470886e-02	1.569982941e-13
2.200000000e+00	4.040391703e-01	-2.558141526e-02	2.070523079e-13
2.210000000e+00	4.034203976e-01	-2.562811019e-02	7.826182520e-14
2.220000000e+00	4.028044570e-01	-2.567479379e-02	1.826235885e-13
2.230000000e+00	4.021913271e-01	-2.572146617e-02	7.028544802e-14
2.240000000e+00	4.015809866e-01	-2.576812747e-02	1.249975052e-13
2.250000000e+00	4.009734144e-01	-2.581477780e-02	1.064944653e-13
2.260000000e+00	4.003685896e-01	-2.586141729e-02	8.745851904e-14
2.270000000e+00	3.997664916e-01	-2.590804607e-02	2.961166904e-13
2.280000000e+00	3.991671001e-01	-2.595466425e-02	1.853299788e-13
2.290000000e+00	3.985703947e-01	-2.600127196e-02	1.376506425e-13
2.300000000e+00	3.979763556e-01	-2.604786930e-02	9.731128561e-14
2.310000000e+00	3.973849628e-01	-2.609445641e-02	6.323906754e-14
2.320000000e+00	3.967961970e-01	-2.614103340e-02	2.527880309e-13
2.330000000e+00	3.962100386e-01	-2.618760038e-02	1.707051210e-13
2.340000000e+00	3.956264685e-01	-2.623415748e-02	1.635792221e-13
2.350000000e+00	3.950454677e-01	-2.628070480e-02	1.546814419e-13
2.360000000e+00	3.944670174e-01	-2.632724246e-02	1.356120496e-13
2.370000000e+00	3.938910991e-01	-2.637377057e-02	1.759633447e-13
2.380000000e+00	3.933176943e-01	-2.642028925e-02	6.216654147e-14
2.390000000e+00	3.927467848e-01	-2.646679860e-02	9.042969290e-14
2.400000000e+00	3.921783526e-01	-2.651329875e-02	2.138833635e-13
2.410000000e+00	3.916123798e-01	-2.655978979e-02	8.511030822e-14
2.420000000e+00	3.910488487e-01	-2.660627183e-02	1.997445190e-13
2.430000000e+00	3.904877419e-01	-2.665274499e-02	2.047790644e-13
2.440000000e+00	3.899290420e-01	-2.669920937e-02	1.029607210e-13
2.450000000e+00	3.893727319e-01	-2.674566508e-02	1.930291873e-13
2.460000000e+00	3.888187947e-01	-2.679211222e-02	2.186980427e-13
2.470000000e+00	3.882672134e-01	-2.683855090e-02	6.475941466e-14
2.480000000e+00	3.877179714e-01	-2.688498122e-02	8.711650614e-14
2.490000000e+00	3.871710524e-01	-2.693140329e-02	9.257955355e-14
2.500000000e+00	3.866264398e-01	-2.697781721e-02	1.242420423e-13
2.510000000e+00	3.860841177e-01	-2.702422308e-02	1.338087290e-13
2.520000000e+00	3.855440700e-01	-2.707062100e-02	7.996072559e-14
2.530000000e+00	3.850062808e-01	-2.711701107e-02	1.147970607e-13
2.540000000e+00	3.844707345e-01	-2.716339340e-02	1.621162852e-13
2.550000000e+00	3.839374155e-01	-2.720976808e-02	1.724490522e-13
2.560000000e+00	3.834063085e-01	-2.725613520e-02	1.674765453e-13
2.570000000e+00	3.828773981e-01	-2.730249488e-02	1.534238243e-13
2.580000000e+00	3.823506693e-01	-2.734884719e-02	7.128842239e-14
2.590000000e+00	3.818261072e-01	-2.739519225e-02	5.882841231e-14
2.600000000e+00	3.813036970e-01	-2.744153014e-02	5.734256245e-14
2.610000000e+00	3.807834239e-01	-2.748786096e-02	2.534252770e-13
2.620000000e+00	3.802652736e-01	-2.753418481e-02	1.084387286e-13
2.630000000e+00	3.797492314e-01	-2.758050178e-02	4.103201661e-14
2.640000000e+00	3.792352833e-01	-2.762681195e-02	1.155180522e-13
2.650000000e+00	3.787234152e-01	-2.767311543e-02	1.486301304e-13
2.660000000e+00	3.782136129e-01	-2.771941230e-02	1.644647681e-13
2.670000000e+00	3.777058627e-01	-2.776570266e-02	7.485110129e-14
2.680000000e+00	3.772001509e-01	-2.781198659e-02	1.862894687e-13
2.690000000e+00	3.766964638e-01	-2.785826418e-02	6.258389328e-14
2.700000000e+00	3.761947880e-01	-2.790453553e-02	1.699098317e-13
2.710000000e+00	3.756951102e-01	-2.795080073e-02	1.661843297e-13
2.720000000e+00	3.751974171e-01	-2.799705985e-02	1.397583387e-13
2.730000000e+00	3.747016956e-01	-2.804331299e-02	1.327403374e-13
2.740000000e+00	3.742079327e-01	-2.808956023e-02	8.010395687e-14
2.750000000e+00	3.737161157e-01	-2.813580166e-02	9.574320307e-14
2.760000000e+00	3.732262317e-01	-2.818203736e-02	8.533911106e-14
2.770000000e+00	3.727382681e-01	-2.822826742e-02	6.012908864e-13
2.780000000e+00	3.722522125e-01	-2.827449192e-02	8.251489427e-14
2.790000000e+00	3.717680524e-01	-2.832071096e-02	8.366839891e-14
2.800000000e+00	3.712857755e-01	-2.836692460e-02	1.073043045e-13
2.810000000e+00	3.708053697e-01	-2.841313293e-02	7.460830894e-14
2.820000000e+00	3.703268230e-01	-2.845933603e-02	1.169551323e-13
2.830000000e+00	3.698501233e-01	-2.850553399e-02	1.574020626e-13
2.840000000e+00	3.693752587e-01	-2.855172688e-02	1.436958019e-13
2.850000000e+00	3.689022177e-01	-2.859791479e-02	5.364158327e-14
2.860000000e+00	3.684309885e-01	-2.864409779e-02	2.962112481e-13
2.870000000e+00	3.679615597e-01	-2.869027597e-02	1.745586965e-13
2.880000000e+00	3.674939197e-01	-2.873644940e-02	1.590434687e-13
2.890000000e+00	3.670280572e-01	-2.878261815e-02	1.923721466e-13
2.900000000e+00	3.665639611e-01	-2.882878232e-02	2.935107174e-14
2.910000000e+00	3.661016202e-01	-2.887494197e-02	7.222856731e-13
2.920000000e+00	3.656410234e-01	-2.892109718e-02	1.702966317e-13
2.930000000e+00	3.651821599e-01	-2.896724802e-02	2.138289545e-13
2.940000000e+00	3.647250188e-01	-2.901339458e-02	2.643267325e-13
2.950000000e+00	3.642695893e-01	-2.905953692e-02	7.759134821e-13
2.960000000e+00	3.638158608e-01	-2.910567513e-02	8.709584643e-14
2.970000000e+00	3.633638228e-01	-2.915180927e-02	3.835655861e-14
2.980000000e+00	3.629134647e-01	-2.919793941e-02	1.042200835e-13
2.990000000e+00	3.624647763e-01	-2.924406564e-02	1.459216597e-13
3.000000000e+00	3.620177471e-01	-2.929018802e-02	3.100570470e-13
3.010000000e+00	3.615723671e-01	-2.933630662e-02	1.158936710e-13
3.020000000e+00	3.611286261e-01	-2.938242152e-02	1.882016329e-13
3.030000000e+00	3.606865141e-01	-2.942853279e-02	6.124085204e-14
3.040000000e+00	3.602460211e-01	-2.947464050e-02	1.343030327e-13
3.050000000e+00	3.598071373e-01	-2.952074471e-02	1.453909008e-13
3.060000000e+00	3.593698530e-01	-2.956684550e-02	4.270247401e-14
3.070000000e+00	3.589341583e-01	-2.961294293e-02	3.250129314e-14
3.080000000e+00	3.585000439e-01	-2.965903708e-02	1.251543932e-13
3.090000000e+00	3.580675000e-01	-2.970512801e-02	1.250142677e-13
3.100000000e+00	3.576365173e-01	-2.975121580e-02	1.294702849e-13
3.110000000e+00	3.572070864e-01	-2.979730050e-02	5.451319413e-14
3.120000000e+00	3.567791980e-01	-2.984338218e-02	2.013331219e-13
3.130000000e+00	3.563528429e-01	-2.988946092e-02	1.505986329e-13
3.140000000e+00	3.559280119e-01	-2.993553677e-02	1.425415683e-14
3.150000000e+00	3.555046961e-01	-2.998160980e-02	5.728578677e-14
3.160000000e+00	3.550828865e-01	-3.002768009e-02	9.572981320e-14
3.170000000e+00	3.546625740e-01	-3.007374768e-02	8.552494097e-14
3.180000000e+00	3.542437500e-01	-3.011981265e-02	1.994431538e-13
3.190000000e+00	3.538264056e-01	-3.016587506e-02	6.832951464e-14
3.200000000e+00	3.534105321e-01	-3.021193497e-02	2.704791311e-13
3.210000000e+00	3.529961210e-01	-3.025799245e-02	3.764622053e-14
3.220000000e+00	3.525831637e-01	-3.030404756e-02	9.697021187e-14
3.230000000e+00	3.521716517e-01	-3.035010036e-02	4.166856186e-13
3.240000000e+00	3.517615765e-01	-3.039615091e-02	6.405707847e-14
3.250000000e+00	3.513529300e-01	-3.044219928e-02	1.603155897e-13
3.260000000e+00	3.509457037e-01	-3.048824552e-02	9.500188217e-14
3.270000000e+00	3.505398895e-01	-3.053428970e-02	4.274574917e-14
3.280000000e+00	3.501354793e-01	-3.058033187e-02	2.479851567e-13
3.290000000e+00	3.497324649e-01	-3.062637210e-02	2.283759796e-13
3.300000000e+00	3.493308384e-01	-3.067241045e-02	4.579897533e-13
3.310000000e+00	3.489305919e-01	-3.071844697e-02	1.892686383e-13
3.320000000e+00	3.485317173e-01	-3.076448173e-02	4.138577879e-13
3.330000000e+00	3.481342070e-01	-3.081051477e-02	1.781700078e-13
3.340000000e+00	3.477380532e-01	-3.085654617e-02	1.935092935e-13
3.350000000e+00	3.473432481e-01	-3.090257597e-02	1.709282004e-13
3.360000000e+00	3.469497841e-01	-3.094860424e-02	1.600502688e-13
3.370000000e+00	3.465576538e-01	-3.099463103e-02	2.931809562e-13
3.380000000e+00	3.461668494e-01	-3.104065640e-02	5.740271772e-14
3.390000000e+00	3.457773637e-01	-3.108668040e-02	1.572953700e-13
3.400000000e+00	3.453891892e-01	-3.113270309e-02	3.531880322e-13
3.410000000e+00	3.450023185e-01	-3.117872452e-02	1.608712780e-13
3.420000000e+00	3.446167445e-01	-3.122474476e-02	1.704654813e-13
3.430000000e+00	3.442324598e-01	-3.127076386e-02	1.538684201e-13
3.440000000e+00	3.438494572e-01	-3.131678186e-02	7.160723346e-14
3.450000000e+00	3.434677298e-01	-3.136279882e-02	4.975139168e-13
3.460000000e+00	3.430872704e-01	-3.140881481e-02	4.662725228e-14
3.470000000e+00	3.427080720e-01	-3.145482986e-02	1.331319902e-13
3.480000000e+00	3.423301277e-01	-3.150084404e-02	1.232265538e-13
3.490000000e+00	3.419534306e-01	-3.154685740e-02	8.845405402e-14
3.500000000e+00	3.415779738e-01	-3.159286999e-02	2.193800697e-13
3.510000000e+00	3.412037505e-01	-3.163888186e-02	4.511955114e-13
3.520000000e+00	3.408307541e-01	-3.168489306e-02	1.166670616e-13
3.530000000e+00	3.404589778e-01	-3.173090365e-02	1.001241449e-13
3.540000000e+00	3.400884149e-01	-3.177691367e-02	3.816752352e-13
3.550000000e+00	3.397190590e-01	-3.182292318e-02	1.053343659e-13
3.560000000e+00	3.393509035e-01	-3.186893223e-02	1.401409330e-13
3.570000000e+00	3.389839418e-01	-3.191494086e-02	2.516324833e-13
3.580000000e+00	3.386181676e-01	-3.196094914e-02	1.844013268e-13
3.590000000e+00	3.382535745e-01	-3.200695710e-02	1.683941546e-13
3.600000000e+00	3.378901560e-01	-3.205296479e-02	1.609172434e-14
3.610000000e+00	3.375279060e-01	-3.209897228e-02	2.852646714e-13
3.620000000e+00	3.371668182e-01	-3.214497960e-02	2.042158609e-13
3.630000000e+00	3.368068864e-01	-3.219098680e-02	1.060508837e-13
3.640000000e+00	3.364481044e-01	-3.223699393e-02	6.526934593e-13
3.650000000e+00	3.360904661e-01	-3.228300104e-02	4.241923767e-14
3.660000000e+00	3.357339654e-01	-3.232900818e-02	1.288509365e-13
3.670000000e+00	3.353785965e-01	-3.237501539e-02	1.485808616e-13
3.680000000e+00	3.350243532e-01	-3.242102273e-02	1.625833584e-13
3.690000000e+00	3.346712296e-01	-3.246703023e-02	1.419335793e-13
3.700000000e+00	3.343192199e-01	-3.251303794e-02	1.741033609e-13
3.710000000e+00	3.339683182e-01	-3.255904592e-02	2.444927892e-13
3.720000000e+00	3.336185188e-01	-3.260505420e-02	3.358066239e-13
3.730000000e+00	3.332698158e-01	-3.265106284e-02	7.817988420e-14
3.740000000e+00	3.329222035e-01	-3.269707187e-02	1.513093467e-13
3.750000000e+00	3.325756763e-01	-3.274308134e-02	1.505613064e-13
3.760000000e+00	3.322302286e-01	-3.278909130e-02	9.254226711e-14
3.770000000e+00	3.318858547e-01	-3.283510180e-02	1.676335300e-13
3.780000000e+00	3.315425491e-01	-3.288111286e-02	9.557002028e-14
3.790000000e+00	3.312003064e-01	-3.292712455e-02	6.169484474e-14
3.800000000e+00	3.308591209e-01	-3.297313691e-02	1.535553635e-13
3.810000000e+00	3.305189873e-01	-3.301914997e-02	1.305841282e-13
3.820000000e+00	3.301799002e-01	-3.306516378e-02	1.415774231e-13
3.830000000e+00	3.298418543e-01	-3.311117838e-02	1.347757709e-13
3.840000000e+00	3.295048442e-01	-3.315719382e-02	1.168697349e-13
3.850000000e+00	3.291688647e-01	-3.320321014e-02	3.076743503e-13
3.860000000e+00	3.288339105e-01	-3.324922738e-02	1.217322969e-13
3.870000000e+00	3.284999763e-01	-3.329524558e-02	2.018511256e-13
3.880000000e+00	3.281670571e-01	-3.334126479e-02	3.526247300e-14
3.890000000e+00	3.278351478e-01	-3.338728505e-02	1.249556877e-13
3.900000000e+00	3.275042431e-01	-3.343330639e-02	8.025246193e-14
3.910000000e+00	3.271743382e-01	-3.347932886e-02	4.263256415e-14
3.920000000e+00	3.268454278e-01	-3.352535250e-02	2.842517867e-14
3.930000000e+00	3.265175071e-01	-3.357137735e-02	1.436983753e-13
3.940000000e+00	3.261905712e-01	-3.361740345e-02	3.205625901e-13
3.950000000e+00	3.258646150e-01	-3.366343084e-02	3.455484938e-13
3.960000000e+00	3.255396337e-01	-3.370945956e-02	2.212562794e-13
3.970000000e+00	3.252156225e-01	-3.375548965e-02	2.531308496e-14
3.980000000e+00	3.248925765e-01	-3.380152115e-02	4.632316665e-13
3.990000000e+00	3.245704910e-01	-3.384755410e-02	5.112901888e-13
4.000000000e+00	3.242493611e-01	-3.389358854e-02	5.515294780e-13
4.010000000e+00	3.239291823e-01	-3.393962450e-02	2.274469557e-13
4.020000000e+00	3.236099498e-01	-3.398566203e-02	1.422444845e-13
4.030000000e+00	3.232916590e-01	-3.403170116e-02	3.594854837e-13
4.040000000e+00	3.229743052e-01	-3.407774193e-02	2.437835393e-13
