# Re(epsi1)     Omega/c [1/micrones]    Im(epsi1)     Eq(det).Opt det SIN kz, mu = 0.3 eV, R = 0.25 micrones, solve_det_sinkz_vs_re_epsi1.py
1.000000000e+00	5.843269462e-01	-2.308319068e-02	7.541708315e-14
1.010000000e+00	5.829264141e-01	-2.313514880e-02	9.261389705e-14
1.020000000e+00	5.815358882e-01	-2.318705936e-02	1.208999867e-13
1.030000000e+00	5.801552503e-01	-2.323892272e-02	1.537102074e-13
1.040000000e+00	5.787843838e-01	-2.329073924e-02	1.045979169e-13
1.050000000e+00	5.774231742e-01	-2.334250926e-02	1.079705591e-13
1.060000000e+00	5.760715089e-01	-2.339423314e-02	8.447347311e-14
1.070000000e+00	5.747292770e-01	-2.344591123e-02	7.860386855e-14
1.080000000e+00	5.733963694e-01	-2.349754388e-02	1.223997597e-13
1.090000000e+00	5.720726789e-01	-2.354913143e-02	8.352657617e-14
1.100000000e+00	5.707580999e-01	-2.360067421e-02	6.482963382e-14
1.110000000e+00	5.694525284e-01	-2.365217257e-02	7.169326968e-14
1.120000000e+00	5.681558622e-01	-2.370362684e-02	1.358272571e-13
1.130000000e+00	5.668680008e-01	-2.375503736e-02	8.067311679e-14
1.140000000e+00	5.655888449e-01	-2.380640445e-02	7.829867067e-14
1.150000000e+00	5.643182972e-01	-2.385772844e-02	7.496318024e-14
1.160000000e+00	5.630562616e-01	-2.390900965e-02	6.381882662e-14
1.170000000e+00	5.618026437e-01	-2.396024842e-02	1.047017425e-13
1.180000000e+00	5.605573504e-01	-2.401144505e-02	1.174095362e-13
1.190000000e+00	5.593202901e-01	-2.406259986e-02	1.729452745e-13
1.200000000e+00	5.580913726e-01	-2.411371317e-02	7.011864870e-14
1.210000000e+00	5.568705092e-01	-2.416478529e-02	8.038083704e-14
1.220000000e+00	5.556576122e-01	-2.421581653e-02	1.001723911e-13
1.230000000e+00	5.544525957e-01	-2.426680720e-02	1.733069165e-13
1.240000000e+00	5.532553746e-01	-2.431775760e-02	1.565731358e-13
1.250000000e+00	5.520658655e-01	-2.436866803e-02	1.688743744e-13
1.260000000e+00	5.508839860e-01	-2.441953879e-02	1.865968850e-13
1.270000000e+00	5.497096550e-01	-2.447037017e-02	1.795196730e-13
1.280000000e+00	5.485427926e-01	-2.452116248e-02	2.060088453e-13
1.290000000e+00	5.473833200e-01	-2.457191601e-02	1.037497328e-13
1.300000000e+00	5.462311597e-01	-2.462263104e-02	1.993537992e-13
1.310000000e+00	5.450862352e-01	-2.467330787e-02	8.713632991e-14
1.320000000e+00	5.439484713e-01	-2.472394677e-02	9.053242499e-14
1.330000000e+00	5.428177936e-01	-2.477454804e-02	6.687054933e-14
1.340000000e+00	5.416941290e-01	-2.482511194e-02	2.277768648e-13
1.350000000e+00	5.405774053e-01	-2.487563877e-02	2.300703645e-13
1.360000000e+00	5.394675516e-01	-2.492612879e-02	6.182419739e-14
1.370000000e+00	5.383644977e-01	-2.497658229e-02	3.793490411e-13
1.380000000e+00	5.372681746e-01	-2.502699952e-02	9.667033895e-14
1.390000000e+00	5.361785141e-01	-2.507738077e-02	2.135515070e-13
1.400000000e+00	5.350954492e-01	-2.512772630e-02	1.476615405e-13
1.410000000e+00	5.340189136e-01	-2.517803638e-02	1.719374193e-13
1.420000000e+00	5.329488421e-01	-2.522831126e-02	6.972916546e-14
1.430000000e+00	5.318851703e-01	-2.527855121e-02	8.827913789e-14
1.440000000e+00	5.308278347e-01	-2.532875650e-02	1.633627068e-13
1.450000000e+00	5.297767728e-01	-2.537892736e-02	8.994752606e-14
1.460000000e+00	5.287319228e-01	-2.542906407e-02	1.397410955e-13
1.470000000e+00	5.276932239e-01	-2.547916688e-02	8.368813734e-14
1.480000000e+00	5.266606159e-01	-2.552923602e-02	1.032252508e-13
1.490000000e+00	5.256340397e-01	-2.557927177e-02	7.127078414e-14
1.500000000e+00	5.246134368e-01	-2.562927435e-02	1.190880198e-13
1.510000000e+00	5.235987496e-01	-2.567924402e-02	1.090816015e-13
1.520000000e+00	5.225899212e-01	-2.572918101e-02	1.428394149e-13
1.530000000e+00	5.215868955e-01	-2.577908558e-02	9.955525307e-14
1.540000000e+00	5.205896171e-01	-2.582895796e-02	9.812261385e-14
1.550000000e+00	5.195980315e-01	-2.587879838e-02	1.630920268e-13
1.560000000e+00	5.186120847e-01	-2.592860709e-02	1.137692614e-13
1.570000000e+00	5.176317235e-01	-2.597838431e-02	2.386723363e-13
1.580000000e+00	5.166568955e-01	-2.602813028e-02	1.253284446e-13
1.590000000e+00	5.156875488e-01	-2.607784523e-02	2.965984862e-13
1.600000000e+00	5.147236323e-01	-2.612752938e-02	1.326810810e-13
1.610000000e+00	5.137650955e-01	-2.617718297e-02	1.178574298e-13
1.620000000e+00	5.128118888e-01	-2.622680621e-02	7.346153723e-14
1.630000000e+00	5.118639627e-01	-2.627639933e-02	1.511287193e-13
1.640000000e+00	5.109212690e-01	-2.632596256e-02	1.009724495e-13
1.650000000e+00	5.099837595e-01	-2.637549611e-02	1.748307999e-13
1.660000000e+00	5.090513871e-01	-2.642500019e-02	6.100137559e-14
1.670000000e+00	5.081241051e-01	-2.647447503e-02	1.563460513e-13
1.680000000e+00	5.072018672e-01	-2.652392084e-02	2.802362141e-13
1.690000000e+00	5.062846281e-01	-2.657333783e-02	1.255607268e-13
1.700000000e+00	5.053723427e-01	-2.662272621e-02	1.085682889e-13
1.710000000e+00	5.044649667e-01	-2.667208620e-02	2.074881788e-13
1.720000000e+00	5.035624561e-01	-2.672141800e-02	8.626432901e-14
1.730000000e+00	5.026647678e-01	-2.677072181e-02	1.368243468e-13
1.740000000e+00	5.017718590e-01	-2.681999784e-02	3.141905267e-13
1.750000000e+00	5.008836875e-01	-2.686924630e-02	2.242787085e-13
1.760000000e+00	5.000002115e-01	-2.691846739e-02	2.682615884e-13
1.770000000e+00	4.991213898e-01	-2.696766130e-02	1.129997626e-13
1.780000000e+00	4.982471818e-01	-2.701682824e-02	7.069749935e-14
1.790000000e+00	4.973775473e-01	-2.706596839e-02	6.770612989e-14
1.800000000e+00	4.965124466e-01	-2.711508197e-02	1.710915279e-13
1.810000000e+00	4.956518404e-01	-2.716416915e-02	1.442760771e-13
1.820000000e+00	4.947956900e-01	-2.721323014e-02	1.215406230e-13
1.830000000e+00	4.939439571e-01	-2.726226513e-02	1.239072563e-13
1.840000000e+00	4.930966039e-01	-2.731127429e-02	1.409023490e-13
1.850000000e+00	4.922535930e-01	-2.736025783e-02	4.053481887e-13
1.860000000e+00	4.914148875e-01	-2.740921593e-02	1.665341938e-13
1.870000000e+00	4.905804508e-01	-2.745814878e-02	1.751406996e-13
1.880000000e+00	4.897502470e-01	-2.750705655e-02	1.331721658e-13
1.890000000e+00	4.889242403e-01	-2.755593944e-02	4.161388407e-13
1.900000000e+00	4.881023957e-01	-2.760479762e-02	8.395165598e-14
1.910000000e+00	4.872846781e-01	-2.765363127e-02	4.201959338e-13
1.920000000e+00	4.864710533e-01	-2.770244057e-02	9.879787303e-14
1.930000000e+00	4.856614873e-01	-2.775122570e-02	2.332107964e-13
1.940000000e+00	4.848559464e-01	-2.779998683e-02	1.952073923e-13
1.950000000e+00	4.840543975e-01	-2.784872414e-02	8.020329816e-14
1.960000000e+00	4.832568076e-01	-2.789743781e-02	1.520997440e-13
1.970000000e+00	4.824631444e-01	-2.794612800e-02	2.455749085e-13
1.980000000e+00	4.816733757e-01	-2.799479489e-02	5.084245947e-13
1.990000000e+00	4.808874698e-01	-2.804343864e-02	3.200266735e-13
2.000000000e+00	4.801053954e-01	-2.809205942e-02	9.262028513e-14
2.010000000e+00	4.793271214e-01	-2.814065740e-02	4.975583117e-14
2.020000000e+00	4.785526172e-01	-2.818923275e-02	1.335963247e-13
2.030000000e+00	4.777818525e-01	-2.823778563e-02	5.684515356e-14
2.040000000e+00	4.770147973e-01	-2.828631620e-02	1.559176915e-13
2.050000000e+00	4.762514220e-01	-2.833482463e-02	8.401740650e-14
2.060000000e+00	4.754916972e-01	-2.838331108e-02	2.666408102e-13
2.070000000e+00	4.747355939e-01	-2.843177571e-02	2.013317750e-13
2.080000000e+00	4.739830836e-01	-2.848021867e-02	2.549405690e-13
2.090000000e+00	4.732341379e-01	-2.852864012e-02	1.137650902e-13
2.100000000e+00	4.724887286e-01	-2.857704022e-02	9.271578767e-14
2.110000000e+00	4.717468282e-01	-2.862541913e-02	1.309967197e-13
2.120000000e+00	4.710084092e-01	-2.867377700e-02	1.297713474e-13
2.130000000e+00	4.702734444e-01	-2.872211398e-02	4.605699702e-14
2.140000000e+00	4.695419070e-01	-2.877043022e-02	1.762094278e-13
2.150000000e+00	4.688137706e-01	-2.881872588e-02	4.591601107e-14
2.160000000e+00	4.680890087e-01	-2.886700111e-02	2.310784610e-13
2.170000000e+00	4.673675956e-01	-2.891525605e-02	1.021658572e-13
2.180000000e+00	4.666495054e-01	-2.896349085e-02	1.100275269e-13
2.190000000e+00	4.659347128e-01	-2.901170566e-02	7.444291678e-15
2.200000000e+00	4.652231926e-01	-2.905990062e-02	8.758470561e-14
2.210000000e+00	4.645149199e-01	-2.910807588e-02	2.067454681e-13
2.220000000e+00	4.638098701e-01	-2.915623158e-02	1.309861808e-13
2.230000000e+00	4.631080190e-01	-2.920436787e-02	4.885990498e-14
2.240000000e+00	4.624093423e-01	-2.925248489e-02	1.354772363e-13
2.250000000e+00	4.617138162e-01	-2.930058277e-02	1.693070820e-13
2.260000000e+00	4.610214172e-01	-2.934866165e-02	1.617279070e-13
2.270000000e+00	4.603321219e-01	-2.939672169e-02	1.257942949e-13
2.280000000e+00	4.596459071e-01	-2.944476300e-02	9.692138907e-14
2.290000000e+00	4.589627501e-01	-2.949278574e-02	1.006437839e-13
2.300000000e+00	4.582826282e-01	-2.954079002e-02	1.814343573e-13
2.310000000e+00	4.576055190e-01	-2.958877600e-02	9.804645988e-14
2.320000000e+00	4.569314004e-01	-2.963674380e-02	2.917135452e-13
2.330000000e+00	4.562602503e-01	-2.968469356e-02	7.339741430e-14
2.340000000e+00	4.555920471e-01	-2.973262541e-02	3.365914981e-13
2.350000000e+00	4.549267694e-01	-2.978053948e-02	8.526628477e-14
2.360000000e+00	4.542643957e-01	-2.982843589e-02	1.149978848e-13
2.370000000e+00	4.536049052e-01	-2.987631479e-02	1.026461079e-13
2.380000000e+00	4.529482769e-01	-2.992417629e-02	7.800775547e-13
2.390000000e+00	4.522944902e-01	-2.997202053e-02	1.478998761e-13
2.400000000e+00	4.516435246e-01	-3.001984763e-02	2.612211100e-14
2.410000000e+00	4.509953601e-01	-3.006765771e-02	2.792276019e-13
2.420000000e+00	4.503499764e-01	-3.011545091e-02	1.019240367e-13
2.430000000e+00	4.497073539e-01	-3.016322735e-02	1.409554822e-13
2.440000000e+00	4.490674729e-01	-3.021098714e-02	1.204726531e-13
2.450000000e+00	4.484303140e-01	-3.025873042e-02	3.098337091e-13
2.460000000e+00	4.477958579e-01	-3.030645730e-02	5.760335218e-14
2.470000000e+00	4.471640857e-01	-3.035416790e-02	4.747394660e-14
2.480000000e+00	4.465349783e-01	-3.040186235e-02	2.431533408e-13
2.490000000e+00	4.459085172e-01	-3.044954076e-02	1.397011768e-13
2.500000000e+00	4.452846839e-01	-3.049720326e-02	1.904019216e-13
2.510000000e+00	4.446634601e-01	-3.054484995e-02	8.589309868e-14
2.520000000e+00	4.440448276e-01	-3.059248096e-02	1.128510986e-13
2.530000000e+00	4.434287685e-01	-3.064009640e-02	1.119281021e-13
2.540000000e+00	4.428152650e-01	-3.068769639e-02	2.576773827e-13
2.550000000e+00	4.422042995e-01	-3.073528104e-02	1.642487822e-13
2.560000000e+00	4.415958545e-01	-3.078285047e-02	1.597363640e-13
2.570000000e+00	4.409899128e-01	-3.083040478e-02	1.716512512e-13
2.580000000e+00	4.403864572e-01	-3.087794410e-02	1.006359454e-13
2.590000000e+00	4.397854709e-01	-3.092546852e-02	1.715639103e-13
2.600000000e+00	4.391869370e-01	-3.097297817e-02	8.777364534e-14
2.610000000e+00	4.385908389e-01	-3.102047315e-02	1.424439937e-13
2.620000000e+00	4.379971602e-01	-3.106795358e-02	4.104114770e-13
2.630000000e+00	4.374058845e-01	-3.111541955e-02	2.402288667e-13
2.640000000e+00	4.368169956e-01	-3.116287118e-02	1.726290776e-13
2.650000000e+00	4.362304776e-01	-3.121030858e-02	1.177908435e-13
2.660000000e+00	4.356463146e-01	-3.125773185e-02	3.946551623e-13
2.670000000e+00	4.350644909e-01	-3.130514110e-02	1.403666171e-13
2.680000000e+00	4.344849909e-01	-3.135253643e-02	3.135269822e-13
2.690000000e+00	4.339077992e-01	-3.139991794e-02	1.150148187e-13
2.700000000e+00	4.333329006e-01	-3.144728575e-02	1.564808055e-13
2.710000000e+00	4.327602798e-01	-3.149463995e-02	2.335351955e-13
2.720000000e+00	4.321899220e-01	-3.154198065e-02	2.596828505e-13
2.730000000e+00	4.316218122e-01	-3.158930794e-02	2.134309560e-13
2.740000000e+00	4.310559357e-01	-3.163662194e-02	1.931762540e-13
2.750000000e+00	4.304922780e-01	-3.168392273e-02	1.017342375e-13
2.760000000e+00	4.299308245e-01	-3.173121042e-02	1.037544849e-13
2.770000000e+00	4.293715610e-01	-3.177848511e-02	3.413564443e-13
2.780000000e+00	4.288144733e-01	-3.182574690e-02	9.170200243e-14
2.790000000e+00	4.282595472e-01	-3.187299588e-02	2.348022746e-13
2.800000000e+00	4.277067689e-01	-3.192023215e-02	1.021762322e-13
2.810000000e+00	4.271561246e-01	-3.196745581e-02	7.201505958e-14
2.820000000e+00	4.266076005e-01	-3.201466695e-02	1.505848821e-13
2.830000000e+00	4.260611831e-01	-3.206186568e-02	1.496580637e-13
2.840000000e+00	4.255168590e-01	-3.210905207e-02	9.984899266e-14
2.850000000e+00	4.249746148e-01	-3.215622624e-02	1.168697349e-13
2.860000000e+00	4.244344373e-01	-3.220338827e-02	1.494252959e-13
2.870000000e+00	4.238963135e-01	-3.225053825e-02	1.723340807e-13
2.880000000e+00	4.233602303e-01	-3.229767628e-02	1.505881562e-13
2.890000000e+00	4.228261749e-01	-3.234480246e-02	1.505881562e-13
2.900000000e+00	4.222941345e-01	-3.239191686e-02	1.075246271e-13
2.910000000e+00	4.217640966e-01	-3.243901958e-02	4.033396090e-14
2.920000000e+00	4.212360486e-01	-3.248611071e-02	1.194732038e-13
2.930000000e+00	4.207099780e-01	-3.253319035e-02	9.090821777e-14
2.940000000e+00	4.201858726e-01	-3.258025858e-02	2.049518614e-13
2.950000000e+00	4.196637202e-01	-3.262731548e-02	4.337549145e-14
2.960000000e+00	4.191435087e-01	-3.267436115e-02	4.653410776e-14
2.970000000e+00	4.186252260e-01	-3.272139568e-02	2.899327820e-13
2.980000000e+00	4.181088604e-01	-3.276841914e-02	8.597571690e-14
2.990000000e+00	4.175944000e-01	-3.281543163e-02	7.346153723e-14
3.000000000e+00	4.170818331e-01	-3.286243324e-02	1.911874967e-13
3.010000000e+00	4.165711482e-01	-3.290942404e-02	1.645888316e-13
3.020000000e+00	4.160623337e-01	-3.295640413e-02	2.844338521e-13
3.030000000e+00	4.155553784e-01	-3.300337358e-02	1.423858324e-14
3.040000000e+00	4.150502708e-01	-3.305033249e-02	2.991263081e-14
3.050000000e+00	4.145469998e-01	-3.309728093e-02	5.904883742e-14
3.060000000e+00	4.140455544e-01	-3.314421898e-02	1.650441283e-13
3.070000000e+00	4.135459234e-01	-3.319114674e-02	2.854633628e-14
3.080000000e+00	4.130480961e-01	-3.323806427e-02	1.778864174e-13
3.090000000e+00	4.125520615e-01	-3.328497167e-02	2.282812927e-13
3.100000000e+00	4.120578089e-01	-3.333186900e-02	1.150328216e-13
3.110000000e+00	4.115653278e-01	-3.337875637e-02	1.479723640e-13
3.120000000e+00	4.110746075e-01	-3.342563383e-02	2.532414582e-13
3.130000000e+00	4.105856375e-01	-3.347250147e-02	9.739636741e-14
3.140000000e+00	4.100984076e-01	-3.351935938e-02	2.075222748e-13
3.150000000e+00	4.096129074e-01	-3.356620762e-02	1.540938365e-13
3.160000000e+00	4.091291267e-01	-3.361304628e-02	2.331362614e-13
3.170000000e+00	4.086470554e-01	-3.365987544e-02	2.651238618e-13
3.180000000e+00	4.081666834e-01	-3.370669516e-02	5.061154013e-13
3.190000000e+00	4.076880008e-01	-3.375350553e-02	1.421147920e-13
3.200000000e+00	4.072109978e-01	-3.380030663e-02	1.827064183e-13
3.210000000e+00	4.067356644e-01	-3.384709852e-02	2.876656200e-14
3.220000000e+00	4.062619911e-01	-3.389388129e-02	2.069436658e-13
3.230000000e+00	4.057899681e-01	-3.394065500e-02	1.789299300e-13
3.240000000e+00	4.053195860e-01	-3.398741974e-02	1.456612608e-13
3.250000000e+00	4.048508351e-01	-3.403417558e-02	8.961363744e-14
3.260000000e+00	4.043837062e-01	-3.408092258e-02	2.003920267e-13
3.270000000e+00	4.039181899e-01	-3.412766083e-02	3.305408226e-14
3.280000000e+00	4.034542770e-01	-3.417439039e-02	8.650037070e-13
3.290000000e+00	4.029919582e-01	-3.422111134e-02	2.123990995e-13
3.300000000e+00	4.025312245e-01	-3.426782375e-02	1.865174681e-14
3.310000000e+00	4.020720668e-01	-3.431452769e-02	7.904787935e-14
3.320000000e+00	4.016144761e-01	-3.436122323e-02	1.819725645e-13
3.330000000e+00	4.011584437e-01	-3.440791044e-02	5.883469769e-14
3.340000000e+00	4.007039606e-01	-3.445458939e-02	5.578050399e-13
3.350000000e+00	4.002510180e-01	-3.450126015e-02	4.123836410e-13
3.360000000e+00	3.997996075e-01	-3.454792279e-02	1.588821858e-13
3.370000000e+00	3.993497202e-01	-3.459457738e-02	9.168909786e-14
3.380000000e+00	3.989013477e-01	-3.464122399e-02	6.436689735e-14
3.390000000e+00	3.984544815e-01	-3.468786268e-02	9.494789321e-14
3.400000000e+00	3.980091131e-01	-3.473449353e-02	3.612998023e-13
3.410000000e+00	3.975652343e-01	-3.478111659e-02	2.247214269e-13
3.420000000e+00	3.971228368e-01	-3.482773195e-02	1.626142872e-13
3.430000000e+00	3.966819122e-01	-3.487433965e-02	1.180976748e-13
3.440000000e+00	3.962424526e-01	-3.492093978e-02	2.876656200e-14
3.450000000e+00	3.958044497e-01	-3.496753239e-02	2.510388814e-13
3.460000000e+00	3.953678956e-01	-3.501411755e-02	2.847716648e-14
3.470000000e+00	3.949327822e-01	-3.506069532e-02	7.460698725e-14
3.480000000e+00	3.944991018e-01	-3.510726577e-02	2.080082761e-13
3.490000000e+00	3.940668464e-01	-3.515382897e-02	9.613685228e-14
3.500000000e+00	3.936360083e-01	-3.520038498e-02	2.126311009e-13
3.510000000e+00	3.932065797e-01	-3.524693385e-02	1.128825505e-13
3.520000000e+00	3.927785529e-01	-3.529347567e-02	3.055385402e-13
3.530000000e+00	3.923519204e-01	-3.534001047e-02	2.325399693e-13
3.540000000e+00	3.919266747e-01	-3.538653834e-02	8.757006829e-14
3.550000000e+00	3.915028081e-01	-3.543305933e-02	1.017381145e-13
3.560000000e+00	3.910803133e-01	-3.547957350e-02	1.711973984e-13
3.570000000e+00	3.906591829e-01	-3.552608092e-02	2.248495198e-13
3.580000000e+00	3.902394096e-01	-3.557258164e-02	1.469230745e-13
3.590000000e+00	3.898209861e-01	-3.561907573e-02	9.308940350e-14
3.600000000e+00	3.894039051e-01	-3.566556324e-02	2.124083844e-13
3.610000000e+00	3.889881596e-01	-3.571204424e-02	6.656599511e-14
3.620000000e+00	3.885737424e-01	-3.575851879e-02	1.301507212e-13
3.630000000e+00	3.881606465e-01	-3.580498694e-02	1.286970224e-13
3.640000000e+00	3.877488648e-01	-3.585144876e-02	1.798950521e-13
3.650000000e+00	3.873383904e-01	-3.589790430e-02	1.231208803e-13
3.660000000e+00	3.869292164e-01	-3.594435362e-02	1.290061957e-13
3.670000000e+00	3.865213359e-01	-3.599079678e-02	5.151434834e-14
3.680000000e+00	3.861147422e-01	-3.603723384e-02	1.660893645e-13
3.690000000e+00	3.857094286e-01	-3.608366485e-02	2.220446049e-14
3.700000000e+00	3.853053882e-01	-3.613008988e-02	1.223624942e-13
3.710000000e+00	3.849026144e-01	-3.617650897e-02	2.930988785e-14
3.720000000e+00	3.845011007e-01	-3.622292219e-02	1.772288765e-13
3.730000000e+00	3.841008406e-01	-3.626932959e-02	4.832213033e-14
3.740000000e+00	3.837018274e-01	-3.631573123e-02	1.225686219e-13
3.750000000e+00	3.833040547e-01	-3.636212716e-02	3.552713679e-14
3.760000000e+00	3.829075161e-01	-3.640851743e-02	5.740271772e-14
3.770000000e+00	3.825122053e-01	-3.645490211e-02	5.783398861e-14
3.780000000e+00	3.821181159e-01	-3.650128125e-02	1.176693954e-13
3.790000000e+00	3.817252417e-01	-3.654765490e-02	7.727152251e-14
3.800000000e+00	3.813335764e-01	-3.659402311e-02	1.154631946e-13
3.810000000e+00	3.809431139e-01	-3.664038594e-02	1.275054289e-13
3.820000000e+00	3.805538479e-01	-3.668674345e-02	6.394884622e-14
3.830000000e+00	3.801657724e-01	-3.673309568e-02	5.690583464e-14
3.840000000e+00	3.797788814e-01	-3.677944269e-02	5.498821555e-14
3.850000000e+00	3.793931688e-01	-3.682578454e-02	5.197930935e-14
3.860000000e+00	3.790086287e-01	-3.687212126e-02	6.277857184e-14
3.870000000e+00	3.786252551e-01	-3.691845292e-02	8.248423611e-13
3.880000000e+00	3.782430422e-01	-3.696477957e-02	5.687116766e-14
3.890000000e+00	3.778619841e-01	-3.701110126e-02	1.497627900e-13
3.900000000e+00	3.774820750e-01	-3.705741804e-02	1.214987824e-13
3.910000000e+00	3.771033092e-01	-3.710372996e-02	1.263619151e-13
3.920000000e+00	3.767256808e-01	-3.715003708e-02	4.440892099e-15
3.930000000e+00	3.763491844e-01	-3.719633943e-02	3.108624469e-14
3.940000000e+00	3.759738141e-01	-3.724263708e-02	1.168925136e-13
3.950000000e+00	3.755995644e-01	-3.728893007e-02	1.283194984e-13
3.960000000e+00	3.752264298e-01	-3.733521845e-02	2.457559354e-13
3.970000000e+00	3.748544047e-01	-3.738150228e-02	3.363101396e-13
3.980000000e+00	3.744834836e-01	-3.742778159e-02	1.709829967e-13
3.990000000e+00	3.741136611e-01	-3.747405644e-02	7.451578749e-13
4.000000000e+00	3.737449318e-01	-3.752032688e-02	9.414691249e-14
4.010000000e+00	3.733772903e-01	-3.756659296e-02	5.955433343e-14
4.020000000e+00	3.730107312e-01	-3.761285472e-02	2.923294597e-13
4.030000000e+00	3.726452494e-01	-3.765911221e-02	3.142708612e-13
4.040000000e+00	3.722808394e-01	-3.770536548e-02	2.010974029e-13
