# mu [eV]     Omega/c [1/micrones]    Im(epsi1)     Eq(det)R = 0.05 $\mu$m, $E_p$ = 0.600 eV, modo = 2, $\epsilon_\infty$ = 3.9, $\gamma_{DL}$ = 0.01 eV, solve_det_sinkz_vs_mu.py
3.000000000e-01	1.467142768e+00	-1.811154808e-01	6.102335199e-14
3.001000000e-01	1.467193563e+00	-1.810792683e-01	9.979541915e-14
3.003000000e-01	1.467295125e+00	-1.810069328e-01	5.704613228e-14
3.004000000e-01	1.467345892e+00	-1.809708098e-01	6.847663366e-14
3.005000000e-01	1.467396650e+00	-1.809347166e-01	5.739926897e-14
3.006000000e-01	1.467447399e+00	-1.808986531e-01	5.195593224e-14
3.007000000e-01	1.467498138e+00	-1.808626192e-01	8.760391340e-14
3.008000000e-01	1.467548869e+00	-1.808266150e-01	5.765214565e-14
3.009000000e-01	1.467599590e+00	-1.807906403e-01	7.560755460e-14
3.010000000e-01	1.467650302e+00	-1.807546952e-01	4.237860645e-14
3.011000000e-01	1.467701005e+00	-1.807187795e-01	4.609669069e-14
3.012000000e-01	1.467751699e+00	-1.806828933e-01	3.975669706e-14
3.013000000e-01	1.467802384e+00	-1.806470365e-01	6.279035728e-14
3.014000000e-01	1.467853060e+00	-1.806112090e-01	7.206061732e-14
3.015000000e-01	1.467903727e+00	-1.805754107e-01	9.995252555e-14
3.017000000e-01	1.468005033e+00	-1.805039020e-01	7.203628004e-14
3.018000000e-01	1.468055672e+00	-1.804681914e-01	5.422664565e-14
3.019000000e-01	1.468106302e+00	-1.804325098e-01	5.110403736e-14
3.020000000e-01	1.468156924e+00	-1.803968573e-01	2.240437646e-14
3.021000000e-01	1.468207536e+00	-1.803612339e-01	7.521729370e-14
3.022000000e-01	1.468258139e+00	-1.803256393e-01	7.114303598e-14
3.024000000e-01	1.468359319e+00	-1.802545370e-01	8.495647666e-14
3.025000000e-01	1.468409895e+00	-1.802190291e-01	2.275512052e-14
3.027000000e-01	1.468511021e+00	-1.801480996e-01	4.240645274e-14
3.028000000e-01	1.468561570e+00	-1.801126779e-01	5.736592207e-14
3.029000000e-01	1.468612111e+00	-1.800772848e-01	5.657287009e-14
3.030000000e-01	1.468662642e+00	-1.800419203e-01	5.960628607e-14
3.031000000e-01	1.468713165e+00	-1.800065844e-01	7.215133585e-14
3.032000000e-01	1.468763678e+00	-1.799712769e-01	5.225259866e-14
3.033000000e-01	1.468814183e+00	-1.799359979e-01	6.544210338e-14
3.034000000e-01	1.468864679e+00	-1.799007474e-01	7.358891965e-14
3.035000000e-01	1.468915165e+00	-1.798655252e-01	4.872424894e-14
3.036000000e-01	1.468965643e+00	-1.798303313e-01	6.400019269e-14
3.037000000e-01	1.469016113e+00	-1.797951657e-01	3.375082560e-14
3.038000000e-01	1.469066573e+00	-1.797600283e-01	8.528934886e-14
3.039000000e-01	1.469117024e+00	-1.797249191e-01	6.854470925e-14
3.040000000e-01	1.469167467e+00	-1.796898381e-01	4.667468738e-14
3.041000000e-01	1.469217900e+00	-1.796547851e-01	7.404530587e-14
3.042000000e-01	1.469268325e+00	-1.796197603e-01	5.263151026e-14
3.044000000e-01	1.469369148e+00	-1.795497945e-01	6.226334883e-14
3.046000000e-01	1.469469936e+00	-1.794799403e-01	7.898467342e-14
3.047000000e-01	1.469520317e+00	-1.794450551e-01	5.267249416e-14
3.048000000e-01	1.469570689e+00	-1.794101976e-01	7.995478216e-14
3.049000000e-01	1.469621052e+00	-1.793753678e-01	6.592689511e-14
3.050000000e-01	1.469671407e+00	-1.793405658e-01	7.185203730e-14
3.051000000e-01	1.469721752e+00	-1.793057914e-01	7.784796375e-14
3.052000000e-01	1.469772089e+00	-1.792710446e-01	3.485579841e-14
3.053000000e-01	1.469822418e+00	-1.792363254e-01	6.640900122e-14
3.054000000e-01	1.469872737e+00	-1.792016337e-01	4.457630343e-14
3.055000000e-01	1.469923048e+00	-1.791669695e-01	4.604703531e-14
3.058000000e-01	1.470073928e+00	-1.790631414e-01	7.519070089e-14
3.059000000e-01	1.470124204e+00	-1.790285867e-01	8.561475587e-14
3.060000000e-01	1.470174472e+00	-1.789940593e-01	6.277786662e-14
3.061000000e-01	1.470224730e+00	-1.789595591e-01	6.651519351e-14
3.062000000e-01	1.470274980e+00	-1.789250861e-01	4.106704090e-14
3.063000000e-01	1.470325222e+00	-1.788906403e-01	7.034298005e-14
3.064000000e-01	1.470375455e+00	-1.788562215e-01	4.832048873e-14
3.065000000e-01	1.470425679e+00	-1.788218298e-01	6.323712449e-14
3.066000000e-01	1.470475894e+00	-1.787874651e-01	4.638919975e-14
3.067000000e-01	1.470526101e+00	-1.787531274e-01	7.395904529e-14
3.068000000e-01	1.470576299e+00	-1.787188167e-01	6.767959399e-14
3.069000000e-01	1.470626489e+00	-1.786845328e-01	5.108275186e-14
3.070000000e-01	1.470676670e+00	-1.786502757e-01	5.114613134e-14
3.071000000e-01	1.470726843e+00	-1.786160455e-01	5.840335095e-14
3.072000000e-01	1.470777007e+00	-1.785818420e-01	7.616304431e-14
3.073000000e-01	1.470827162e+00	-1.785476653e-01	3.404377492e-14
3.074000000e-01	1.470877309e+00	-1.785135152e-01	4.679492560e-14
3.075000000e-01	1.470927448e+00	-1.784793918e-01	4.451495135e-14
3.076000000e-01	1.470977577e+00	-1.784452950e-01	1.930926491e-14
3.077000000e-01	1.471027699e+00	-1.784112247e-01	4.037916636e-14
3.079000000e-01	1.471127916e+00	-1.783431637e-01	5.910380589e-14
3.080000000e-01	1.471178012e+00	-1.783091729e-01	7.870252407e-14
3.081000000e-01	1.471228099e+00	-1.782752085e-01	7.137148914e-14
3.082000000e-01	1.471278178e+00	-1.782412704e-01	5.444636784e-14
3.084000000e-01	1.471378310e+00	-1.781734731e-01	2.523894726e-14
3.085000000e-01	1.471428364e+00	-1.781396138e-01	6.415701304e-14
3.086000000e-01	1.471478409e+00	-1.781057808e-01	5.460396512e-14
3.087000000e-01	1.471528445e+00	-1.780719739e-01	4.939722933e-14
3.088000000e-01	1.471578473e+00	-1.780381930e-01	5.490456968e-14
3.089000000e-01	1.471628493e+00	-1.780044383e-01	7.905945906e-14
3.090000000e-01	1.471678505e+00	-1.779707096e-01	6.674735822e-14
3.091000000e-01	1.471728507e+00	-1.779370069e-01	5.981149166e-14
3.092000000e-01	1.471778502e+00	-1.779033301e-01	5.384000774e-14
3.093000000e-01	1.471828488e+00	-1.778696793e-01	5.935965802e-14
3.094000000e-01	1.471878466e+00	-1.778360543e-01	5.290499762e-14
3.096000000e-01	1.471978396e+00	-1.777688818e-01	5.530820793e-14
3.097000000e-01	1.472028349e+00	-1.777353342e-01	7.597461098e-14
3.098000000e-01	1.472078294e+00	-1.777018123e-01	9.742452173e-14
3.099000000e-01	1.472128230e+00	-1.776683161e-01	4.607248523e-14
3.100000000e-01	1.472178157e+00	-1.776348455e-01	5.456935341e-14
3.101000000e-01	1.472228077e+00	-1.776014005e-01	6.897444412e-14
3.102000000e-01	1.472277988e+00	-1.775679811e-01	4.852367068e-14
3.103000000e-01	1.472327891e+00	-1.775345872e-01	6.230858475e-14
3.105000000e-01	1.472427671e+00	-1.774678757e-01	6.935113432e-14
3.107000000e-01	1.472527419e+00	-1.774012659e-01	5.404715865e-14
3.108000000e-01	1.472577281e+00	-1.773679990e-01	5.113830547e-14
3.109000000e-01	1.472627134e+00	-1.773347574e-01	6.887925669e-14
3.110000000e-01	1.472676979e+00	-1.773015411e-01	8.801839222e-14
3.111000000e-01	1.472726815e+00	-1.772683499e-01	4.680742737e-14
3.112000000e-01	1.472776644e+00	-1.772351839e-01	4.828193870e-14
3.113000000e-01	1.472826464e+00	-1.772020431e-01	6.393770356e-14
3.114000000e-01	1.472876276e+00	-1.771689273e-01	4.230714800e-14
3.115000000e-01	1.472926080e+00	-1.771358366e-01	4.479763662e-14
3.116000000e-01	1.472975876e+00	-1.771027710e-01	9.521556182e-14
3.117000000e-01	1.473025663e+00	-1.770697303e-01	6.053530015e-14
3.118000000e-01	1.473075443e+00	-1.770367145e-01	6.364907282e-14
3.119000000e-01	1.473125214e+00	-1.770037237e-01	4.187423498e-14
3.120000000e-01	1.473174977e+00	-1.769707577e-01	3.351289579e-14
3.121000000e-01	1.473224732e+00	-1.769378166e-01	7.451958066e-14
3.123000000e-01	1.473324217e+00	-1.768720086e-01	8.949659684e-14
3.124000000e-01	1.473373948e+00	-1.768391417e-01	4.532175298e-14
3.125000000e-01	1.473423670e+00	-1.768062996e-01	6.295051476e-14
3.126000000e-01	1.473473384e+00	-1.767734820e-01	4.062825722e-14
3.127000000e-01	1.473523090e+00	-1.767406891e-01	4.005569289e-14
3.128000000e-01	1.473572789e+00	-1.767079207e-01	3.711251820e-14
3.129000000e-01	1.473622478e+00	-1.766751769e-01	5.468948822e-14
3.130000000e-01	1.473672160e+00	-1.766424575e-01	6.987132508e-14
3.132000000e-01	1.473771500e+00	-1.765770922e-01	9.238336529e-14
3.133000000e-01	1.473821158e+00	-1.765444462e-01	5.635378886e-14
3.134000000e-01	1.473870807e+00	-1.765118244e-01	7.827580944e-14
3.135000000e-01	1.473920449e+00	-1.764792271e-01	5.392807633e-14
3.136000000e-01	1.473970083e+00	-1.764466539e-01	8.145013056e-14
3.137000000e-01	1.474019708e+00	-1.764141051e-01	4.087406505e-14
3.138000000e-01	1.474069326e+00	-1.763815804e-01	7.454874835e-14
3.139000000e-01	1.474118935e+00	-1.763490799e-01	8.089991858e-14
3.140000000e-01	1.474168537e+00	-1.763166035e-01	6.739520468e-14
3.141000000e-01	1.474218131e+00	-1.762841513e-01	6.773950557e-14
3.142000000e-01	1.474267716e+00	-1.762517231e-01	5.951375998e-14
3.143000000e-01	1.474317294e+00	-1.762193189e-01	3.681142795e-14
3.144000000e-01	1.474366863e+00	-1.761869387e-01	7.600776616e-14
3.145000000e-01	1.474416425e+00	-1.761545825e-01	5.818542239e-14
3.146000000e-01	1.474465979e+00	-1.761222501e-01	5.442658898e-14
3.147000000e-01	1.474515525e+00	-1.760899417e-01	6.273307961e-14
3.148000000e-01	1.474565063e+00	-1.760576571e-01	5.503837959e-14
3.149000000e-01	1.474614593e+00	-1.760253964e-01	9.516782716e-14
3.150000000e-01	1.474664115e+00	-1.759931594e-01	5.362320462e-14
3.151000000e-01	1.474713629e+00	-1.759609461e-01	4.875514788e-14
3.152000000e-01	1.474763135e+00	-1.759287566e-01	6.252779253e-14
3.153000000e-01	1.474812633e+00	-1.758965907e-01	7.717420830e-14
3.154000000e-01	1.474862124e+00	-1.758644485e-01	5.669719553e-14
3.156000000e-01	1.474961081e+00	-1.758002348e-01	9.416913805e-14
3.157000000e-01	1.475010548e+00	-1.757681633e-01	4.076679242e-14
3.158000000e-01	1.475060007e+00	-1.757361152e-01	5.936042331e-14
3.160000000e-01	1.475158901e+00	-1.756720895e-01	6.412625306e-14
3.161000000e-01	1.475208337e+00	-1.756401118e-01	5.389705116e-14
3.162000000e-01	1.475257765e+00	-1.756081574e-01	6.983431101e-14
3.163000000e-01	1.475307184e+00	-1.755762263e-01	4.351792410e-14
3.164000000e-01	1.475356596e+00	-1.755443186e-01	7.425670595e-14
3.165000000e-01	1.475406001e+00	-1.755124341e-01	7.518096088e-14
3.166000000e-01	1.475455397e+00	-1.754805728e-01	7.072994374e-14
3.167000000e-01	1.475504786e+00	-1.754487347e-01	3.481735343e-14
3.168000000e-01	1.475554167e+00	-1.754169197e-01	6.822327403e-14
3.169000000e-01	1.475603540e+00	-1.753851279e-01	6.941683646e-14
3.170000000e-01	1.475652905e+00	-1.753533592e-01	6.950046153e-14
3.171000000e-01	1.475702263e+00	-1.753216135e-01	4.242423390e-14
3.172000000e-01	1.475751612e+00	-1.752898908e-01	9.041841409e-14
3.173000000e-01	1.475800954e+00	-1.752581912e-01	5.841151656e-14
3.174000000e-01	1.475850289e+00	-1.752265144e-01	3.933806505e-14
3.175000000e-01	1.475899615e+00	-1.751948606e-01	5.121288805e-14
3.176000000e-01	1.475948934e+00	-1.751632297e-01	4.816722656e-14
3.177000000e-01	1.475998246e+00	-1.751316216e-01	6.917608292e-14
3.178000000e-01	1.476047549e+00	-1.751000364e-01	4.301625840e-14
3.179000000e-01	1.476096845e+00	-1.750684739e-01	7.028814737e-14
3.180000000e-01	1.476146133e+00	-1.750369342e-01	7.054785717e-14
3.181000000e-01	1.476195413e+00	-1.750054172e-01	7.464472989e-14
3.182000000e-01	1.476244686e+00	-1.749739229e-01	5.399315602e-14
3.183000000e-01	1.476293951e+00	-1.749424513e-01	6.642209679e-14
3.184000000e-01	1.476343209e+00	-1.749110022e-01	5.963762945e-14
3.185000000e-01	1.476392458e+00	-1.748795758e-01	6.224740907e-14
3.186000000e-01	1.476441701e+00	-1.748481719e-01	4.214748816e-14
3.187000000e-01	1.476490935e+00	-1.748167905e-01	3.666914928e-14
3.189000000e-01	1.476589381e+00	-1.747540952e-01	4.542332026e-14
3.190000000e-01	1.476638593e+00	-1.747227812e-01	7.427202354e-14
3.191000000e-01	1.476687797e+00	-1.746914896e-01	7.714558046e-14
3.192000000e-01	1.476736993e+00	-1.746602204e-01	5.094190980e-14
3.193000000e-01	1.476786182e+00	-1.746289735e-01	5.442110567e-14
3.194000000e-01	1.476835363e+00	-1.745977488e-01	7.801985667e-14
3.195000000e-01	1.476884537e+00	-1.745665465e-01	7.004214096e-14
3.196000000e-01	1.476933703e+00	-1.745353663e-01	9.335473903e-14
3.197000000e-01	1.476982862e+00	-1.745042084e-01	8.453894109e-14
3.198000000e-01	1.477032013e+00	-1.744730726e-01	4.472039172e-14
3.199000000e-01	1.477081156e+00	-1.744419590e-01	4.905791512e-14
3.200000000e-01	1.477130292e+00	-1.744108675e-01	5.347880799e-14
3.201000000e-01	1.477179420e+00	-1.743797980e-01	7.632468514e-14
3.202000000e-01	1.477228541e+00	-1.743487506e-01	5.641903820e-14
3.203000000e-01	1.477277654e+00	-1.743177252e-01	5.262340023e-14
3.204000000e-01	1.477326760e+00	-1.742867218e-01	5.120440335e-14
3.205000000e-01	1.477375859e+00	-1.742557403e-01	3.900840770e-14
3.207000000e-01	1.477474033e+00	-1.741938430e-01	8.804212989e-14
3.208000000e-01	1.477523108e+00	-1.741629272e-01	4.556946179e-14
3.209000000e-01	1.477572177e+00	-1.741320331e-01	5.526375966e-14
3.210000000e-01	1.477621238e+00	-1.741011609e-01	5.003289967e-14
3.211000000e-01	1.477670291e+00	-1.740703104e-01	6.635331872e-14
3.212000000e-01	1.477719337e+00	-1.740394816e-01	3.721669778e-14
3.214000000e-01	1.477817407e+00	-1.739778892e-01	5.686677227e-14
3.215000000e-01	1.477866430e+00	-1.739471254e-01	4.359937189e-14
3.217000000e-01	1.477964455e+00	-1.738856627e-01	7.191726733e-14
3.218000000e-01	1.478013457e+00	-1.738549636e-01	2.770150453e-14
3.219000000e-01	1.478062451e+00	-1.738242861e-01	5.104654826e-14
3.221000000e-01	1.478160416e+00	-1.737629954e-01	9.152358474e-14
3.222000000e-01	1.478209388e+00	-1.737323822e-01	5.870655278e-14
3.223000000e-01	1.478258353e+00	-1.737017904e-01	5.029362429e-14
3.224000000e-01	1.478307310e+00	-1.736712199e-01	2.458501030e-14
3.225000000e-01	1.478356259e+00	-1.736406708e-01	5.535466025e-14
3.226000000e-01	1.478405202e+00	-1.736101430e-01	4.096881857e-14
3.227000000e-01	1.478454137e+00	-1.735796364e-01	4.657270008e-14
3.228000000e-01	1.478503064e+00	-1.735491511e-01	5.008554231e-14
3.229000000e-01	1.478551985e+00	-1.735186869e-01	5.714426304e-14
3.230000000e-01	1.478600898e+00	-1.734882440e-01	8.754895244e-14
3.231000000e-01	1.478649803e+00	-1.734578222e-01	2.133853274e-14
3.232000000e-01	1.478698702e+00	-1.734274215e-01	8.472558722e-14
3.233000000e-01	1.478747593e+00	-1.733970419e-01	7.193945365e-14
3.234000000e-01	1.478796476e+00	-1.733666834e-01	5.294971732e-14
3.235000000e-01	1.478845353e+00	-1.733363459e-01	8.049498918e-14
3.236000000e-01	1.478894222e+00	-1.733060294e-01	7.422374941e-14
3.237000000e-01	1.478943084e+00	-1.732757338e-01	6.915859657e-14
3.238000000e-01	1.478991938e+00	-1.732454592e-01	5.177850102e-14
3.239000000e-01	1.479040786e+00	-1.732152055e-01	6.039066066e-14
3.240000000e-01	1.479089626e+00	-1.731849727e-01	7.118059146e-14
3.241000000e-01	1.479138459e+00	-1.731547607e-01	7.620959344e-14
3.242000000e-01	1.479187284e+00	-1.731245696e-01	4.230769199e-14
3.243000000e-01	1.479236103e+00	-1.730943992e-01	6.630476218e-14
3.244000000e-01	1.479284914e+00	-1.730642496e-01	7.665356649e-14
3.245000000e-01	1.479333717e+00	-1.730341207e-01	5.978823874e-14
3.246000000e-01	1.479382514e+00	-1.730040126e-01	6.309242235e-14
3.247000000e-01	1.479431304e+00	-1.729739251e-01	8.393451735e-14
3.248000000e-01	1.479480086e+00	-1.729438583e-01	7.317079678e-14
3.249000000e-01	1.479528861e+00	-1.729138121e-01	7.223033269e-14
3.250000000e-01	1.479577629e+00	-1.728837864e-01	3.468731895e-14
3.251000000e-01	1.479626389e+00	-1.728537814e-01	7.362234447e-14
3.252000000e-01	1.479675143e+00	-1.728237968e-01	6.244215126e-14
3.253000000e-01	1.479723889e+00	-1.727938328e-01	5.100366456e-14
3.254000000e-01	1.479772628e+00	-1.727638892e-01	3.804842994e-14
3.255000000e-01	1.479821360e+00	-1.727339661e-01	4.941457768e-14
3.256000000e-01	1.479870085e+00	-1.727040634e-01	5.971269775e-14
3.257000000e-01	1.479918803e+00	-1.726741811e-01	7.798131366e-14
3.258000000e-01	1.479967513e+00	-1.726443191e-01	5.980862378e-14
3.259000000e-01	1.480016217e+00	-1.726144775e-01	3.019340065e-14
3.260000000e-01	1.480064913e+00	-1.725846562e-01	4.680651958e-14
3.261000000e-01	1.480113602e+00	-1.725548552e-01	5.701833141e-14
3.262000000e-01	1.480162284e+00	-1.725250744e-01	3.835444026e-14
3.263000000e-01	1.480210959e+00	-1.724953138e-01	6.803364493e-14
3.264000000e-01	1.480259627e+00	-1.724655734e-01	5.889809663e-14
3.265000000e-01	1.480308288e+00	-1.724358532e-01	6.128053696e-14
3.266000000e-01	1.480356942e+00	-1.724061531e-01	2.731684871e-14
3.267000000e-01	1.480405588e+00	-1.723764731e-01	5.844214423e-14
3.268000000e-01	1.480454228e+00	-1.723468132e-01	6.581085819e-14
3.269000000e-01	1.480502860e+00	-1.723171734e-01	2.718349746e-14
3.270000000e-01	1.480551486e+00	-1.722875536e-01	5.820280012e-14
3.271000000e-01	1.480600104e+00	-1.722579537e-01	3.168079278e-14
3.272000000e-01	1.480648715e+00	-1.722283739e-01	4.863759165e-14
3.273000000e-01	1.480697319e+00	-1.721988140e-01	8.522905739e-14
3.274000000e-01	1.480745917e+00	-1.721692739e-01	5.204448716e-14
3.275000000e-01	1.480794507e+00	-1.721397538e-01	5.356963117e-14
3.277000000e-01	1.480891666e+00	-1.720807731e-01	5.708648932e-14
3.278000000e-01	1.480940235e+00	-1.720513125e-01	3.779185419e-14
3.280000000e-01	1.481037353e+00	-1.719924506e-01	3.597511352e-14
3.281000000e-01	1.481085901e+00	-1.719630492e-01	3.820636394e-14
3.282000000e-01	1.481134442e+00	-1.719336675e-01	5.126738873e-14
3.284000000e-01	1.481231504e+00	-1.718749631e-01	5.768761905e-14
3.286000000e-01	1.481328537e+00	-1.718163372e-01	7.059679081e-14
3.287000000e-01	1.481377044e+00	-1.717870536e-01	4.856589890e-14
3.288000000e-01	1.481425543e+00	-1.717577895e-01	4.015855398e-14
3.290000000e-01	1.481522521e+00	-1.716993198e-01	6.382154410e-14
3.291000000e-01	1.481571000e+00	-1.716701142e-01	5.299539596e-14
3.292000000e-01	1.481619472e+00	-1.716409280e-01	5.421070759e-14
3.293000000e-01	1.481667936e+00	-1.716117612e-01	6.468404927e-14
3.294000000e-01	1.481716394e+00	-1.715826137e-01	3.979805003e-14
3.295000000e-01	1.481764845e+00	-1.715534856e-01	4.368007258e-14
3.296000000e-01	1.481813289e+00	-1.715243769e-01	9.966407012e-14
3.297000000e-01	1.481861727e+00	-1.714952874e-01	3.133884197e-14
3.299000000e-01	1.481958580e+00	-1.714371663e-01	2.768575277e-14
3.300000000e-01	1.482006997e+00	-1.714081345e-01	2.973520311e-14
3.301000000e-01	1.482055407e+00	-1.713791220e-01	6.050196358e-14
3.302000000e-01	1.482103810e+00	-1.713501286e-01	3.434798812e-14
3.303000000e-01	1.482152206e+00	-1.713211543e-01	2.808211427e-14
3.304000000e-01	1.482200595e+00	-1.712921992e-01	4.871457174e-14
3.305000000e-01	1.482248977e+00	-1.712632631e-01	5.132933207e-14
3.306000000e-01	1.482297353e+00	-1.712343461e-01	6.496500091e-14
3.307000000e-01	1.482345722e+00	-1.712054482e-01	3.647554242e-14
3.308000000e-01	1.482394084e+00	-1.711765692e-01	9.087062519e-14
3.309000000e-01	1.482442439e+00	-1.711477093e-01	5.634601677e-14
3.310000000e-01	1.482490787e+00	-1.711188683e-01	5.517661878e-14
3.311000000e-01	1.482539128e+00	-1.710900462e-01	6.512185015e-14
3.312000000e-01	1.482587463e+00	-1.710612430e-01	3.646540858e-14
3.313000000e-01	1.482635791e+00	-1.710324587e-01	6.395214693e-14
3.314000000e-01	1.482684112e+00	-1.710036933e-01	5.002338323e-14
3.315000000e-01	1.482732427e+00	-1.709749467e-01	5.354754811e-14
3.316000000e-01	1.482780734e+00	-1.709462189e-01	5.126392640e-14
3.317000000e-01	1.482829035e+00	-1.709175099e-01	5.358078229e-14
3.318000000e-01	1.482877329e+00	-1.708888196e-01	3.865503344e-14
3.319000000e-01	1.482925616e+00	-1.708601481e-01	4.451772832e-14
3.320000000e-01	1.482973897e+00	-1.708314953e-01	9.300368479e-14
3.321000000e-01	1.483022171e+00	-1.708028611e-01	4.180506214e-14
3.322000000e-01	1.483070438e+00	-1.707742456e-01	2.944172683e-14
3.323000000e-01	1.483118698e+00	-1.707456488e-01	2.350227437e-14
3.324000000e-01	1.483166952e+00	-1.707170705e-01	4.161198846e-14
3.325000000e-01	1.483215199e+00	-1.706885108e-01	6.257124406e-14
3.326000000e-01	1.483263439e+00	-1.706599697e-01	5.229023747e-14
3.327000000e-01	1.483311673e+00	-1.706314471e-01	5.966605057e-14
3.328000000e-01	1.483359900e+00	-1.706029430e-01	3.392097642e-14
3.329000000e-01	1.483408120e+00	-1.705744573e-01	6.229036362e-14
3.330000000e-01	1.483456333e+00	-1.705459902e-01	6.650709112e-14
3.331000000e-01	1.483504540e+00	-1.705175414e-01	9.114339416e-14
