# Re(epsi1)     Omega/c [1/micrones]    Im(epsi1)     Eq(det).Opt det SIN kz, mu = 0.9 eV, R = 0.5 micrones, solve_det_sinkz_vs_re_epsi1.py
1.000000000e+00	5.120869180e-01	-4.541993188e-03	9.540160572e-12
1.010000000e+00	5.108306209e-01	-4.552229184e-03	1.019950048e-11
1.020000000e+00	5.095833792e-01	-4.562613531e-03	5.336088262e-12
1.030000000e+00	5.083450864e-01	-4.573143860e-03	9.379678519e-12
1.040000000e+00	5.071156376e-01	-4.583817884e-03	8.175868674e-12
1.050000000e+00	5.058949299e-01	-4.594633368e-03	4.679371010e-12
1.060000000e+00	5.046828617e-01	-4.605588140e-03	8.804498623e-12
1.070000000e+00	5.034793333e-01	-4.616680050e-03	2.645509364e-12
1.080000000e+00	5.022842465e-01	-4.627907016e-03	3.732268944e-12
1.090000000e+00	5.010975046e-01	-4.639267014e-03	7.752865207e-12
1.100000000e+00	4.999190123e-01	-4.650758031e-03	5.898600226e-12
1.110000000e+00	4.987486760e-01	-4.662378132e-03	5.563493858e-12
1.120000000e+00	4.975864035e-01	-4.674125416e-03	4.343083992e-12
1.130000000e+00	4.964321040e-01	-4.685998022e-03	4.594997467e-12
1.140000000e+00	4.952856880e-01	-4.697994124e-03	2.773197149e-12
1.150000000e+00	4.941470677e-01	-4.710111958e-03	4.249338715e-12
1.160000000e+00	4.930161562e-01	-4.722349775e-03	4.797501359e-12
1.170000000e+00	4.918928683e-01	-4.734705874e-03	3.351325165e-12
1.180000000e+00	4.907771199e-01	-4.747178594e-03	3.245540707e-12
1.190000000e+00	4.896688283e-01	-4.759766311e-03	7.295693612e-12
1.200000000e+00	4.885679118e-01	-4.772467427e-03	6.996996737e-12
1.210000000e+00	4.874742902e-01	-4.785280380e-03	6.958147470e-12
1.220000000e+00	4.863878844e-01	-4.798203660e-03	1.383898317e-11
1.230000000e+00	4.853086165e-01	-4.811235771e-03	8.500043638e-12
1.240000000e+00	4.842364097e-01	-4.824375242e-03	7.007944050e-12
1.250000000e+00	4.831711883e-01	-4.837620662e-03	7.194745876e-12
1.260000000e+00	4.821128778e-01	-4.850970619e-03	7.441059746e-12
1.270000000e+00	4.810614048e-01	-4.864423745e-03	9.072264336e-12
1.280000000e+00	4.800166970e-01	-4.877978704e-03	6.050098250e-12
1.290000000e+00	4.789786831e-01	-4.891634185e-03	7.917184636e-12
1.300000000e+00	4.779472927e-01	-4.905388888e-03	9.478525340e-12
1.310000000e+00	4.769224566e-01	-4.919241576e-03	6.912493907e-12
1.320000000e+00	4.759041065e-01	-4.933191000e-03	1.031450460e-11
1.330000000e+00	4.748921753e-01	-4.947235958e-03	4.900227449e-12
1.340000000e+00	4.738865965e-01	-4.961375259e-03	5.328743471e-12
1.350000000e+00	4.728873047e-01	-4.975607756e-03	5.759963073e-12
1.360000000e+00	4.718942356e-01	-4.989932303e-03	4.442599263e-12
1.370000000e+00	4.709073256e-01	-5.004347784e-03	8.626190095e-12
1.380000000e+00	4.699265119e-01	-5.018853125e-03	1.020379420e-11
1.390000000e+00	4.689517330e-01	-5.033447237e-03	1.020876707e-11
1.400000000e+00	4.679829278e-01	-5.048129089e-03	5.116638293e-12
1.410000000e+00	4.670200362e-01	-5.062897643e-03	5.435718008e-12
1.420000000e+00	4.660629991e-01	-5.077751899e-03	6.051106474e-12
1.430000000e+00	4.651117581e-01	-5.092690864e-03	9.528603050e-12
1.440000000e+00	4.641662554e-01	-5.107713563e-03	8.711259695e-12
1.450000000e+00	4.632264344e-01	-5.122819063e-03	5.978399079e-12
1.460000000e+00	4.622922389e-01	-5.138006416e-03	9.047043456e-12
1.470000000e+00	4.613636137e-01	-5.153274727e-03	1.369548056e-11
1.480000000e+00	4.604405042e-01	-5.168623090e-03	5.049764966e-12
1.490000000e+00	4.595228567e-01	-5.184050620e-03	1.205640888e-11
1.500000000e+00	4.586106180e-01	-5.199556476e-03	1.218676074e-11
1.510000000e+00	4.577037358e-01	-5.215139788e-03	6.833547858e-12
1.520000000e+00	4.568021584e-01	-5.230799734e-03	8.465561061e-12
1.530000000e+00	4.559058349e-01	-5.246535509e-03	9.843420644e-12
1.540000000e+00	4.550147149e-01	-5.262346312e-03	1.006425405e-11
1.550000000e+00	4.541287488e-01	-5.278231354e-03	8.187298886e-12
1.560000000e+00	4.532478876e-01	-5.294189863e-03	4.693010858e-12
1.570000000e+00	4.523720830e-01	-5.310221095e-03	7.678102147e-12
1.580000000e+00	4.515012873e-01	-5.326324287e-03	1.560179189e-11
1.590000000e+00	4.506354534e-01	-5.342498742e-03	6.768938134e-12
1.600000000e+00	4.497745347e-01	-5.358743717e-03	6.397519955e-12
1.610000000e+00	4.489184855e-01	-5.375058526e-03	4.462381489e-12
1.620000000e+00	4.480672604e-01	-5.391442478e-03	8.736173044e-12
1.630000000e+00	4.472208147e-01	-5.407894890e-03	6.001452443e-12
1.640000000e+00	4.463791043e-01	-5.424415106e-03	8.076261108e-12
1.650000000e+00	4.455420857e-01	-5.441002459e-03	2.441953432e-11
1.660000000e+00	4.447097157e-01	-5.457656329e-03	5.225317714e-12
1.670000000e+00	4.438819520e-01	-5.474376072e-03	1.092977991e-11
1.680000000e+00	4.430587526e-01	-5.491161066e-03	9.061524169e-12
1.690000000e+00	4.422400761e-01	-5.508010708e-03	1.245445802e-11
1.700000000e+00	4.414258816e-01	-5.524924415e-03	7.970974014e-12
1.710000000e+00	4.406161287e-01	-5.541901572e-03	7.959235559e-12
1.720000000e+00	4.398107775e-01	-5.558941630e-03	7.712189863e-12
1.730000000e+00	4.390097888e-01	-5.576044000e-03	7.246591726e-12
1.740000000e+00	4.382131234e-01	-5.593208142e-03	6.491935022e-12
1.750000000e+00	4.374207432e-01	-5.610433492e-03	1.092181396e-11
1.760000000e+00	4.366326100e-01	-5.627719533e-03	7.246007250e-12
1.770000000e+00	4.358486865e-01	-5.645065716e-03	1.162551853e-11
1.780000000e+00	4.350689356e-01	-5.662471527e-03	1.270414798e-11
1.790000000e+00	4.342933208e-01	-5.679936464e-03	1.142089577e-11
1.800000000e+00	4.335218058e-01	-5.697460008e-03	8.954072017e-12
1.810000000e+00	4.327543551e-01	-5.715041678e-03	7.794732156e-12
1.820000000e+00	4.319909333e-01	-5.732680984e-03	1.345096931e-11
1.830000000e+00	4.312315057e-01	-5.750377445e-03	1.707292768e-11
1.840000000e+00	4.304760377e-01	-5.768130592e-03	1.393723259e-11
1.850000000e+00	4.297244955e-01	-5.785939960e-03	1.702525189e-11
1.860000000e+00	4.289768453e-01	-5.803805093e-03	1.050983736e-11
1.870000000e+00	4.282330539e-01	-5.821725559e-03	7.880642212e-12
1.880000000e+00	4.274930887e-01	-5.839700897e-03	1.263827556e-11
1.890000000e+00	4.267569170e-01	-5.857730688e-03	1.208456636e-11
1.900000000e+00	4.260245069e-01	-5.875814496e-03	9.596216955e-12
1.910000000e+00	4.252958267e-01	-5.893951909e-03	1.271120210e-11
1.920000000e+00	4.245708451e-01	-5.912142512e-03	1.449574991e-11
1.930000000e+00	4.238495312e-01	-5.930385890e-03	1.344308328e-11
1.940000000e+00	4.231318542e-01	-5.948681665e-03	1.111612836e-11
1.950000000e+00	4.224177842e-01	-5.967029420e-03	9.086650493e-12
1.960000000e+00	4.217072910e-01	-5.985428777e-03	9.183496958e-12
1.970000000e+00	4.210003453e-01	-6.003879363e-03	1.984184144e-11
1.980000000e+00	4.202969177e-01	-6.022380793e-03	1.197690245e-11
1.990000000e+00	4.195969795e-01	-6.040932695e-03	6.518215770e-12
2.000000000e+00	4.189005020e-01	-6.059534708e-03	1.237005849e-11
2.010000000e+00	4.182074571e-01	-6.078186480e-03	9.658358209e-12
2.020000000e+00	4.175178169e-01	-6.096887653e-03	1.163948433e-11
2.030000000e+00	4.168315537e-01	-6.115637884e-03	1.149123620e-11
2.040000000e+00	4.161486404e-01	-6.134436827e-03	7.114480346e-12
2.050000000e+00	4.154690499e-01	-6.153284145e-03	6.064912120e-12
2.060000000e+00	4.147927555e-01	-6.172179502e-03	1.185734333e-11
2.070000000e+00	4.141197309e-01	-6.191122586e-03	1.435205645e-11
2.080000000e+00	4.134499500e-01	-6.210113060e-03	1.026097776e-11
2.090000000e+00	4.127833870e-01	-6.229150609e-03	4.199187140e-12
2.100000000e+00	4.121200164e-01	-6.248234928e-03	6.585261658e-12
2.110000000e+00	4.114598130e-01	-6.267365704e-03	5.721823538e-12
2.120000000e+00	4.108027518e-01	-6.286542635e-03	1.200911402e-11
2.130000000e+00	4.101488081e-01	-6.305765424e-03	1.019231032e-11
2.140000000e+00	4.094979576e-01	-6.325033779e-03	2.521208411e-11
2.150000000e+00	4.088501760e-01	-6.344347399e-03	6.754647914e-12
2.160000000e+00	4.082054395e-01	-6.363706008e-03	6.659020474e-12
2.170000000e+00	4.075637245e-01	-6.383109322e-03	6.457544890e-12
2.180000000e+00	4.069250076e-01	-6.402557058e-03	2.111609870e-11
2.190000000e+00	4.062892656e-01	-6.422048948e-03	1.778965171e-11
2.200000000e+00	4.056564757e-01	-6.441584727e-03	8.400361553e-12
2.210000000e+00	4.050266153e-01	-6.461164118e-03	9.325940024e-12
2.220000000e+00	4.043996620e-01	-6.480786863e-03	1.048127166e-11
2.230000000e+00	4.037755935e-01	-6.500452700e-03	9.171857230e-12
2.240000000e+00	4.031543881e-01	-6.520161382e-03	1.000074797e-11
2.250000000e+00	4.025360239e-01	-6.539912658e-03	1.467191049e-11
2.260000000e+00	4.019204796e-01	-6.559706270e-03	7.307441398e-12
2.270000000e+00	4.013077339e-01	-6.579541979e-03	6.244665934e-12
2.280000000e+00	4.006977658e-01	-6.599419548e-03	6.790672881e-12
2.290000000e+00	4.000905545e-01	-6.619338732e-03	1.086424748e-11
2.300000000e+00	3.994860794e-01	-6.639299305e-03	1.127284310e-11
2.310000000e+00	3.988843202e-01	-6.659301029e-03	8.797792535e-12
2.320000000e+00	3.982852567e-01	-6.679343672e-03	8.430198950e-12
2.330000000e+00	3.976888689e-01	-6.699427016e-03	1.951555172e-11
2.340000000e+00	3.970951371e-01	-6.719550849e-03	1.312172540e-11
2.350000000e+00	3.965040417e-01	-6.739714931e-03	1.008560825e-11
2.360000000e+00	3.959155635e-01	-6.759919054e-03	1.166636130e-11
2.370000000e+00	3.953296833e-01	-6.780163010e-03	8.583713834e-12
2.380000000e+00	3.947463820e-01	-6.800446583e-03	1.427832341e-11
2.390000000e+00	3.941656411e-01	-6.820769572e-03	1.065800262e-11
2.400000000e+00	3.935874418e-01	-6.841131764e-03	1.140268123e-11
2.410000000e+00	3.930117658e-01	-6.861532967e-03	1.323436375e-11
2.420000000e+00	3.924385950e-01	-6.881972964e-03	7.856240572e-12
2.430000000e+00	3.918679112e-01	-6.902451578e-03	1.120787560e-11
2.440000000e+00	3.912996968e-01	-6.922968600e-03	1.673298064e-11
2.450000000e+00	3.907339339e-01	-6.943523847e-03	1.461022059e-11
2.460000000e+00	3.901706051e-01	-6.964117122e-03	2.295183332e-11
2.470000000e+00	3.896096931e-01	-6.984748254e-03	1.216985208e-11
2.480000000e+00	3.890511808e-01	-7.005417039e-03	6.372398093e-12
2.490000000e+00	3.884950512e-01	-7.026123302e-03	7.362228211e-12
2.500000000e+00	3.879412875e-01	-7.046866869e-03	1.957415485e-11
2.510000000e+00	3.873898730e-01	-7.067647553e-03	9.565800153e-12
2.520000000e+00	3.868407914e-01	-7.088465185e-03	7.011543301e-12
2.530000000e+00	3.862940261e-01	-7.109319587e-03	2.951870940e-11
2.540000000e+00	3.857495612e-01	-7.130210595e-03	1.489661114e-11
2.550000000e+00	3.852073806e-01	-7.151138033e-03	9.708167948e-12
2.560000000e+00	3.846674684e-01	-7.172101735e-03	1.250398097e-11
2.570000000e+00	3.841298090e-01	-7.193101540e-03	1.641126172e-11
2.580000000e+00	3.835943868e-01	-7.214137288e-03	1.032944213e-11
2.590000000e+00	3.830611865e-01	-7.235208810e-03	7.746715423e-12
2.600000000e+00	3.825301927e-01	-7.256315955e-03	1.385599943e-11
2.610000000e+00	3.820013903e-01	-7.277458557e-03	8.893546758e-12
2.620000000e+00	3.814747645e-01	-7.298636468e-03	4.259150631e-11
2.630000000e+00	3.809503004e-01	-7.319849538e-03	9.489659003e-12
2.640000000e+00	3.804279833e-01	-7.341097609e-03	1.346288322e-11
2.650000000e+00	3.799077987e-01	-7.362380530e-03	7.784988535e-12
2.660000000e+00	3.793897321e-01	-7.383698160e-03	1.388881179e-11
2.670000000e+00	3.788737694e-01	-7.405050345e-03	9.573425804e-12
2.680000000e+00	3.783598963e-01	-7.426436950e-03	5.991033592e-12
2.690000000e+00	3.778480990e-01	-7.447857828e-03	1.373789517e-11
2.700000000e+00	3.773383634e-01	-7.469312836e-03	1.538193287e-11
2.710000000e+00	3.768306759e-01	-7.490801840e-03	1.149311258e-11
2.720000000e+00	3.763250229e-01	-7.512324699e-03	2.398948407e-11
2.730000000e+00	3.758213908e-01	-7.533881280e-03	1.547155955e-11
2.740000000e+00	3.753197663e-01	-7.555471447e-03	1.835312607e-11
2.750000000e+00	3.748201362e-01	-7.577095058e-03	1.308184550e-11
2.760000000e+00	3.743224873e-01	-7.598752003e-03	4.853509930e-11
2.770000000e+00	3.738268067e-01	-7.620442126e-03	1.157430399e-11
2.780000000e+00	3.733330814e-01	-7.642165319e-03	1.389318831e-11
2.790000000e+00	3.728412987e-01	-7.663921452e-03	1.176356333e-11
2.800000000e+00	3.723514460e-01	-7.685710389e-03	8.955734513e-12
2.810000000e+00	3.718635106e-01	-7.707532017e-03	1.296976689e-11
2.820000000e+00	3.713774803e-01	-7.729386206e-03	2.221228185e-11
2.830000000e+00	3.708933426e-01	-7.751272835e-03	9.639965232e-12
2.840000000e+00	3.704110854e-01	-7.773191795e-03	1.572788508e-11
2.850000000e+00	3.699306966e-01	-7.795142951e-03	1.092915068e-11
2.860000000e+00	3.694521642e-01	-7.817126195e-03	1.686688833e-11
2.870000000e+00	3.689754763e-01	-7.839141414e-03	1.672932055e-11
2.880000000e+00	3.685006212e-01	-7.861188487e-03	1.015914402e-11
2.890000000e+00	3.680275872e-01	-7.883267298e-03	1.388371840e-11
2.900000000e+00	3.675563627e-01	-7.905377740e-03	2.351810110e-11
2.910000000e+00	3.670869364e-01	-7.927519705e-03	1.402065238e-11
2.920000000e+00	3.666192967e-01	-7.949693081e-03	8.270905435e-12
2.930000000e+00	3.661534325e-01	-7.971897753e-03	7.182718647e-12
2.940000000e+00	3.656893326e-01	-7.994133615e-03	1.432998810e-11
2.950000000e+00	3.652269860e-01	-8.016400570e-03	1.251100898e-11
2.960000000e+00	3.647663816e-01	-8.038698502e-03	8.735638062e-12
2.970000000e+00	3.643075086e-01	-8.061027314e-03	1.482190363e-11
2.980000000e+00	3.638503563e-01	-8.083386896e-03	1.500726297e-11
2.990000000e+00	3.633949139e-01	-8.105777150e-03	1.458421618e-11
3.000000000e+00	3.629411708e-01	-8.128197978e-03	1.347233599e-11
3.010000000e+00	3.624891166e-01	-8.150649274e-03	1.579512315e-11
3.020000000e+00	3.620387409e-01	-8.173130942e-03	8.895459009e-12
3.030000000e+00	3.615900333e-01	-8.195642881e-03	1.498103410e-11
3.040000000e+00	3.611429835e-01	-8.218185002e-03	1.023619640e-11
3.050000000e+00	3.606975816e-01	-8.240757208e-03	1.351248115e-11
3.060000000e+00	3.602538173e-01	-8.263359394e-03	9.115420884e-12
3.070000000e+00	3.598116807e-01	-8.285991476e-03	6.633645896e-12
3.080000000e+00	3.593711620e-01	-8.308653355e-03	5.954688724e-12
3.090000000e+00	3.589322513e-01	-8.331344948e-03	2.253495107e-11
3.100000000e+00	3.584949388e-01	-8.354066151e-03	8.868034503e-12
3.110000000e+00	3.580592151e-01	-8.376816879e-03	1.347624777e-11
3.120000000e+00	3.576250704e-01	-8.399597048e-03	2.056949361e-11
3.130000000e+00	3.571924954e-01	-8.422406570e-03	1.654226349e-11
3.140000000e+00	3.567614806e-01	-8.445245347e-03	8.418961542e-12
3.150000000e+00	3.563320167e-01	-8.468113300e-03	1.122638928e-11
3.160000000e+00	3.559040945e-01	-8.491010338e-03	1.860810031e-11
3.170000000e+00	3.554777048e-01	-8.513936386e-03	9.498233838e-12
3.180000000e+00	3.550528384e-01	-8.536891349e-03	9.927994775e-12
3.190000000e+00	3.546294864e-01	-8.559875149e-03	1.068266543e-11
3.200000000e+00	3.542076399e-01	-8.582887707e-03	2.246455503e-11
3.210000000e+00	3.537872900e-01	-8.605928929e-03	5.329984293e-12
3.220000000e+00	3.533684278e-01	-8.628998746e-03	1.092043230e-11
3.230000000e+00	3.529510446e-01	-8.652097072e-03	1.069841298e-11
3.240000000e+00	3.525351319e-01	-8.675223829e-03	1.486818958e-11
3.250000000e+00	3.521206810e-01	-8.698378943e-03	2.116310098e-11
3.260000000e+00	3.517076834e-01	-8.721562323e-03	2.771728090e-11
3.270000000e+00	3.512961306e-01	-8.744773909e-03	1.800159370e-11
3.280000000e+00	3.508860143e-01	-8.768013614e-03	3.761263020e-11
3.290000000e+00	3.504773262e-01	-8.791281361e-03	1.127168146e-11
3.300000000e+00	3.500700580e-01	-8.814577078e-03	1.585003999e-11
3.310000000e+00	3.496642016e-01	-8.837900691e-03	1.546157921e-11
3.320000000e+00	3.492597488e-01	-8.861252121e-03	1.133151874e-11
3.330000000e+00	3.488566916e-01	-8.884631305e-03	9.313721649e-12
3.340000000e+00	3.484550220e-01	-8.908038167e-03	2.125277895e-11
3.350000000e+00	3.480547322e-01	-8.931472630e-03	1.236148303e-11
3.360000000e+00	3.476558142e-01	-8.954934629e-03	2.596801519e-11
3.370000000e+00	3.472582602e-01	-8.978424084e-03	6.932335835e-12
3.380000000e+00	3.468620626e-01	-9.001940935e-03	2.414010722e-11
3.390000000e+00	3.464672136e-01	-9.025485117e-03	1.166277155e-11
3.400000000e+00	3.460737057e-01	-9.049056545e-03	2.160395896e-11
3.410000000e+00	3.456815313e-01	-9.072655166e-03	1.060967626e-11
3.420000000e+00	3.452906829e-01	-9.096280909e-03	3.546319635e-11
3.430000000e+00	3.449011531e-01	-9.119933700e-03	8.139890191e-12
3.440000000e+00	3.445129345e-01	-9.143613480e-03	3.800695104e-11
3.450000000e+00	3.441260197e-01	-9.167320185e-03	1.660396163e-11
3.460000000e+00	3.437404016e-01	-9.191053743e-03	2.193777279e-11
3.470000000e+00	3.433560730e-01	-9.214814096e-03	2.682676479e-11
3.480000000e+00	3.429730266e-01	-9.238601169e-03	8.927260127e-12
3.490000000e+00	3.425912553e-01	-9.262414914e-03	1.091439951e-11
3.500000000e+00	3.422107523e-01	-9.286255258e-03	8.565279960e-12
3.510000000e+00	3.418315104e-01	-9.310122141e-03	1.710330117e-11
3.520000000e+00	3.414535227e-01	-9.334015507e-03	9.588320568e-12
3.530000000e+00	3.410767824e-01	-9.357935287e-03	8.668902252e-12
3.540000000e+00	3.407012827e-01	-9.381881423e-03	8.581667944e-12
3.550000000e+00	3.403270167e-01	-9.405853851e-03	1.303237262e-11
3.560000000e+00	3.399539777e-01	-9.429852520e-03	1.070455147e-11
3.570000000e+00	3.395821591e-01	-9.453877365e-03	7.739203308e-12
3.580000000e+00	3.392115543e-01	-9.477928326e-03	1.352193746e-11
3.590000000e+00	3.388421567e-01	-9.502005348e-03	9.630203165e-12
3.600000000e+00	3.384739597e-01	-9.526108372e-03	4.024761389e-11
3.610000000e+00	3.381069569e-01	-9.550237344e-03	1.084134935e-11
3.620000000e+00	3.377411419e-01	-9.574392203e-03	1.251453796e-11
3.630000000e+00	3.373765083e-01	-9.598572891e-03	5.861824375e-12
3.640000000e+00	3.370130497e-01	-9.622779356e-03	1.283526088e-11
3.650000000e+00	3.366507599e-01	-9.647011539e-03	1.831416482e-11
3.660000000e+00	3.362896327e-01	-9.671269393e-03	1.530292483e-11
3.670000000e+00	3.359296619e-01	-9.695552851e-03	1.026364127e-11
3.680000000e+00	3.355708413e-01	-9.719861872e-03	1.417347718e-11
3.690000000e+00	3.352131648e-01	-9.744196391e-03	7.903302093e-12
3.700000000e+00	3.348566265e-01	-9.768556362e-03	7.778236970e-12
3.710000000e+00	3.345012202e-01	-9.792941729e-03	1.490762227e-11
3.720000000e+00	3.341469400e-01	-9.817352443e-03	1.025147431e-11
3.730000000e+00	3.337937800e-01	-9.841788450e-03	7.197020071e-12
3.740000000e+00	3.334417344e-01	-9.866249695e-03	9.845648244e-12
3.750000000e+00	3.330907972e-01	-9.890736130e-03	5.706608459e-12
3.760000000e+00	3.327409628e-01	-9.915247703e-03	5.868885410e-12
3.770000000e+00	3.323922253e-01	-9.939784366e-03	1.478998835e-11
3.780000000e+00	3.320445791e-01	-9.964346069e-03	1.405976977e-11
3.790000000e+00	3.316980184e-01	-9.988932753e-03	3.218235415e-11
3.800000000e+00	3.313525378e-01	-1.001354438e-02	2.337610992e-11
3.810000000e+00	3.310081315e-01	-1.003818091e-02	2.246296539e-11
3.820000000e+00	3.306647941e-01	-1.006284227e-02	2.500107481e-11
3.830000000e+00	3.303225200e-01	-1.008752842e-02	1.881699462e-11
3.840000000e+00	3.299813038e-01	-1.011223932e-02	1.298022658e-11
3.850000000e+00	3.296411400e-01	-1.013697492e-02	2.139856184e-11
3.860000000e+00	3.293020233e-01	-1.016173518e-02	7.644763138e-11
3.870000000e+00	3.289639484e-01	-1.018652003e-02	7.530363549e-12
3.880000000e+00	3.286269098e-01	-1.021132945e-02	1.551939221e-11
3.890000000e+00	3.282909024e-01	-1.023616337e-02	1.610736942e-11
3.900000000e+00	3.279559210e-01	-1.026102176e-02	5.478893117e-12
3.910000000e+00	3.276219602e-01	-1.028590458e-02	8.061100370e-12
3.920000000e+00	3.272890150e-01	-1.031081177e-02	1.161979871e-11
3.930000000e+00	3.269570802e-01	-1.033574329e-02	2.500980278e-11
3.940000000e+00	3.266261508e-01	-1.036069909e-02	9.476778601e-12
3.950000000e+00	3.262962217e-01	-1.038567914e-02	9.241312493e-12
3.960000000e+00	3.259672878e-01	-1.041068339e-02	1.310946353e-11
3.970000000e+00	3.256393443e-01	-1.043571180e-02	1.113924115e-11
3.980000000e+00	3.253123861e-01	-1.046076431e-02	1.228390724e-11
3.990000000e+00	3.249864083e-01	-1.048584090e-02	1.230419387e-11
4.000000000e+00	3.246614061e-01	-1.051094151e-02	8.704776177e-12
4.010000000e+00	3.243373746e-01	-1.053606611e-02	7.596764435e-12
4.020000000e+00	3.240143090e-01	-1.056121465e-02	9.655251399e-12
4.030000000e+00	3.236922046e-01	-1.058638709e-02	1.715899237e-11
4.040000000e+00	3.233710565e-01	-1.061158339e-02	1.274210048e-11
