# Re(epsi1)     Omega/c [1/micrones]    Im(epsi1)     Eq(det).Opt det SIN kz, mu = 0.9 eV, R = 0.5 micrones, solve_det_sinkz_vs_re_epsi1.py
1.000000000e+00	3.585757190e-01	-5.587157452e-02	6.202551754e-12
1.010000000e+00	3.577184489e-01	-5.563706453e-02	1.391249125e-11
1.020000000e+00	3.568671453e-01	-5.540508342e-02	4.235252748e-12
1.030000000e+00	3.560217407e-01	-5.517559612e-02	6.432468919e-12
1.040000000e+00	3.551821687e-01	-5.494856824e-02	8.075418695e-12
1.050000000e+00	3.543483639e-01	-5.472396601e-02	7.088262288e-12
1.060000000e+00	3.535202619e-01	-5.450175625e-02	6.991653596e-12
1.070000000e+00	3.526977992e-01	-5.428190641e-02	9.461279819e-12
1.080000000e+00	3.518809133e-01	-5.406438450e-02	7.622802688e-12
1.090000000e+00	3.510695428e-01	-5.384915912e-02	5.798663212e-12
1.100000000e+00	3.502636271e-01	-5.363619944e-02	7.437327492e-12
1.110000000e+00	3.494631065e-01	-5.342547517e-02	1.039304213e-11
1.120000000e+00	3.486679222e-01	-5.321695652e-02	7.764606999e-12
1.130000000e+00	3.478780163e-01	-5.301061430e-02	6.193265446e-12
1.140000000e+00	3.470933318e-01	-5.280641978e-02	4.390981805e-12
1.150000000e+00	3.463138125e-01	-5.260434474e-02	5.627472709e-12
1.160000000e+00	3.455394031e-01	-5.240436145e-02	5.785193584e-12
1.170000000e+00	3.447700489e-01	-5.220644269e-02	5.778002689e-12
1.180000000e+00	3.440056963e-01	-5.201056167e-02	5.554854438e-12
1.190000000e+00	3.432462923e-01	-5.181669209e-02	8.849448995e-12
1.200000000e+00	3.424917847e-01	-5.162480810e-02	8.893599219e-12
1.210000000e+00	3.417421220e-01	-5.143488427e-02	3.062074778e-12
1.220000000e+00	3.409972536e-01	-5.124689562e-02	8.918995259e-12
1.230000000e+00	3.402571295e-01	-5.106081760e-02	6.697303425e-12
1.240000000e+00	3.395217004e-01	-5.087662605e-02	3.785588140e-12
1.250000000e+00	3.387909178e-01	-5.069429723e-02	1.152320154e-11
1.260000000e+00	3.380647339e-01	-5.051380781e-02	5.302555370e-12
1.270000000e+00	3.373431014e-01	-5.033513483e-02	3.033333018e-12
1.280000000e+00	3.366259738e-01	-5.015825572e-02	1.147926027e-11
1.290000000e+00	3.359133053e-01	-4.998314828e-02	4.971203535e-12
1.300000000e+00	3.352050506e-01	-4.980979068e-02	5.771411163e-12
1.310000000e+00	3.345011652e-01	-4.963816144e-02	1.481761687e-11
1.320000000e+00	3.338016050e-01	-4.946823945e-02	5.693207849e-12
1.330000000e+00	3.331063268e-01	-4.930000392e-02	1.075748574e-11
1.340000000e+00	3.324152876e-01	-4.913343443e-02	2.655073719e-12
1.350000000e+00	3.317284455e-01	-4.896851084e-02	6.458971737e-12
1.360000000e+00	3.310457587e-01	-4.880521340e-02	1.080537339e-11
1.370000000e+00	3.303671861e-01	-4.864352260e-02	9.619093203e-12
1.380000000e+00	3.296926875e-01	-4.848341932e-02	8.243929820e-12
1.390000000e+00	3.290222227e-01	-4.832488468e-02	1.807821925e-11
1.400000000e+00	3.283557524e-01	-4.816790016e-02	5.931614038e-12
1.410000000e+00	3.276932378e-01	-4.801244746e-02	8.345433856e-12
1.420000000e+00	3.270346404e-01	-4.785850865e-02	9.048885428e-12
1.430000000e+00	3.263799225e-01	-4.770606600e-02	8.752901625e-12
1.440000000e+00	3.257290467e-01	-4.755510212e-02	9.539808656e-12
1.450000000e+00	3.250819762e-01	-4.740559988e-02	1.164801117e-11
1.460000000e+00	3.244386747e-01	-4.725754237e-02	9.654495980e-12
1.470000000e+00	3.237991062e-01	-4.711091301e-02	1.380855645e-11
1.480000000e+00	3.231632354e-01	-4.696569542e-02	1.046891190e-11
1.490000000e+00	3.225310273e-01	-4.682187350e-02	1.491482116e-11
1.500000000e+00	3.219024474e-01	-4.667943138e-02	1.015331730e-11
1.510000000e+00	3.212774617e-01	-4.653835344e-02	5.448140965e-12
1.520000000e+00	3.206560365e-01	-4.639862431e-02	5.103442196e-12
1.530000000e+00	3.200381388e-01	-4.626022883e-02	7.626485099e-12
1.540000000e+00	3.194237358e-01	-4.612315208e-02	7.096003387e-12
1.550000000e+00	3.188127951e-01	-4.598737937e-02	5.259169984e-12
1.560000000e+00	3.182052849e-01	-4.585289622e-02	1.032296998e-11
1.570000000e+00	3.176011736e-01	-4.571968836e-02	9.274472944e-12
1.580000000e+00	3.170004301e-01	-4.558774175e-02	7.543288532e-12
1.590000000e+00	3.164030237e-01	-4.545704254e-02	1.171409028e-11
1.600000000e+00	3.158089240e-01	-4.532757711e-02	1.957098048e-11
1.610000000e+00	3.152181012e-01	-4.519933200e-02	1.091144759e-11
1.620000000e+00	3.146305256e-01	-4.507229398e-02	7.831636640e-12
1.630000000e+00	3.140461681e-01	-4.494645001e-02	6.281431531e-12
1.640000000e+00	3.134649997e-01	-4.482178722e-02	1.056194504e-11
1.650000000e+00	3.128869920e-01	-4.469829295e-02	9.464430187e-12
1.660000000e+00	3.123121168e-01	-4.457595472e-02	1.148927261e-11
1.670000000e+00	3.117403464e-01	-4.445476021e-02	7.163511448e-12
1.680000000e+00	3.111716533e-01	-4.433469729e-02	6.181824305e-12
1.690000000e+00	3.106060104e-01	-4.421575402e-02	1.890053081e-11
1.700000000e+00	3.100433908e-01	-4.409791858e-02	1.196369191e-11
1.710000000e+00	3.094837682e-01	-4.398117938e-02	9.453274778e-12
1.720000000e+00	3.089271163e-01	-4.386552495e-02	7.808348536e-12
1.730000000e+00	3.083734093e-01	-4.375094401e-02	9.056145231e-12
1.740000000e+00	3.078226217e-01	-4.363742542e-02	7.619749337e-12
1.750000000e+00	3.072747284e-01	-4.352495820e-02	1.116944870e-11
1.760000000e+00	3.067297043e-01	-4.341353152e-02	7.891284535e-12
1.770000000e+00	3.061875248e-01	-4.330313472e-02	6.001112286e-12
1.780000000e+00	3.056481656e-01	-4.319375726e-02	8.620629135e-12
1.790000000e+00	3.051116027e-01	-4.308538876e-02	7.705632863e-12
1.800000000e+00	3.045778123e-01	-4.297801899e-02	1.187676152e-11
1.810000000e+00	3.040467710e-01	-4.287163786e-02	1.394901185e-11
1.820000000e+00	3.035184554e-01	-4.276623540e-02	8.108399320e-12
1.830000000e+00	3.029928427e-01	-4.266180178e-02	8.518089204e-12
1.840000000e+00	3.024699102e-01	-4.255832733e-02	1.124990680e-11
1.850000000e+00	3.019496355e-01	-4.245580248e-02	5.675199976e-12
1.860000000e+00	3.014319965e-01	-4.235421781e-02	4.433002430e-12
1.870000000e+00	3.009169712e-01	-4.225356401e-02	9.853694493e-12
1.880000000e+00	3.004045379e-01	-4.215383189e-02	3.127303734e-11
1.890000000e+00	2.998946754e-01	-4.205501243e-02	1.003954554e-11
1.900000000e+00	2.993873624e-01	-4.195709668e-02	5.515595355e-12
1.910000000e+00	2.988825781e-01	-4.186007582e-02	5.854016982e-12
1.920000000e+00	2.983803017e-01	-4.176394116e-02	1.341796344e-11
1.930000000e+00	2.978805128e-01	-4.166868412e-02	1.454706910e-11
1.940000000e+00	2.973831912e-01	-4.157429622e-02	9.190862977e-12
1.950000000e+00	2.968883169e-01	-4.148076911e-02	1.044062303e-11
1.960000000e+00	2.963958702e-01	-4.138809453e-02	1.283238713e-11
1.970000000e+00	2.959058314e-01	-4.129626436e-02	6.195029149e-12
1.980000000e+00	2.954181813e-01	-4.120527055e-02	9.893461947e-12
1.990000000e+00	2.949329008e-01	-4.111510517e-02	1.486012007e-11
2.000000000e+00	2.944499710e-01	-4.102576039e-02	1.697817716e-11
2.010000000e+00	2.939693731e-01	-4.093722848e-02	8.655250998e-12
2.020000000e+00	2.934910887e-01	-4.084950183e-02	7.445104526e-12
2.030000000e+00	2.930150995e-01	-4.076257288e-02	1.588925179e-11
2.040000000e+00	2.925413874e-01	-4.067643421e-02	1.251278019e-11
2.050000000e+00	2.920699345e-01	-4.059107849e-02	1.190192808e-11
2.060000000e+00	2.916007232e-01	-4.050649846e-02	1.387769552e-11
2.070000000e+00	2.911337358e-01	-4.042268697e-02	9.168453634e-12
2.080000000e+00	2.906689552e-01	-4.033963694e-02	8.563843300e-12
2.090000000e+00	2.902063642e-01	-4.025734141e-02	1.723698414e-11
2.100000000e+00	2.897459458e-01	-4.017579350e-02	1.170526556e-11
2.110000000e+00	2.892876833e-01	-4.009498639e-02	1.335557802e-11
2.120000000e+00	2.888315601e-01	-4.001491335e-02	6.910611811e-12
2.130000000e+00	2.883775598e-01	-3.993556777e-02	1.113249719e-11
2.140000000e+00	2.879256661e-01	-3.985694308e-02	1.033200347e-11
2.150000000e+00	2.874758630e-01	-3.977903282e-02	3.038738094e-11
2.160000000e+00	2.870281346e-01	-3.970183061e-02	1.531472220e-11
2.170000000e+00	2.865824652e-01	-3.962533010e-02	1.117326919e-11
2.180000000e+00	2.861388391e-01	-3.954952508e-02	1.085256179e-11
2.190000000e+00	2.856972411e-01	-3.947440938e-02	1.375470147e-11
2.200000000e+00	2.852576559e-01	-3.939997692e-02	1.573620782e-11
2.210000000e+00	2.848200683e-01	-3.932622168e-02	9.033651204e-12
2.220000000e+00	2.843844635e-01	-3.925313774e-02	1.041809919e-11
2.230000000e+00	2.839508268e-01	-3.918071921e-02	7.631658616e-12
2.240000000e+00	2.835191433e-01	-3.910896030e-02	7.653916027e-12
2.250000000e+00	2.830893988e-01	-3.903785528e-02	2.142756103e-11
2.260000000e+00	2.826615789e-01	-3.896739851e-02	1.027524920e-11
2.270000000e+00	2.822356695e-01	-3.889758437e-02	1.045270512e-11
2.280000000e+00	2.818116564e-01	-3.882840735e-02	1.109605307e-11
2.290000000e+00	2.813895258e-01	-3.875986199e-02	1.213451165e-11
2.300000000e+00	2.809692640e-01	-3.869194289e-02	1.253610499e-11
2.310000000e+00	2.805508573e-01	-3.862464473e-02	8.185466766e-12
2.320000000e+00	2.801342923e-01	-3.855796222e-02	9.707575955e-12
2.330000000e+00	2.797195556e-01	-3.849189018e-02	6.316231624e-12
2.340000000e+00	2.793066342e-01	-3.842642343e-02	1.120427794e-11
2.350000000e+00	2.788955147e-01	-3.836155691e-02	1.454258017e-11
2.360000000e+00	2.784861845e-01	-3.829728557e-02	5.422072170e-12
2.370000000e+00	2.780786305e-01	-3.823360446e-02	7.107567239e-12
2.380000000e+00	2.776728402e-01	-3.817050866e-02	9.302713072e-12
2.390000000e+00	2.772688010e-01	-3.810799332e-02	1.177195789e-11
2.400000000e+00	2.768665005e-01	-3.804605363e-02	1.708139392e-11
2.410000000e+00	2.764659262e-01	-3.798468484e-02	8.499677784e-12
2.420000000e+00	2.760670662e-01	-3.792388228e-02	6.954588841e-12
2.430000000e+00	2.756699082e-01	-3.786364130e-02	1.453371350e-11
2.440000000e+00	2.752744403e-01	-3.780395731e-02	1.299748889e-11
2.450000000e+00	2.748806508e-01	-3.774482579e-02	1.770046866e-11
2.460000000e+00	2.744885278e-01	-3.768624224e-02	5.727241168e-12
2.470000000e+00	2.740980597e-01	-3.762820225e-02	9.018601588e-12
2.480000000e+00	2.737092351e-01	-3.757070142e-02	1.937308621e-11
2.490000000e+00	2.733220426e-01	-3.751373543e-02	7.156962221e-12
2.500000000e+00	2.729364708e-01	-3.745729998e-02	7.635282300e-12
2.510000000e+00	2.725525087e-01	-3.740139086e-02	1.132457137e-11
2.520000000e+00	2.721701451e-01	-3.734600385e-02	1.541388762e-11
2.530000000e+00	2.717893691e-01	-3.729113482e-02	1.936083253e-11
2.540000000e+00	2.714101699e-01	-3.723677969e-02	1.186485343e-11
2.550000000e+00	2.710325366e-01	-3.718293437e-02	5.510071932e-12
2.560000000e+00	2.706564587e-01	-3.712959489e-02	1.563258687e-11
2.570000000e+00	2.702819256e-01	-3.707675726e-02	1.902248111e-11
2.580000000e+00	2.699089268e-01	-3.702441756e-02	1.096316780e-11
2.590000000e+00	2.695374520e-01	-3.697257194e-02	1.215971504e-11
2.600000000e+00	2.691674909e-01	-3.692121653e-02	1.194038440e-11
2.610000000e+00	2.687990334e-01	-3.687034755e-02	7.883273189e-12
2.620000000e+00	2.684320694e-01	-3.681996125e-02	6.377230961e-12
2.630000000e+00	2.680665889e-01	-3.677005391e-02	1.553208038e-11
2.640000000e+00	2.677025820e-01	-3.672062186e-02	1.784258513e-11
2.650000000e+00	2.673400390e-01	-3.667166147e-02	1.442028824e-11
2.660000000e+00	2.669789502e-01	-3.662316914e-02	1.246949376e-11
2.670000000e+00	2.666193059e-01	-3.657514131e-02	2.214282710e-11
2.680000000e+00	2.662610967e-01	-3.652757448e-02	7.160874264e-12
2.690000000e+00	2.659043130e-01	-3.648046515e-02	1.102976200e-11
2.700000000e+00	2.655489456e-01	-3.643380987e-02	1.261818818e-11
2.710000000e+00	2.651949852e-01	-3.638760525e-02	9.062157449e-12
2.720000000e+00	2.648424225e-01	-3.634184791e-02	9.157783164e-12
2.730000000e+00	2.644912486e-01	-3.629653451e-02	8.948364567e-12
2.740000000e+00	2.641414543e-01	-3.625166176e-02	1.378814484e-11
2.750000000e+00	2.637930308e-01	-3.620722638e-02	1.517831315e-11
2.760000000e+00	2.634459692e-01	-3.616322513e-02	1.058064574e-11
2.770000000e+00	2.631002607e-01	-3.611965483e-02	1.140172216e-11
2.780000000e+00	2.627558966e-01	-3.607651230e-02	6.808859376e-12
2.790000000e+00	2.624128683e-01	-3.603379441e-02	9.765719213e-12
2.800000000e+00	2.620711673e-01	-3.599149806e-02	9.027926239e-12
2.810000000e+00	2.617307851e-01	-3.594962017e-02	9.095041606e-12
2.820000000e+00	2.613917133e-01	-3.590815771e-02	1.975847416e-11
2.830000000e+00	2.610539436e-01	-3.586710768e-02	1.633844001e-11
2.840000000e+00	2.607174677e-01	-3.582646708e-02	8.783985315e-12
2.850000000e+00	2.603822775e-01	-3.578623299e-02	1.154075395e-11
2.860000000e+00	2.600483648e-01	-3.574640248e-02	1.618035591e-11
2.870000000e+00	2.597157217e-01	-3.570697266e-02	9.985018790e-12
2.880000000e+00	2.593843402e-01	-3.566794068e-02	1.560283009e-11
2.890000000e+00	2.590542123e-01	-3.562930371e-02	8.559662441e-12
2.900000000e+00	2.587253304e-01	-3.559105895e-02	4.614825448e-12
2.910000000e+00	2.583976865e-01	-3.555320362e-02	8.866030917e-12
2.920000000e+00	2.580712730e-01	-3.551573498e-02	1.401274341e-11
2.930000000e+00	2.577460824e-01	-3.547865031e-02	7.575324355e-12
2.940000000e+00	2.574221070e-01	-3.544194692e-02	5.663136001e-12
2.950000000e+00	2.570993393e-01	-3.540562216e-02	1.552540168e-11
2.960000000e+00	2.567777720e-01	-3.536967338e-02	1.236416232e-11
2.970000000e+00	2.564573977e-01	-3.533409796e-02	1.540242389e-11
2.980000000e+00	2.561382090e-01	-3.529889333e-02	1.670688977e-11
2.990000000e+00	2.558201987e-01	-3.526405692e-02	3.106206844e-11
3.000000000e+00	2.555033596e-01	-3.522958620e-02	6.159494240e-12
3.010000000e+00	2.551876847e-01	-3.519547867e-02	1.255056604e-11
3.020000000e+00	2.548731669e-01	-3.516173181e-02	1.262003625e-11
3.030000000e+00	2.545597991e-01	-3.512834320e-02	1.071585751e-11
3.040000000e+00	2.542475745e-01	-3.509531038e-02	2.342776766e-11
3.050000000e+00	2.539364861e-01	-3.506263094e-02	1.474034138e-11
3.060000000e+00	2.536265271e-01	-3.503030248e-02	8.012763454e-12
3.070000000e+00	2.533176908e-01	-3.499832265e-02	1.238142337e-11
3.080000000e+00	2.530099705e-01	-3.496668909e-02	6.353658610e-12
3.090000000e+00	2.527033594e-01	-3.493539949e-02	9.655560612e-12
3.100000000e+00	2.523978511e-01	-3.490445154e-02	1.031802278e-11
3.110000000e+00	2.520934389e-01	-3.487384296e-02	4.991265160e-12
3.120000000e+00	2.517901163e-01	-3.484357150e-02	2.289695657e-11
3.130000000e+00	2.514878770e-01	-3.481363492e-02	1.636257150e-11
3.140000000e+00	2.511867145e-01	-3.478403101e-02	2.136547170e-11
3.150000000e+00	2.508866224e-01	-3.475475759e-02	1.984731512e-11
3.160000000e+00	2.505875947e-01	-3.472581246e-02	1.674389402e-11
3.170000000e+00	2.502896249e-01	-3.469719347e-02	1.129234891e-11
3.180000000e+00	2.499927069e-01	-3.466889851e-02	1.612658855e-11
3.190000000e+00	2.496968346e-01	-3.464092546e-02	1.768576315e-11
3.200000000e+00	2.494020018e-01	-3.461327222e-02	1.384110986e-11
3.210000000e+00	2.491082027e-01	-3.458593672e-02	1.088681667e-11
3.220000000e+00	2.488154311e-01	-3.455891691e-02	9.713233199e-12
3.230000000e+00	2.485236812e-01	-3.453221076e-02	1.955721278e-11
3.240000000e+00	2.482329471e-01	-3.450581625e-02	1.048432328e-11
3.250000000e+00	2.479432228e-01	-3.447973137e-02	4.640111008e-12
3.260000000e+00	2.476545028e-01	-3.445395417e-02	1.232503862e-11
3.270000000e+00	2.473667810e-01	-3.442848266e-02	1.032193123e-11
3.280000000e+00	2.470800520e-01	-3.440331491e-02	1.016085629e-11
3.290000000e+00	2.467943100e-01	-3.437844900e-02	2.935095694e-11
3.300000000e+00	2.465095494e-01	-3.435388302e-02	1.000182480e-11
3.310000000e+00	2.462257647e-01	-3.432961508e-02	1.753345444e-11
3.320000000e+00	2.459429503e-01	-3.430564330e-02	1.230182432e-11
3.330000000e+00	2.456611007e-01	-3.428196584e-02	1.361224645e-11
3.340000000e+00	2.453802106e-01	-3.425858085e-02	2.058618006e-11
3.350000000e+00	2.451002744e-01	-3.423548651e-02	1.651067109e-11
3.360000000e+00	2.448212869e-01	-3.421268102e-02	6.557349822e-12
3.370000000e+00	2.445432428e-01	-3.419016257e-02	1.831654870e-11
3.380000000e+00	2.442661368e-01	-3.416792941e-02	1.768173784e-11
3.390000000e+00	2.439899636e-01	-3.414597978e-02	7.785716460e-12
3.400000000e+00	2.437147180e-01	-3.412431192e-02	1.952416918e-11
3.410000000e+00	2.434403950e-01	-3.410292413e-02	1.097605936e-11
3.420000000e+00	2.431669894e-01	-3.408181467e-02	9.301188213e-12
3.430000000e+00	2.428944961e-01	-3.406098186e-02	7.391509499e-12
3.440000000e+00	2.426229102e-01	-3.404042403e-02	2.605387122e-11
3.450000000e+00	2.423522265e-01	-3.402013948e-02	2.603753413e-11
3.460000000e+00	2.420824403e-01	-3.400012659e-02	1.823474620e-11
3.470000000e+00	2.418135464e-01	-3.398038371e-02	2.288395174e-11
3.480000000e+00	2.415455402e-01	-3.396090922e-02	1.657380103e-11
3.490000000e+00	2.412784167e-01	-3.394170151e-02	2.551675651e-11
3.500000000e+00	2.410121711e-01	-3.392275899e-02	1.904917311e-11
3.510000000e+00	2.407467986e-01	-3.390408007e-02	1.335331238e-11
3.520000000e+00	2.404822946e-01	-3.388566319e-02	1.091181389e-11
3.530000000e+00	2.402186543e-01	-3.386750680e-02	1.442441487e-11
3.540000000e+00	2.399558731e-01	-3.384960935e-02	4.828939807e-12
3.550000000e+00	2.396939463e-01	-3.383196932e-02	5.474291312e-12
3.560000000e+00	2.394328694e-01	-3.381458519e-02	1.346501174e-11
3.570000000e+00	2.391726377e-01	-3.379745547e-02	2.729377909e-11
3.580000000e+00	2.389132469e-01	-3.378057867e-02	9.796008379e-12
3.590000000e+00	2.386546923e-01	-3.376395331e-02	2.065162272e-11
3.600000000e+00	2.383969695e-01	-3.374757793e-02	1.208194308e-11
3.610000000e+00	2.381400741e-01	-3.373145108e-02	1.283366615e-11
3.620000000e+00	2.378840018e-01	-3.371557132e-02	1.454482608e-11
3.630000000e+00	2.376287480e-01	-3.369993722e-02	1.029647706e-11
3.640000000e+00	2.373743086e-01	-3.368454738e-02	6.827946975e-12
3.650000000e+00	2.371206793e-01	-3.366940040e-02	9.212507872e-12
3.660000000e+00	2.368678557e-01	-3.365449488e-02	9.916075763e-12
3.670000000e+00	2.366158336e-01	-3.363982943e-02	1.425425638e-11
3.680000000e+00	2.363646089e-01	-3.362540271e-02	2.483307858e-11
3.690000000e+00	2.361141773e-01	-3.361121335e-02	1.037888097e-11
3.700000000e+00	2.358645347e-01	-3.359726001e-02	4.150167425e-12
3.710000000e+00	2.356156771e-01	-3.358354136e-02	1.645617604e-11
3.720000000e+00	2.353676002e-01	-3.357005607e-02	2.061795600e-11
3.730000000e+00	2.351203002e-01	-3.355680284e-02	5.439339658e-12
3.740000000e+00	2.348737729e-01	-3.354378035e-02	1.832914999e-11
3.750000000e+00	2.346280144e-01	-3.353098734e-02	1.226121716e-11
3.760000000e+00	2.343830206e-01	-3.351842252e-02	1.151936631e-11
3.770000000e+00	2.341387878e-01	-3.350608462e-02	1.954257092e-11
3.780000000e+00	2.338953119e-01	-3.349397238e-02	1.192940523e-11
3.790000000e+00	2.336525890e-01	-3.348208456e-02	4.622418363e-12
3.800000000e+00	2.334106154e-01	-3.347041992e-02	1.468608167e-11
3.810000000e+00	2.331693872e-01	-3.345897722e-02	1.077950830e-11
3.820000000e+00	2.329289006e-01	-3.344775526e-02	2.236825017e-11
3.830000000e+00	2.326891518e-01	-3.343675284e-02	1.373484193e-11
3.840000000e+00	2.324501372e-01	-3.342596874e-02	6.587373306e-12
3.850000000e+00	2.322118528e-01	-3.341540179e-02	1.077492779e-11
3.860000000e+00	2.319742952e-01	-3.340505081e-02	1.120188384e-11
3.870000000e+00	2.317374606e-01	-3.339491463e-02	1.362587707e-11
3.880000000e+00	2.315013453e-01	-3.338499207e-02	1.914228390e-11
3.890000000e+00	2.312659458e-01	-3.337528202e-02	2.452074789e-11
3.900000000e+00	2.310312585e-01	-3.336578331e-02	9.449960861e-12
3.910000000e+00	2.307972798e-01	-3.335649482e-02	3.067271246e-11
3.920000000e+00	2.305640062e-01	-3.334741542e-02	1.132088017e-11
3.930000000e+00	2.303314341e-01	-3.333854401e-02	9.140204233e-12
3.940000000e+00	2.300995600e-01	-3.332987947e-02	9.121552173e-12
3.950000000e+00	2.298683806e-01	-3.332142071e-02	1.499563101e-11
3.960000000e+00	2.296378923e-01	-3.331316665e-02	1.451468036e-11
3.970000000e+00	2.294080917e-01	-3.330511621e-02	1.288126247e-11
3.980000000e+00	2.291789755e-01	-3.329726831e-02	8.324326176e-12
3.990000000e+00	2.289505403e-01	-3.328962189e-02	1.485770412e-11
4.000000000e+00	2.287227826e-01	-3.328217590e-02	1.330623145e-11
4.010000000e+00	2.284956993e-01	-3.327492930e-02	1.646081495e-11
4.020000000e+00	2.282692870e-01	-3.326788105e-02	1.634795415e-11
4.030000000e+00	2.280435423e-01	-3.326103011e-02	7.027279151e-12
4.040000000e+00	2.278184622e-01	-3.325437548e-02	6.119115971e-12
