# Re(epsi1)     Omega/c [1/micrones]    Im(epsi1)     Eq(det).Opt det SIN kz, mu = 0.9 eV, R = 0.5 micrones, solve_det_sinkz_vs_re_epsi1.py
1.000000000e+00	7.255759074e-01	-3.904389408e-03	2.613445183e-12
1.010000000e+00	7.237841015e-01	-3.920356150e-03	3.005637003e-12
1.020000000e+00	7.220054269e-01	-3.936335893e-03	3.344627759e-12
1.030000000e+00	7.202397249e-01	-3.952328665e-03	2.413448185e-12
1.040000000e+00	7.184868396e-01	-3.968334482e-03	3.494637505e-12
1.050000000e+00	7.167466175e-01	-3.984353376e-03	2.263632039e-12
1.060000000e+00	7.150189078e-01	-4.000385352e-03	5.181028804e-12
1.070000000e+00	7.133035621e-01	-4.016430438e-03	5.393146934e-12
1.080000000e+00	7.116004345e-01	-4.032488653e-03	2.355287963e-12
1.090000000e+00	7.099093815e-01	-4.048560012e-03	3.175663377e-12
1.100000000e+00	7.082302618e-01	-4.064644547e-03	4.730938864e-12
1.110000000e+00	7.065629365e-01	-4.080742256e-03	4.722885827e-12
1.120000000e+00	7.049072689e-01	-4.096853180e-03	8.349463650e-12
1.130000000e+00	7.032631245e-01	-4.112977320e-03	6.197474176e-12
1.140000000e+00	7.016303710e-01	-4.129114695e-03	5.460038157e-12
1.150000000e+00	7.000088783e-01	-4.145265332e-03	7.136379445e-12
1.160000000e+00	6.983985180e-01	-4.161429243e-03	2.995551888e-12
1.170000000e+00	6.967991640e-01	-4.177606438e-03	2.712368613e-12
1.180000000e+00	6.952106923e-01	-4.193796935e-03	4.354087631e-12
1.190000000e+00	6.936329806e-01	-4.210000756e-03	4.294286473e-12
1.200000000e+00	6.920659085e-01	-4.226217918e-03	7.303977265e-12
1.210000000e+00	6.905093576e-01	-4.242448425e-03	6.314414027e-12
1.220000000e+00	6.889632113e-01	-4.258692296e-03	5.649849829e-12
1.230000000e+00	6.874273548e-01	-4.274949557e-03	1.073316827e-11
1.240000000e+00	6.859016750e-01	-4.291220202e-03	9.808742575e-12
1.250000000e+00	6.843860604e-01	-4.307504251e-03	4.226157380e-12
1.260000000e+00	6.828804016e-01	-4.323801724e-03	1.139894785e-11
1.270000000e+00	6.813845904e-01	-4.340112631e-03	4.215441433e-12
1.280000000e+00	6.798985206e-01	-4.356436981e-03	8.076051226e-12
1.290000000e+00	6.784220872e-01	-4.372774799e-03	6.835545213e-12
1.300000000e+00	6.769551871e-01	-4.389126077e-03	1.364161471e-11
1.310000000e+00	6.754977187e-01	-4.405490840e-03	6.337403863e-12
1.320000000e+00	6.740495816e-01	-4.421869100e-03	7.202669034e-12
1.330000000e+00	6.726106773e-01	-4.438260874e-03	8.535814108e-12
1.340000000e+00	6.711809085e-01	-4.454666154e-03	9.445815559e-12
1.350000000e+00	6.697601793e-01	-4.471084961e-03	1.531362961e-11
1.360000000e+00	6.683483952e-01	-4.487517310e-03	4.719497657e-12
1.370000000e+00	6.669454634e-01	-4.503963203e-03	3.708977208e-12
1.380000000e+00	6.655512919e-01	-4.520422659e-03	4.599119057e-12
1.390000000e+00	6.641657904e-01	-4.536895675e-03	6.420145543e-12
1.400000000e+00	6.627888698e-01	-4.553382277e-03	6.477656489e-12
1.410000000e+00	6.614204423e-01	-4.569882465e-03	7.181701483e-12
1.420000000e+00	6.600604212e-01	-4.586396246e-03	8.773165814e-12
1.430000000e+00	6.587087213e-01	-4.602923629e-03	8.318401834e-12
1.440000000e+00	6.573652582e-01	-4.619464621e-03	1.012625496e-11
1.450000000e+00	6.560299491e-01	-4.636019248e-03	8.815395722e-12
1.460000000e+00	6.547027122e-01	-4.652587489e-03	1.080722273e-11
1.470000000e+00	6.533834667e-01	-4.669169377e-03	5.559068745e-12
1.480000000e+00	6.520721332e-01	-4.685764911e-03	8.974626582e-12
1.490000000e+00	6.507686330e-01	-4.702374090e-03	9.642611817e-12
1.500000000e+00	6.494728890e-01	-4.718996929e-03	1.288226265e-11
1.510000000e+00	6.481848247e-01	-4.735633440e-03	4.047513319e-12
1.520000000e+00	6.469043648e-01	-4.752283621e-03	5.111275230e-12
1.530000000e+00	6.456314352e-01	-4.768947480e-03	1.361373791e-11
1.540000000e+00	6.443659626e-01	-4.785625028e-03	8.233133653e-12
1.550000000e+00	6.431078747e-01	-4.802316268e-03	9.294137128e-12
1.560000000e+00	6.418571003e-01	-4.819021200e-03	6.418347599e-12
1.570000000e+00	6.406135691e-01	-4.835739841e-03	9.863434349e-12
1.580000000e+00	6.393772115e-01	-4.852472197e-03	7.754100895e-12
1.590000000e+00	6.381479593e-01	-4.869218263e-03	7.732313627e-12
1.600000000e+00	6.369257448e-01	-4.885978046e-03	1.030733170e-11
1.610000000e+00	6.357105014e-01	-4.902751560e-03	6.271162778e-12
1.620000000e+00	6.345021633e-01	-4.919538801e-03	7.017002438e-12
1.630000000e+00	6.333006656e-01	-4.936339778e-03	6.643457874e-12
1.640000000e+00	6.321059442e-01	-4.953154491e-03	5.459122728e-12
1.650000000e+00	6.309179358e-01	-4.969982954e-03	6.958814437e-12
1.660000000e+00	6.297365781e-01	-4.986825164e-03	8.314054752e-12
1.670000000e+00	6.285618095e-01	-5.003681119e-03	9.064010948e-12
1.680000000e+00	6.273935691e-01	-5.020550834e-03	1.013950122e-11
1.690000000e+00	6.262317968e-01	-5.037434319e-03	1.407064327e-11
1.700000000e+00	6.250764335e-01	-5.054331551e-03	1.197845951e-11
1.710000000e+00	6.239274206e-01	-5.071242560e-03	1.956796288e-11
1.720000000e+00	6.227847004e-01	-5.088167334e-03	7.106547369e-12
1.730000000e+00	6.216482157e-01	-5.105105890e-03	1.056900543e-11
1.740000000e+00	6.205179103e-01	-5.122058213e-03	9.999016992e-12
1.750000000e+00	6.193937286e-01	-5.139024313e-03	1.089423505e-11
1.760000000e+00	6.182756156e-01	-5.156004201e-03	1.425129634e-11
1.770000000e+00	6.171635171e-01	-5.172997868e-03	1.589398634e-11
1.780000000e+00	6.160573796e-01	-5.190005330e-03	9.758327428e-12
1.790000000e+00	6.149571501e-01	-5.207026574e-03	6.474665890e-12
1.800000000e+00	6.138627764e-01	-5.224061613e-03	5.294444710e-12
1.810000000e+00	6.127742069e-01	-5.241110437e-03	1.727318850e-11
1.820000000e+00	6.116913906e-01	-5.258173067e-03	6.486826734e-12
1.830000000e+00	6.106142773e-01	-5.275249486e-03	2.245197715e-11
1.840000000e+00	6.095428171e-01	-5.292339708e-03	1.109446760e-11
1.850000000e+00	6.084769609e-01	-5.309443723e-03	8.559755485e-12
1.860000000e+00	6.074166602e-01	-5.326561543e-03	7.017584544e-12
1.870000000e+00	6.063618671e-01	-5.343693164e-03	1.361010195e-11
1.880000000e+00	6.053125341e-01	-5.360838591e-03	1.127470576e-11
1.890000000e+00	6.042686144e-01	-5.377997819e-03	1.654915609e-11
1.900000000e+00	6.032300619e-01	-5.395170855e-03	8.708523047e-12
1.910000000e+00	6.021968308e-01	-5.412357697e-03	8.191446352e-12
1.920000000e+00	6.011688759e-01	-5.429558347e-03	9.747143691e-12
1.930000000e+00	6.001461526e-01	-5.446772799e-03	1.359785939e-11
1.940000000e+00	5.991286168e-01	-5.464001062e-03	2.033279074e-11
1.950000000e+00	5.981162250e-01	-5.481243131e-03	1.283402733e-11
1.960000000e+00	5.971089340e-01	-5.498499015e-03	6.120366359e-12
1.970000000e+00	5.961067013e-01	-5.515768699e-03	9.360900078e-12
1.980000000e+00	5.951094848e-01	-5.533052195e-03	2.282467489e-11
1.990000000e+00	5.941172429e-01	-5.550349504e-03	6.854531792e-12
2.000000000e+00	5.931299345e-01	-5.567660615e-03	1.005129118e-11
2.010000000e+00	5.921475189e-01	-5.584985533e-03	1.720301290e-11
2.020000000e+00	5.911699561e-01	-5.602324265e-03	1.137524587e-11
2.030000000e+00	5.901972062e-01	-5.619676806e-03	1.792367674e-11
2.040000000e+00	5.892292300e-01	-5.637043146e-03	6.944291766e-12
2.050000000e+00	5.882659887e-01	-5.654423292e-03	6.111165215e-12
2.060000000e+00	5.873074440e-01	-5.671817245e-03	1.131868613e-11
2.070000000e+00	5.863535578e-01	-5.689225005e-03	2.630489110e-11
2.080000000e+00	5.854042927e-01	-5.706646569e-03	1.858449749e-11
2.090000000e+00	5.844596115e-01	-5.724081933e-03	1.763332217e-11
2.100000000e+00	5.835194777e-01	-5.741531095e-03	3.657730787e-11
2.110000000e+00	5.825838548e-01	-5.758994066e-03	1.394862309e-11
2.120000000e+00	5.816527071e-01	-5.776470830e-03	1.566701534e-11
2.130000000e+00	5.807259990e-01	-5.793961394e-03	8.589683905e-12
2.140000000e+00	5.798036956e-01	-5.811465751e-03	1.629530741e-11
2.150000000e+00	5.788857620e-01	-5.828983907e-03	5.218153027e-12
2.160000000e+00	5.779721639e-01	-5.846515854e-03	4.596234745e-12
2.170000000e+00	5.770628676e-01	-5.864061594e-03	6.325020487e-12
2.180000000e+00	5.761578392e-01	-5.881621119e-03	1.908430085e-11
2.190000000e+00	5.752570458e-01	-5.899194439e-03	1.036316988e-11
2.200000000e+00	5.743604543e-01	-5.916781548e-03	2.412664534e-11
2.210000000e+00	5.734680323e-01	-5.934382432e-03	9.713462916e-12
2.220000000e+00	5.725797478e-01	-5.951997102e-03	1.657042827e-11
2.230000000e+00	5.716955688e-01	-5.969625553e-03	1.887265514e-11
2.240000000e+00	5.708154639e-01	-5.987267782e-03	1.385289163e-11
2.250000000e+00	5.699394020e-01	-6.004923786e-03	1.438424326e-11
2.260000000e+00	5.690673524e-01	-6.022593562e-03	6.197645248e-12
2.270000000e+00	5.681992845e-01	-6.040277111e-03	1.310135469e-11
2.280000000e+00	5.673351682e-01	-6.057974429e-03	8.305379747e-12
2.290000000e+00	5.664749737e-01	-6.075685515e-03	1.190575934e-11
2.300000000e+00	5.656186715e-01	-6.093410362e-03	1.404725057e-11
2.310000000e+00	5.647662323e-01	-6.111148976e-03	1.695948460e-11
2.320000000e+00	5.639176273e-01	-6.128901343e-03	2.452655947e-11
2.330000000e+00	5.630728279e-01	-6.146667465e-03	1.648275699e-11
2.340000000e+00	5.622318058e-01	-6.164447341e-03	1.107446373e-11
2.350000000e+00	5.613945330e-01	-6.182240970e-03	8.993880985e-12
2.360000000e+00	5.605609818e-01	-6.200048346e-03	9.665468101e-12
2.370000000e+00	5.597311246e-01	-6.217869464e-03	7.606896574e-12
2.380000000e+00	5.589049345e-01	-6.235704322e-03	1.047069622e-11
2.390000000e+00	5.580823845e-01	-6.253552916e-03	4.292470899e-11
2.400000000e+00	5.572634480e-01	-6.271415256e-03	9.450367148e-12
2.410000000e+00	5.564480988e-01	-6.289291322e-03	3.960750673e-11
2.420000000e+00	5.556363106e-01	-6.307181118e-03	1.178215865e-11
2.430000000e+00	5.548280578e-01	-6.325084637e-03	6.495390904e-12
2.440000000e+00	5.540233149e-01	-6.343001880e-03	1.337852124e-11
2.450000000e+00	5.532220564e-01	-6.360932840e-03	8.619483992e-12
2.460000000e+00	5.524242575e-01	-6.378877515e-03	1.245162318e-11
2.470000000e+00	5.516298933e-01	-6.396835905e-03	8.339097898e-11
2.480000000e+00	5.508389393e-01	-6.414807997e-03	3.360150890e-11
2.490000000e+00	5.500513713e-01	-6.432793801e-03	4.658850160e-12
2.500000000e+00	5.492671651e-01	-6.450793302e-03	7.491451984e-12
2.510000000e+00	5.484862970e-01	-6.468806504e-03	9.043118439e-12
2.520000000e+00	5.477087434e-01	-6.486833395e-03	1.079015772e-11
2.530000000e+00	5.469344811e-01	-6.504873982e-03	1.563839162e-11
2.540000000e+00	5.461634867e-01	-6.522928250e-03	8.017189431e-12
2.550000000e+00	5.453957376e-01	-6.540996205e-03	3.233960765e-11
2.560000000e+00	5.446312110e-01	-6.559077834e-03	6.276984867e-12
2.570000000e+00	5.438698845e-01	-6.577173140e-03	8.164311419e-12
2.580000000e+00	5.431117359e-01	-6.595282114e-03	2.525935696e-11
2.590000000e+00	5.423567431e-01	-6.613404756e-03	1.146425960e-11
2.600000000e+00	5.416048844e-01	-6.631541062e-03	8.435420021e-12
2.610000000e+00	5.408561382e-01	-6.649691025e-03	1.792774934e-11
2.620000000e+00	5.401104831e-01	-6.667854645e-03	8.047525077e-12
2.630000000e+00	5.393678980e-01	-6.686031912e-03	9.089204873e-12
2.640000000e+00	5.386283618e-01	-6.704222828e-03	6.183547135e-12
2.650000000e+00	5.378918539e-01	-6.722427382e-03	9.569507628e-12
2.660000000e+00	5.371583535e-01	-6.740645577e-03	1.476590073e-11
2.670000000e+00	5.364278404e-01	-6.758877402e-03	1.995892627e-11
2.680000000e+00	5.357002944e-01	-6.777122861e-03	2.332216092e-11
2.690000000e+00	5.349756955e-01	-6.795381939e-03	1.359381394e-11
2.700000000e+00	5.342540238e-01	-6.813654637e-03	3.065759419e-11
2.710000000e+00	5.335352597e-01	-6.831940953e-03	1.229996578e-11
2.720000000e+00	5.328193839e-01	-6.850240881e-03	1.075054271e-11
2.730000000e+00	5.321063770e-01	-6.868554413e-03	1.163999613e-11
2.740000000e+00	5.313962200e-01	-6.886881549e-03	1.239227986e-11
2.750000000e+00	5.306888939e-01	-6.905222283e-03	1.035324954e-11
2.760000000e+00	5.299843801e-01	-6.923576608e-03	1.261134092e-11
2.770000000e+00	5.292826600e-01	-6.941944522e-03	7.985775310e-12
2.780000000e+00	5.285837151e-01	-6.960326021e-03	1.156911666e-11
2.790000000e+00	5.278875274e-01	-6.978721094e-03	2.098656526e-11
2.800000000e+00	5.271940787e-01	-6.997129746e-03	2.858120417e-11
2.810000000e+00	5.265033511e-01	-7.015551967e-03	1.477696784e-11
2.820000000e+00	5.258153270e-01	-7.033987750e-03	3.465668965e-11
2.830000000e+00	5.251299887e-01	-7.052437097e-03	1.168405502e-11
2.840000000e+00	5.244473189e-01	-7.070899996e-03	1.504768156e-11
2.850000000e+00	5.237673003e-01	-7.089376446e-03	6.642257562e-12
2.860000000e+00	5.230899159e-01	-7.107866441e-03	1.239561433e-11
2.870000000e+00	5.224151487e-01	-7.126369976e-03	1.509743445e-11
2.880000000e+00	5.217429819e-01	-7.144887048e-03	1.092893293e-11
2.890000000e+00	5.210733989e-01	-7.163417649e-03	7.065596680e-12
2.900000000e+00	5.204063831e-01	-7.181961776e-03	1.599118057e-11
2.910000000e+00	5.197419184e-01	-7.200519421e-03	1.171389165e-11
2.920000000e+00	5.190799884e-01	-7.219090584e-03	6.204221569e-12
2.930000000e+00	5.184205771e-01	-7.237675261e-03	4.724274342e-11
2.940000000e+00	5.177636687e-01	-7.256273434e-03	6.429951947e-12
2.950000000e+00	5.171092473e-01	-7.274885108e-03	5.215096279e-11
2.960000000e+00	5.164572973e-01	-7.293510286e-03	8.073320670e-12
2.970000000e+00	5.158078032e-01	-7.312148949e-03	7.198121750e-12
2.980000000e+00	5.151607497e-01	-7.330801096e-03	1.104153301e-11
2.990000000e+00	5.145161216e-01	-7.349466724e-03	9.027635513e-12
3.000000000e+00	5.138739036e-01	-7.368145825e-03	8.358704955e-12
3.010000000e+00	5.132340810e-01	-7.386838394e-03	9.915987026e-12
3.020000000e+00	5.125966388e-01	-7.405544430e-03	1.297040878e-11
3.030000000e+00	5.119615624e-01	-7.424263921e-03	9.590455568e-12
3.040000000e+00	5.113288372e-01	-7.442996867e-03	8.409554200e-12
3.050000000e+00	5.106984487e-01	-7.461743262e-03	6.408168353e-12
3.060000000e+00	5.100703826e-01	-7.480503098e-03	8.219915412e-12
3.070000000e+00	5.094446247e-01	-7.499276372e-03	1.594684307e-11
3.080000000e+00	5.088211610e-01	-7.518063076e-03	1.324736973e-11
3.090000000e+00	5.081999773e-01	-7.536863208e-03	1.828810549e-11
3.100000000e+00	5.075810600e-01	-7.555676760e-03	9.725091761e-12
3.110000000e+00	5.069643953e-01	-7.574503730e-03	1.050477606e-11
3.120000000e+00	5.063499695e-01	-7.593344107e-03	2.947273449e-11
3.130000000e+00	5.057377692e-01	-7.612197891e-03	6.081169497e-12
3.140000000e+00	5.051277810e-01	-7.631065074e-03	7.423550815e-12
3.150000000e+00	5.045199916e-01	-7.649945654e-03	6.467611120e-11
3.160000000e+00	5.039143879e-01	-7.668839614e-03	7.858248645e-12
3.170000000e+00	5.033109568e-01	-7.687746961e-03	2.035853370e-11
3.180000000e+00	5.027096853e-01	-7.706667688e-03	9.518696751e-12
3.190000000e+00	5.021105607e-01	-7.725601780e-03	3.734405652e-11
3.200000000e+00	5.015135702e-01	-7.744549246e-03	9.308542606e-12
3.210000000e+00	5.009187012e-01	-7.763510069e-03	1.010151471e-11
3.220000000e+00	5.003259411e-01	-7.782484247e-03	8.445973424e-12
3.230000000e+00	4.997352776e-01	-7.801471773e-03	1.548643550e-11
3.240000000e+00	4.991466983e-01	-7.820472645e-03	1.632863471e-11
3.250000000e+00	4.985601910e-01	-7.839486853e-03	1.355999039e-11
3.260000000e+00	4.979757437e-01	-7.858514395e-03	1.271036661e-11
3.270000000e+00	4.973933442e-01	-7.877555266e-03	4.000164965e-11
3.280000000e+00	4.968129807e-01	-7.896609454e-03	7.198579992e-12
3.290000000e+00	4.962346414e-01	-7.915676956e-03	2.675201021e-11
3.300000000e+00	4.956583145e-01	-7.934757773e-03	5.973823875e-12
3.310000000e+00	4.950839884e-01	-7.953851890e-03	1.495112091e-11
3.320000000e+00	4.945116516e-01	-7.972959307e-03	1.205062827e-11
3.330000000e+00	4.939412927e-01	-7.992080018e-03	9.454326833e-12
3.340000000e+00	4.933729002e-01	-8.011214015e-03	1.909722518e-11
3.350000000e+00	4.928064629e-01	-8.030361291e-03	7.525396079e-12
3.360000000e+00	4.922419697e-01	-8.049521844e-03	5.581546754e-11
3.370000000e+00	4.916794094e-01	-8.068695665e-03	1.882463538e-11
3.380000000e+00	4.911187711e-01	-8.087882752e-03	6.818050172e-12
3.390000000e+00	4.905600439e-01	-8.107083096e-03	7.728756687e-12
3.400000000e+00	4.900032170e-01	-8.126296693e-03	9.521922760e-12
3.410000000e+00	4.894482795e-01	-8.145523534e-03	2.199715886e-11
3.420000000e+00	4.888952210e-01	-8.164763617e-03	1.104487381e-11
3.430000000e+00	4.883440307e-01	-8.184016936e-03	2.029558896e-11
3.440000000e+00	4.877946983e-01	-8.203283483e-03	1.210419064e-11
3.450000000e+00	4.872472132e-01	-8.222563250e-03	3.178118260e-11
3.460000000e+00	4.867015653e-01	-8.241856238e-03	1.899321478e-11
3.470000000e+00	4.861577442e-01	-8.261162436e-03	1.518959249e-11
3.480000000e+00	4.856157399e-01	-8.280481842e-03	1.584828031e-11
3.490000000e+00	4.850755421e-01	-8.299814444e-03	7.695096411e-12
3.500000000e+00	4.845371410e-01	-8.319160241e-03	2.122677711e-11
3.510000000e+00	4.840005266e-01	-8.338519226e-03	9.947415677e-12
3.520000000e+00	4.834656890e-01	-8.357891391e-03	8.546779660e-12
3.530000000e+00	4.829326185e-01	-8.377276733e-03	8.198397644e-12
3.540000000e+00	4.824013054e-01	-8.396675245e-03	2.158904006e-11
3.550000000e+00	4.818717400e-01	-8.416086922e-03	1.882831477e-11
3.560000000e+00	4.813439129e-01	-8.435511758e-03	1.010199066e-11
3.570000000e+00	4.808178144e-01	-8.454949743e-03	1.996164957e-11
3.580000000e+00	4.802934353e-01	-8.474400879e-03	3.542903758e-11
3.590000000e+00	4.797707662e-01	-8.493865151e-03	5.475284165e-12
3.600000000e+00	4.792497977e-01	-8.513342558e-03	2.415429013e-11
3.610000000e+00	4.787305209e-01	-8.532833094e-03	3.318543787e-11
3.620000000e+00	4.782129264e-01	-8.552336754e-03	9.981435565e-12
3.630000000e+00	4.776970052e-01	-8.571853527e-03	3.437316565e-11
3.640000000e+00	4.771827485e-01	-8.591383414e-03	1.387323410e-11
3.650000000e+00	4.766701472e-01	-8.610926405e-03	1.795481960e-11
3.660000000e+00	4.761591924e-01	-8.630482492e-03	1.255639286e-11
3.670000000e+00	4.756498755e-01	-8.650051674e-03	9.623756322e-12
3.680000000e+00	4.751421877e-01	-8.669633941e-03	1.840585364e-11
3.690000000e+00	4.746361203e-01	-8.689229290e-03	2.538978258e-11
3.700000000e+00	4.741316647e-01	-8.708837713e-03	1.061397204e-11
3.710000000e+00	4.736288124e-01	-8.728459203e-03	8.496607044e-12
3.720000000e+00	4.731275550e-01	-8.748093757e-03	2.007804927e-11
3.730000000e+00	4.726278840e-01	-8.767741368e-03	1.916282557e-11
3.740000000e+00	4.721297911e-01	-8.787402027e-03	9.383038792e-12
3.750000000e+00	4.716332680e-01	-8.807075732e-03	6.131131850e-12
3.760000000e+00	4.711383065e-01	-8.826762476e-03	9.760485863e-12
3.770000000e+00	4.706448985e-01	-8.846462251e-03	5.717605566e-12
3.780000000e+00	4.701530358e-01	-8.866175054e-03	1.833540093e-11
3.790000000e+00	4.696627103e-01	-8.885900874e-03	1.202121554e-11
3.800000000e+00	4.691739142e-01	-8.905639711e-03	1.392225477e-11
3.810000000e+00	4.686866395e-01	-8.925391554e-03	5.882422772e-12
3.820000000e+00	4.682008783e-01	-8.945156402e-03	2.601656412e-11
3.830000000e+00	4.677166228e-01	-8.964934242e-03	1.363690354e-11
3.840000000e+00	4.672338652e-01	-8.984725075e-03	2.546672337e-11
3.850000000e+00	4.667525979e-01	-9.004528891e-03	8.689171614e-12
3.860000000e+00	4.662728132e-01	-9.024345685e-03	1.287320620e-11
3.870000000e+00	4.657945036e-01	-9.044175448e-03	4.180350655e-11
3.880000000e+00	4.653176614e-01	-9.064018181e-03	1.071055025e-11
3.890000000e+00	4.648422792e-01	-9.083873872e-03	9.411575112e-12
3.900000000e+00	4.643683496e-01	-9.103742516e-03	9.638061421e-12
3.910000000e+00	4.638958652e-01	-9.123624108e-03	1.023499870e-11
3.920000000e+00	4.634248186e-01	-9.143518641e-03	8.932735711e-12
3.930000000e+00	4.629552027e-01	-9.163426109e-03	6.179699720e-12
3.940000000e+00	4.624870102e-01	-9.183346507e-03	2.791152312e-11
3.950000000e+00	4.620202339e-01	-9.203279827e-03	1.298438950e-11
3.960000000e+00	4.615548667e-01	-9.223226064e-03	9.858461695e-12
3.970000000e+00	4.610909015e-01	-9.243185213e-03	8.942674733e-12
3.980000000e+00	4.606283313e-01	-9.263157266e-03	8.188765763e-12
3.990000000e+00	4.601671492e-01	-9.283142218e-03	1.529850484e-11
4.000000000e+00	4.597073482e-01	-9.303140064e-03	7.309815322e-12
4.010000000e+00	4.592489214e-01	-9.323150798e-03	1.486694590e-10
4.020000000e+00	4.587918621e-01	-9.343174405e-03	2.624350302e-11
4.030000000e+00	4.583361634e-01	-9.363210892e-03	9.639534325e-12
4.040000000e+00	4.578818186e-01	-9.383260247e-03	1.011442171e-11
