# kz [1/micrones]     Omega [THz]    log10(|det|)     , $\mu_c$ = 0.6000 eV, modo = 1, R = 0.65$\mu$m, $\eta$ = 0.95, solve_det_conkz.py
1.00000000000e-02	1.89707006861e+03	-2.20969154270e+00
2.00000000000e-02	1.89707050805e+03	-2.20968974429e+00
3.00000000000e-02	1.89707124233e+03	-2.20968674691e+00
4.00000000000e-02	1.89707227135e+03	-2.20968255053e+00
5.00000000000e-02	1.89707359149e+03	-2.20967715510e+00
6.00000000000e-02	1.89707520563e+03	-2.20967056054e+00
7.00000000000e-02	1.89707711451e+03	-2.20966276677e+00
8.00000000000e-02	1.89707931505e+03	-2.20965377370e+00
9.00000000000e-02	1.89708181153e+03	-2.20964358122e+00
1.00000000000e-01	1.89708459882e+03	-2.20963218918e+00
1.10000000000e-01	1.89708768224e+03	-2.20961959746e+00
1.20000000000e-01	1.89709105842e+03	-2.20960580589e+00
1.30000000000e-01	1.89709472877e+03	-2.20959081430e+00
1.40000000000e-01	1.89709869349e+03	-2.20957462251e+00
1.50000000000e-01	1.89710294796e+03	-2.20955723030e+00
1.60000000000e-01	1.89710749923e+03	-2.20953863745e+00
1.70000000000e-01	1.89711234526e+03	-2.20951884374e+00
1.80000000000e-01	1.89711748177e+03	-2.20949784892e+00
1.90000000000e-01	1.89712291238e+03	-2.20947565272e+00
2.00000000000e-01	1.89712863767e+03	-2.20945225486e+00
2.10000000000e-01	1.89713465641e+03	-2.20942765504e+00
2.20000000000e-01	1.89714096687e+03	-2.20940185297e+00
2.30000000000e-01	1.89714757217e+03	-2.20937484830e+00
2.40000000000e-01	1.89715447166e+03	-2.20934664071e+00
2.50000000000e-01	1.89716166491e+03	-2.20931722983e+00
2.60000000000e-01	1.89716914954e+03	-2.20928661530e+00
2.70000000000e-01	1.89717692910e+03	-2.20925479672e+00
2.80000000000e-01	1.89718500235e+03	-2.20922177371e+00
2.90000000000e-01	1.89719336893e+03	-2.20918754583e+00
3.00000000000e-01	1.89720202813e+03	-2.20915211266e+00
3.10000000000e-01	1.89721098174e+03	-2.20911547376e+00
3.20000000000e-01	1.89722023121e+03	-2.20907762865e+00
3.30000000000e-01	1.89722977048e+03	-2.20903857686e+00
3.40000000000e-01	1.89723960452e+03	-2.20899831790e+00
3.50000000000e-01	1.89724973121e+03	-2.20895685125e+00
3.60000000000e-01	1.89726015344e+03	-2.20891417640e+00
3.70000000000e-01	1.89727086728e+03	-2.20887029279e+00
3.80000000000e-01	1.89728187516e+03	-2.20882519989e+00
3.90000000000e-01	1.89729317642e+03	-2.20877889711e+00
4.00000000000e-01	1.89730477212e+03	-2.20873138386e+00
4.10000000000e-01	1.89731665910e+03	-2.20868265955e+00
4.20000000000e-01	1.89732884160e+03	-2.20863272356e+00
4.30000000000e-01	1.89734131680e+03	-2.20858157525e+00
4.40000000000e-01	1.89735408550e+03	-2.20852921397e+00
4.50000000000e-01	1.89736714841e+03	-2.20847563906e+00
4.60000000000e-01	1.89738050332e+03	-2.20842084984e+00
4.70000000000e-01	1.89739415289e+03	-2.20836484561e+00
4.80000000000e-01	1.89740809573e+03	-2.20830762565e+00
4.90000000000e-01	1.89742233077e+03	-2.20824918924e+00
5.00000000000e-01	1.89743685864e+03	-2.20818953564e+00
5.10000000000e-01	1.89745168209e+03	-2.20812866408e+00
5.20000000000e-01	1.89746679820e+03	-2.20806657378e+00
5.30000000000e-01	1.89748220849e+03	-2.20800326397e+00
5.40000000000e-01	1.89749791013e+03	-2.20793873381e+00
5.50000000000e-01	1.89751390556e+03	-2.20787298250e+00
5.60000000000e-01	1.89753019342e+03	-2.20780600918e+00
5.70000000000e-01	1.89754677553e+03	-2.20773781301e+00
5.80000000000e-01	1.89756365256e+03	-2.20766839311e+00
5.90000000000e-01	1.89758082151e+03	-2.20759774859e+00
6.00000000000e-01	1.89759828460e+03	-2.20752587854e+00
6.10000000000e-01	1.89761603998e+03	-2.20745278205e+00
6.20000000000e-01	1.89763408899e+03	-2.20737845816e+00
6.30000000000e-01	1.89765243153e+03	-2.20730290594e+00
6.40000000000e-01	1.89767106692e+03	-2.20722612440e+00
6.50000000000e-01	1.89768999412e+03	-2.20714811256e+00
6.60000000000e-01	1.89770921664e+03	-2.20706886942e+00
6.70000000000e-01	1.89772873133e+03	-2.20698839394e+00
6.80000000000e-01	1.89774854031e+03	-2.20690668510e+00
6.90000000000e-01	1.89776864211e+03	-2.20682374184e+00
7.00000000000e-01	1.89778903687e+03	-2.20673956309e+00
7.10000000000e-01	1.89780972615e+03	-2.20665414775e+00
7.20000000000e-01	1.89783070420e+03	-2.20656749473e+00
7.30000000000e-01	1.89785197951e+03	-2.20647960290e+00
7.40000000000e-01	1.89787354679e+03	-2.20639047112e+00
7.50000000000e-01	1.89789540692e+03	-2.20630009823e+00
7.60000000000e-01	1.89791756072e+03	-2.20620848307e+00
7.70000000000e-01	1.89794000890e+03	-2.20611562444e+00
7.80000000000e-01	1.89796274724e+03	-2.20602152113e+00
7.90000000000e-01	1.89798577852e+03	-2.20592617191e+00
8.00000000000e-01	1.89800910567e+03	-2.20582957555e+00
8.10000000000e-01	1.89803272512e+03	-2.20573173079e+00
8.20000000000e-01	1.89805663687e+03	-2.20563263634e+00
8.30000000000e-01	1.89808084115e+03	-2.20553229091e+00
8.40000000000e-01	1.89810533831e+03	-2.20543069319e+00
8.50000000000e-01	1.89813012926e+03	-2.20532784184e+00
8.60000000000e-01	1.89815521473e+03	-2.20522373552e+00
8.70000000000e-01	1.89818059001e+03	-2.20511837287e+00
8.80000000000e-01	1.89820626156e+03	-2.20501175249e+00
8.90000000000e-01	1.89823222272e+03	-2.20490387299e+00
9.00000000000e-01	1.89825847766e+03	-2.20479473295e+00
9.10000000000e-01	1.89828502714e+03	-2.20468433092e+00
9.20000000000e-01	1.89831186833e+03	-2.20457266545e+00
9.30000000000e-01	1.89833900216e+03	-2.20445973507e+00
9.40000000000e-01	1.89836642897e+03	-2.20434553827e+00
9.50000000000e-01	1.89839414966e+03	-2.20423007356e+00
9.60000000000e-01	1.89842216284e+03	-2.20411333940e+00
9.70000000000e-01	1.89845046700e+03	-2.20399533424e+00
9.80000000000e-01	1.89847906473e+03	-2.20387605652e+00
9.90000000000e-01	1.89850795684e+03	-2.20375550464e+00
1.00000000000e+00	1.89853713866e+03	-2.20363367701e+00
1.01000000000e+00	1.89856661587e+03	-2.20351057199e+00
1.02000000000e+00	1.89859638651e+03	-2.20338618795e+00
1.03000000000e+00	1.89862644812e+03	-2.20326052323e+00
1.04000000000e+00	1.89865680235e+03	-2.20313357613e+00
1.05000000000e+00	1.89868744845e+03	-2.20300534497e+00
1.06000000000e+00	1.89871838894e+03	-2.20287582802e+00
1.07000000000e+00	1.89874962029e+03	-2.20274502354e+00
1.08000000000e+00	1.89878114464e+03	-2.20261292978e+00
1.09000000000e+00	1.89881296350e+03	-2.20247954495e+00
1.10000000000e+00	1.89884507425e+03	-2.20234486726e+00
1.11000000000e+00	1.89887747626e+03	-2.20220889489e+00
1.12000000000e+00	1.89891017204e+03	-2.20207162601e+00
1.13000000000e+00	1.89894316001e+03	-2.20193305874e+00
1.14000000000e+00	1.89897644036e+03	-2.20179319122e+00
1.15000000000e+00	1.89901001182e+03	-2.20165202155e+00
1.16000000000e+00	1.89904387751e+03	-2.20150954780e+00
1.17000000000e+00	1.89907803527e+03	-2.20136576805e+00
1.18000000000e+00	1.89911248514e+03	-2.20122068033e+00
1.19000000000e+00	1.89914722780e+03	-2.20107428265e+00
1.20000000000e+00	1.89918226240e+03	-2.20092657303e+00
1.21000000000e+00	1.89921758932e+03	-2.20077754943e+00
1.22000000000e+00	1.89925320909e+03	-2.20062720981e+00
1.23000000000e+00	1.89928912033e+03	-2.20047555212e+00
1.24000000000e+00	1.89932532442e+03	-2.20032257427e+00
1.25000000000e+00	1.89936182170e+03	-2.20016827414e+00
1.26000000000e+00	1.89939860919e+03	-2.20001264961e+00
1.27000000000e+00	1.89943569210e+03	-2.19985569854e+00
1.28000000000e+00	1.89947306373e+03	-2.19969741875e+00
1.29000000000e+00	1.89951072833e+03	-2.19953780805e+00
1.30000000000e+00	1.89954868664e+03	-2.19937686423e+00
1.31000000000e+00	1.89958693619e+03	-2.19921458504e+00
1.32000000000e+00	1.89962547771e+03	-2.19905096824e+00
1.33000000000e+00	1.89966431104e+03	-2.19888601153e+00
1.34000000000e+00	1.89970343583e+03	-2.19871971262e+00
1.35000000000e+00	1.89974285442e+03	-2.19855206918e+00
1.36000000000e+00	1.89978256326e+03	-2.19838307886e+00
1.37000000000e+00	1.89982256383e+03	-2.19821273929e+00
1.38000000000e+00	1.89986285971e+03	-2.19804104809e+00
1.39000000000e+00	1.89990344516e+03	-2.19786800282e+00
1.40000000000e+00	1.89994432316e+03	-2.19769360105e+00
1.41000000000e+00	1.89998549144e+03	-2.19751784031e+00
1.42000000000e+00	1.90002695134e+03	-2.19734071813e+00
1.43000000000e+00	1.90006870519e+03	-2.19716223198e+00
1.44000000000e+00	1.90011074856e+03	-2.19698237934e+00
1.45000000000e+00	1.90015308619e+03	-2.19680115764e+00
1.46000000000e+00	1.90019571612e+03	-2.19661856431e+00
1.47000000000e+00	1.90023863549e+03	-2.19643459674e+00
1.48000000000e+00	1.90028184676e+03	-2.19624925229e+00
1.49000000000e+00	1.90032535066e+03	-2.19606252832e+00
1.50000000000e+00	1.90036914728e+03	-2.19587442213e+00
1.51000000000e+00	1.90041323229e+03	-2.19568493103e+00
1.52000000000e+00	1.90045761283e+03	-2.19549405230e+00
1.53000000000e+00	1.90050228166e+03	-2.19530178316e+00
1.54000000000e+00	1.90054724271e+03	-2.19510812085e+00
1.55000000000e+00	1.90059249582e+03	-2.19491306255e+00
1.56000000000e+00	1.90063804312e+03	-2.19471660544e+00
1.57000000000e+00	1.90068387757e+03	-2.19451874666e+00
1.58000000000e+00	1.90073000448e+03	-2.19431948333e+00
1.59000000000e+00	1.90077642460e+03	-2.19411881254e+00
1.60000000000e+00	1.90082313334e+03	-2.19391673135e+00
1.61000000000e+00	1.90087013566e+03	-2.19371323681e+00
1.62000000000e+00	1.90091742949e+03	-2.19350832592e+00
1.63000000000e+00	1.90096501342e+03	-2.19330199567e+00
1.64000000000e+00	1.90101288891e+03	-2.19309424301e+00
1.65000000000e+00	1.90106105621e+03	-2.19288506489e+00
1.66000000000e+00	1.90110951341e+03	-2.19267445820e+00
1.67000000000e+00	1.90115826310e+03	-2.19246241981e+00
1.68000000000e+00	1.90120730229e+03	-2.19224894659e+00
1.69000000000e+00	1.90125663507e+03	-2.19203403534e+00
1.70000000000e+00	1.90130625705e+03	-2.19181768287e+00
1.71000000000e+00	1.90135617038e+03	-2.19159988592e+00
1.72000000000e+00	1.90140637648e+03	-2.19138064125e+00
1.73000000000e+00	1.90145687149e+03	-2.19115994556e+00
1.74000000000e+00	1.90150766003e+03	-2.19093779552e+00
1.75000000000e+00	1.90155873611e+03	-2.19071418779e+00
1.76000000000e+00	1.90161010577e+03	-2.19048911898e+00
1.77000000000e+00	1.90166176267e+03	-2.19026258568e+00
1.78000000000e+00	1.90171371496e+03	-2.19003458446e+00
1.79000000000e+00	1.90176595488e+03	-2.18980511184e+00
1.80000000000e+00	1.90181848741e+03	-2.18957416433e+00
1.81000000000e+00	1.90187130939e+03	-2.18934173840e+00
1.82000000000e+00	1.90192442300e+03	-2.18910783048e+00
1.83000000000e+00	1.90197782853e+03	-2.18887243698e+00
1.84000000000e+00	1.90203152254e+03	-2.18863555428e+00
1.85000000000e+00	1.90208550735e+03	-2.18839717873e+00
1.86000000000e+00	1.90213978190e+03	-2.18815730664e+00
1.87000000000e+00	1.90219434925e+03	-2.18791593430e+00
1.88000000000e+00	1.90224920656e+03	-2.18767305794e+00
1.89000000000e+00	1.90230435316e+03	-2.18742867381e+00
1.90000000000e+00	1.90235979147e+03	-2.18718277807e+00
1.91000000000e+00	1.90241552240e+03	-2.18693536689e+00
1.92000000000e+00	1.90247153986e+03	-2.18668643638e+00
1.93000000000e+00	1.90252784957e+03	-2.18643598262e+00
1.94000000000e+00	1.90258444761e+03	-2.18618400169e+00
1.95000000000e+00	1.90264133678e+03	-2.18593048959e+00
1.96000000000e+00	1.90269851764e+03	-2.18567544230e+00
1.97000000000e+00	1.90275598723e+03	-2.18541885579e+00
1.98000000000e+00	1.90281374728e+03	-2.18516072597e+00
1.99000000000e+00	1.90287179812e+03	-2.18490104872e+00
2.00000000000e+00	1.90293013888e+03	-2.18463981989e+00
2.01000000000e+00	1.90298876890e+03	-2.18437703529e+00
2.02000000000e+00	1.90304768818e+03	-2.18411269069e+00
2.03000000000e+00	1.90310689969e+03	-2.18384678184e+00
2.04000000000e+00	1.90316639866e+03	-2.18357930444e+00
2.05000000000e+00	1.90322618876e+03	-2.18331025416e+00
2.06000000000e+00	1.90328627073e+03	-2.18303962663e+00
2.07000000000e+00	1.90334664103e+03	-2.18276741744e+00
2.08000000000e+00	1.90340730042e+03	-2.18249362215e+00
2.09000000000e+00	1.90346824963e+03	-2.18221823627e+00
2.10000000000e+00	1.90352949045e+03	-2.18194125530e+00
2.11000000000e+00	1.90359101866e+03	-2.18166267466e+00
2.12000000000e+00	1.90365283612e+03	-2.18138248976e+00
2.13000000000e+00	1.90371494416e+03	-2.18110069598e+00
2.14000000000e+00	1.90377734251e+03	-2.18081728862e+00
2.15000000000e+00	1.90384002837e+03	-2.18053226299e+00
2.16000000000e+00	1.90390300708e+03	-2.18024561431e+00
2.17000000000e+00	1.90396627371e+03	-2.17995733781e+00
2.18000000000e+00	1.90402982828e+03	-2.17966742864e+00
2.19000000000e+00	1.90409367437e+03	-2.17937588193e+00
2.20000000000e+00	1.90415780881e+03	-2.17908269276e+00
2.21000000000e+00	1.90422223084e+03	-2.17878785617e+00
2.22000000000e+00	1.90428694385e+03	-2.17849136716e+00
2.23000000000e+00	1.90435194781e+03	-2.17819322069e+00
2.24000000000e+00	1.90441723708e+03	-2.17789341166e+00
2.25000000000e+00	1.90448281728e+03	-2.17759193496e+00
2.26000000000e+00	1.90454868779e+03	-2.17728878540e+00
2.27000000000e+00	1.90461484633e+03	-2.17698395777e+00
2.28000000000e+00	1.90468129257e+03	-2.17667744681e+00
2.29000000000e+00	1.90474802992e+03	-2.17636924722e+00
2.30000000000e+00	1.90481505379e+03	-2.17605935363e+00
2.31000000000e+00	1.90488236882e+03	-2.17574776066e+00
2.32000000000e+00	1.90494997044e+03	-2.17543446286e+00
2.33000000000e+00	1.90501786258e+03	-2.17511945475e+00
2.34000000000e+00	1.90508604313e+03	-2.17480273079e+00
2.35000000000e+00	1.90515451072e+03	-2.17448428539e+00
2.36000000000e+00	1.90522326944e+03	-2.17416411294e+00
2.37000000000e+00	1.90529231579e+03	-2.17384220774e+00
2.38000000000e+00	1.90536164962e+03	-2.17351856407e+00
2.39000000000e+00	1.90543127415e+03	-2.17319317617e+00
2.40000000000e+00	1.90550118374e+03	-2.17286603820e+00
2.41000000000e+00	1.90557138623e+03	-2.17253714429e+00
2.42000000000e+00	1.90564187454e+03	-2.17220648851e+00
2.43000000000e+00	1.90571264946e+03	-2.17187406490e+00
2.44000000000e+00	1.90578371522e+03	-2.17153986743e+00
2.45000000000e+00	1.90585506831e+03	-2.17120389001e+00
2.46000000000e+00	1.90592671090e+03	-2.17086612652e+00
2.47000000000e+00	1.90599863877e+03	-2.17052657078e+00
2.48000000000e+00	1.90607085612e+03	-2.17018521656e+00
2.49000000000e+00	1.90614336248e+03	-2.16984205756e+00
2.50000000000e+00	1.90621615634e+03	-2.16949708744e+00
