# mu [eV]     Omega/c [1/micrones]    Im(epsi1)     Eq(det).Opt det con kz, R=0.5 \mum, Re(epsi1)=3.90, kz = 0.1300 1/\mum, solve_det_conkz_vs_mu.py
3.000000000e-01	2.321647677e-01	-2.826014859e-02	8.051688293e-13
3.002000000e-01	2.322424094e-01	-2.823850450e-02	7.183492263e-13
3.003000000e-01	2.322812204e-01	-2.822769529e-02	4.604230129e-13
3.004000000e-01	2.323200249e-01	-2.821689461e-02	2.318889103e-12
3.006000000e-01	2.323976144e-01	-2.819531885e-02	9.265881259e-13
3.008000000e-01	2.324751779e-01	-2.817377714e-02	1.861657422e-12
3.010000000e-01	2.325527153e-01	-2.815226939e-02	5.453465037e-13
3.011000000e-01	2.325914743e-01	-2.814152823e-02	2.128370500e-12
3.012000000e-01	2.326302267e-01	-2.813079554e-02	2.035777425e-12
3.013000000e-01	2.326689727e-01	-2.812007130e-02	4.529757844e-13
3.014000000e-01	2.327077122e-01	-2.810935550e-02	1.431590279e-12
3.017000000e-01	2.328238917e-01	-2.807725868e-02	6.225577275e-13
3.018000000e-01	2.328626052e-01	-2.806657657e-02	8.332611055e-13
3.019000000e-01	2.329013123e-01	-2.805590285e-02	7.174619722e-13
3.021000000e-01	2.329787070e-01	-2.803458056e-02	7.118823458e-13
3.022000000e-01	2.330173947e-01	-2.802393197e-02	4.674235411e-13
3.023000000e-01	2.330560759e-01	-2.801329174e-02	3.465335505e-13
3.026000000e-01	2.331720807e-01	-2.798142110e-02	2.985605519e-13
3.027000000e-01	2.332107361e-01	-2.797081420e-02	1.102072330e-12
3.029000000e-01	2.332880275e-01	-2.794962534e-02	4.021822827e-13
3.031000000e-01	2.333652932e-01	-2.792846964e-02	1.726029718e-12
3.032000000e-01	2.334039164e-01	-2.791790421e-02	4.272425063e-12
3.034000000e-01	2.334811435e-01	-2.789679812e-02	1.070649170e-12
3.035000000e-01	2.335197474e-01	-2.788625745e-02	1.044709731e-12
3.036000000e-01	2.335583449e-01	-2.787572501e-02	6.561848480e-13
3.038000000e-01	2.336355206e-01	-2.785468481e-02	4.087607944e-13
3.039000000e-01	2.336740988e-01	-2.784417703e-02	7.296070562e-13
3.040000000e-01	2.337126707e-01	-2.783367744e-02	3.245273251e-13
3.041000000e-01	2.337512361e-01	-2.782318604e-02	5.958140653e-13
3.042000000e-01	2.337897951e-01	-2.781270282e-02	8.461441056e-13
3.043000000e-01	2.338283478e-01	-2.780222778e-02	2.188371070e-12
3.044000000e-01	2.338668940e-01	-2.779176089e-02	1.361958876e-12
3.045000000e-01	2.339054338e-01	-2.778130216e-02	1.112939100e-12
3.046000000e-01	2.339439673e-01	-2.777085157e-02	1.393548002e-13
3.047000000e-01	2.339824944e-01	-2.776040911e-02	5.487593754e-14
3.048000000e-01	2.340210150e-01	-2.774997478e-02	5.321462922e-13
3.049000000e-01	2.340595293e-01	-2.773954857e-02	1.175943841e-12
3.050000000e-01	2.340980373e-01	-2.772913046e-02	6.505757905e-13
3.051000000e-01	2.341365388e-01	-2.771872044e-02	4.653472170e-12
3.052000000e-01	2.341750340e-01	-2.770831852e-02	1.681444368e-12
3.053000000e-01	2.342135228e-01	-2.769792467e-02	6.691940068e-13
3.054000000e-01	2.342520053e-01	-2.768753890e-02	7.342521818e-13
3.055000000e-01	2.342904814e-01	-2.767716118e-02	6.197159319e-13
3.056000000e-01	2.343289511e-01	-2.766679152e-02	2.512173470e-13
3.057000000e-01	2.343674145e-01	-2.765642990e-02	9.679573644e-13
3.058000000e-01	2.344058715e-01	-2.764607631e-02	1.113697433e-12
3.059000000e-01	2.344443222e-01	-2.763573075e-02	1.055775865e-12
3.060000000e-01	2.344827665e-01	-2.762539321e-02	1.268960709e-12
3.061000000e-01	2.345212045e-01	-2.761506367e-02	1.294515566e-12
3.062000000e-01	2.345596361e-01	-2.760474213e-02	6.458202784e-13
3.063000000e-01	2.345980615e-01	-2.759442857e-02	1.266285852e-12
3.064000000e-01	2.346364804e-01	-2.758412300e-02	4.515806180e-12
3.065000000e-01	2.346748931e-01	-2.757382540e-02	5.726266157e-13
3.067000000e-01	2.347516994e-01	-2.755325407e-02	1.005373994e-12
3.068000000e-01	2.347900931e-01	-2.754298033e-02	4.760309524e-13
3.069000000e-01	2.348284805e-01	-2.753271452e-02	1.725163853e-12
3.070000000e-01	2.348668615e-01	-2.752245664e-02	2.310456569e-12
3.071000000e-01	2.349052362e-01	-2.751220668e-02	4.492706054e-13
3.073000000e-01	2.349819668e-01	-2.749173046e-02	1.533427455e-12
3.074000000e-01	2.350203226e-01	-2.748150420e-02	1.617674438e-12
3.076000000e-01	2.350970154e-01	-2.746107531e-02	1.029443149e-12
3.077000000e-01	2.351353523e-01	-2.745087266e-02	4.223971538e-13
3.078000000e-01	2.351736829e-01	-2.744067787e-02	7.640198679e-13
3.080000000e-01	2.352503254e-01	-2.742031183e-02	5.743043809e-13
3.081000000e-01	2.352886372e-01	-2.741014055e-02	1.635438657e-13
3.082000000e-01	2.353269427e-01	-2.739997710e-02	1.080723065e-13
3.083000000e-01	2.353652419e-01	-2.738982146e-02	9.867385475e-13
3.084000000e-01	2.354035349e-01	-2.737967362e-02	7.077833503e-13
3.085000000e-01	2.354418216e-01	-2.736953357e-02	2.433332531e-12
3.086000000e-01	2.354801020e-01	-2.735940132e-02	4.445289720e-13
3.087000000e-01	2.355183762e-01	-2.734927684e-02	1.185949277e-12
3.088000000e-01	2.355566441e-01	-2.733916012e-02	1.411584881e-12
3.089000000e-01	2.355949057e-01	-2.732905117e-02	3.643208162e-13
3.090000000e-01	2.356331611e-01	-2.731894997e-02	1.632338176e-12
3.091000000e-01	2.356714103e-01	-2.730885651e-02	3.265820702e-13
3.092000000e-01	2.357096532e-01	-2.729877079e-02	1.247663632e-12
3.094000000e-01	2.357861203e-01	-2.727862251e-02	1.406558524e-12
3.095000000e-01	2.358243444e-01	-2.726855994e-02	4.395279295e-13
3.096000000e-01	2.358625624e-01	-2.725850507e-02	8.566775073e-13
3.097000000e-01	2.359007741e-01	-2.724845789e-02	6.807981909e-13
3.099000000e-01	2.359771788e-01	-2.722838656e-02	1.966918664e-12
3.100000000e-01	2.360153719e-01	-2.721836240e-02	6.921631657e-13
3.101000000e-01	2.360535587e-01	-2.720834590e-02	6.553864060e-13
3.103000000e-01	2.361299137e-01	-2.718833584e-02	9.916397316e-13
3.105000000e-01	2.362062438e-01	-2.716835630e-02	5.988747074e-13
3.106000000e-01	2.362443995e-01	-2.715837796e-02	1.752299515e-12
3.107000000e-01	2.362825491e-01	-2.714840723e-02	6.321880379e-13
3.109000000e-01	2.363588296e-01	-2.712848854e-02	1.363993722e-12
3.111000000e-01	2.364350853e-01	-2.710860019e-02	8.878050909e-13
3.112000000e-01	2.364732039e-01	-2.709866736e-02	5.473813914e-13
3.113000000e-01	2.365113163e-01	-2.708874209e-02	1.338336476e-12
3.116000000e-01	2.366256165e-01	-2.705901153e-02	1.262843919e-12
3.118000000e-01	2.367017857e-01	-2.703922879e-02	3.986458491e-13
3.119000000e-01	2.367398610e-01	-2.702934868e-02	1.135414838e-12
3.121000000e-01	2.368159933e-01	-2.700961095e-02	1.834003107e-12
3.122000000e-01	2.368540501e-01	-2.699975332e-02	1.146959024e-12
3.123000000e-01	2.368921009e-01	-2.698990315e-02	1.950160776e-12
3.124000000e-01	2.369301454e-01	-2.698006046e-02	1.946817882e-12
3.126000000e-01	2.370062161e-01	-2.696039742e-02	1.428738689e-12
3.127000000e-01	2.370442423e-01	-2.695057707e-02	8.367878587e-13
3.128000000e-01	2.370822623e-01	-2.694076415e-02	9.059996869e-13
3.129000000e-01	2.371202761e-01	-2.693095866e-02	1.290262353e-12
3.130000000e-01	2.371582838e-01	-2.692116058e-02	2.624109861e-12
3.131000000e-01	2.371962854e-01	-2.691136991e-02	2.652682497e-12
3.132000000e-01	2.372342809e-01	-2.690158664e-02	5.394679488e-13
3.134000000e-01	2.373102534e-01	-2.688204227e-02	4.392226161e-13
3.136000000e-01	2.373862015e-01	-2.686252740e-02	1.603003667e-13
3.138000000e-01	2.374621251e-01	-2.684304197e-02	7.862175834e-13
3.139000000e-01	2.375000778e-01	-2.683331028e-02	2.444964280e-13
3.140000000e-01	2.375380243e-01	-2.682358592e-02	9.621223372e-13
3.142000000e-01	2.376138991e-01	-2.680415917e-02	2.156655318e-12
3.144000000e-01	2.376897495e-01	-2.678476167e-02	6.587216658e-13
3.145000000e-01	2.377276655e-01	-2.677507387e-02	1.693724153e-12
3.146000000e-01	2.377655755e-01	-2.676539336e-02	1.426046668e-12
3.147000000e-01	2.378034794e-01	-2.675572012e-02	2.602102073e-12
3.151000000e-01	2.379550342e-01	-2.671709982e-02	6.530513382e-14
3.152000000e-01	2.379929077e-01	-2.670746286e-02	1.639243660e-12
3.153000000e-01	2.380307751e-01	-2.669783314e-02	3.253113980e-12
3.154000000e-01	2.380686365e-01	-2.668821064e-02	8.828638158e-13
3.156000000e-01	2.381443411e-01	-2.666898728e-02	1.501499467e-13
3.157000000e-01	2.381821843e-01	-2.665938641e-02	5.322050244e-13
3.158000000e-01	2.382200214e-01	-2.664979273e-02	1.724317775e-12
3.159000000e-01	2.382578525e-01	-2.664020623e-02	1.972031361e-12
3.160000000e-01	2.382956776e-01	-2.663062691e-02	1.817211298e-12
3.161000000e-01	2.383334966e-01	-2.662105476e-02	3.716372623e-13
3.162000000e-01	2.383713095e-01	-2.661148977e-02	2.831911133e-13
3.163000000e-01	2.384091165e-01	-2.660193194e-02	1.185066002e-12
3.165000000e-01	2.384847122e-01	-2.658283771e-02	1.569133650e-12
3.166000000e-01	2.385225010e-01	-2.657330129e-02	6.855840449e-13
3.167000000e-01	2.385602838e-01	-2.656377199e-02	1.620279242e-12
3.168000000e-01	2.385980606e-01	-2.655424981e-02	1.413098448e-12
3.169000000e-01	2.386358314e-01	-2.654473474e-02	5.538945842e-13
3.170000000e-01	2.386735961e-01	-2.653522677e-02	5.674748549e-13
3.171000000e-01	2.387113548e-01	-2.652572589e-02	2.332342472e-12
3.172000000e-01	2.387491075e-01	-2.651623209e-02	5.551881939e-12
3.173000000e-01	2.387868542e-01	-2.650674537e-02	1.359239004e-12
3.174000000e-01	2.388245949e-01	-2.649726572e-02	1.048134488e-12
3.175000000e-01	2.388623296e-01	-2.648779313e-02	3.170465101e-13
3.176000000e-01	2.389000583e-01	-2.647832760e-02	1.286921417e-13
3.177000000e-01	2.389377810e-01	-2.646886911e-02	1.369522803e-12
3.179000000e-01	2.390132083e-01	-2.644997324e-02	1.048826240e-12
3.182000000e-01	2.391263045e-01	-2.642168210e-02	5.639826797e-13
3.183000000e-01	2.391639913e-01	-2.641226573e-02	1.595784344e-12
3.184000000e-01	2.392016720e-01	-2.640285635e-02	7.586963663e-13
3.185000000e-01	2.392393468e-01	-2.639345396e-02	3.333869041e-13
3.186000000e-01	2.392770157e-01	-2.638405854e-02	1.212250219e-12
3.187000000e-01	2.393146785e-01	-2.637467010e-02	4.245173565e-13
3.188000000e-01	2.393523354e-01	-2.636528862e-02	7.459824851e-13
3.189000000e-01	2.393899863e-01	-2.635591410e-02	4.570454795e-13
3.191000000e-01	2.394652703e-01	-2.633718589e-02	4.707660206e-14
3.192000000e-01	2.395029033e-01	-2.632783219e-02	1.214757921e-12
3.193000000e-01	2.395405304e-01	-2.631848541e-02	1.660219358e-12
3.194000000e-01	2.395781515e-01	-2.630914555e-02	6.412400044e-13
3.195000000e-01	2.396157667e-01	-2.629981261e-02	7.562281882e-13
3.198000000e-01	2.397285766e-01	-2.627185516e-02	1.584357363e-12
3.199000000e-01	2.397661681e-01	-2.626254978e-02	8.515150997e-13
3.200000000e-01	2.398037536e-01	-2.625325128e-02	2.557021071e-12
3.201000000e-01	2.398413331e-01	-2.624395964e-02	6.932637811e-13
3.202000000e-01	2.398789067e-01	-2.623467486e-02	1.247670329e-12
3.203000000e-01	2.399164744e-01	-2.622539694e-02	8.986573116e-13
3.204000000e-01	2.399540362e-01	-2.621612586e-02	2.418483609e-13
3.205000000e-01	2.399915921e-01	-2.620686161e-02	7.786085294e-13
3.206000000e-01	2.400291420e-01	-2.619760420e-02	5.149368065e-13
3.207000000e-01	2.400666861e-01	-2.618835361e-02	2.799037752e-13
3.208000000e-01	2.401042242e-01	-2.617910983e-02	1.630862933e-12
3.209000000e-01	2.401417564e-01	-2.616987286e-02	5.283774807e-14
3.210000000e-01	2.401792827e-01	-2.616064269e-02	1.080583824e-12
3.211000000e-01	2.402168031e-01	-2.615141932e-02	1.543461391e-12
3.212000000e-01	2.402543176e-01	-2.614220273e-02	1.025997931e-12
3.213000000e-01	2.402918262e-01	-2.613299292e-02	7.877157196e-13
3.214000000e-01	2.403293289e-01	-2.612378988e-02	6.449085610e-13
3.215000000e-01	2.403668257e-01	-2.611459361e-02	1.352994886e-12
3.216000000e-01	2.404043166e-01	-2.610540409e-02	7.129936349e-13
3.217000000e-01	2.404418016e-01	-2.609622133e-02	1.152990574e-12
3.219000000e-01	2.405167540e-01	-2.607787602e-02	1.270133698e-13
3.223000000e-01	2.406665883e-01	-2.604126608e-02	6.851779812e-13
3.224000000e-01	2.407040322e-01	-2.603213036e-02	7.635033262e-13
3.226000000e-01	2.407789024e-01	-2.601387900e-02	5.416414108e-13
3.227000000e-01	2.408163287e-01	-2.600476334e-02	2.553313034e-12
3.229000000e-01	2.408911638e-01	-2.598655202e-02	1.770940792e-12
3.231000000e-01	2.409659754e-01	-2.596836734e-02	1.065255588e-12
3.232000000e-01	2.410033725e-01	-2.595928496e-02	7.651442117e-13
3.233000000e-01	2.410407637e-01	-2.595020923e-02	5.970444973e-13
3.235000000e-01	2.411155286e-01	-2.593207763e-02	6.187527825e-13
3.236000000e-01	2.411529023e-01	-2.592302176e-02	1.109493338e-12
3.237000000e-01	2.411902701e-01	-2.591397249e-02	1.000167078e-12
3.239000000e-01	2.412649883e-01	-2.589589376e-02	4.645318334e-13
3.240000000e-01	2.413023387e-01	-2.588686428e-02	4.410361528e-13
3.241000000e-01	2.413396833e-01	-2.587784138e-02	9.749884192e-13
3.244000000e-01	2.414516820e-01	-2.585081208e-02	6.031307400e-13
3.245000000e-01	2.414890033e-01	-2.584181543e-02	9.612741014e-13
3.246000000e-01	2.415263188e-01	-2.583282532e-02	5.575413995e-13
3.247000000e-01	2.415636285e-01	-2.582384175e-02	1.201564132e-12
3.248000000e-01	2.416009323e-01	-2.581486472e-02	1.894858648e-13
3.250000000e-01	2.416755227e-01	-2.579693021e-02	2.482290541e-12
3.251000000e-01	2.417128092e-01	-2.578797273e-02	9.593088394e-13
3.252000000e-01	2.417500899e-01	-2.577902175e-02	7.342865312e-13
3.253000000e-01	2.417873648e-01	-2.577007726e-02	3.217571029e-13
3.254000000e-01	2.418246339e-01	-2.576113927e-02	1.376400851e-12
3.255000000e-01	2.418618972e-01	-2.575220776e-02	2.038006062e-13
3.256000000e-01	2.418991547e-01	-2.574328273e-02	1.077825622e-12
3.257000000e-01	2.419364065e-01	-2.573436417e-02	2.328005091e-12
3.258000000e-01	2.419736525e-01	-2.572545207e-02	6.382987544e-13
3.259000000e-01	2.420108927e-01	-2.571654642e-02	7.569956367e-13
3.260000000e-01	2.420481271e-01	-2.570764723e-02	5.099408979e-13
3.263000000e-01	2.421597959e-01	-2.568098827e-02	1.096472331e-12
3.264000000e-01	2.421970072e-01	-2.567211481e-02	3.714785100e-13
3.265000000e-01	2.422342129e-01	-2.566324776e-02	5.851972579e-13
3.268000000e-01	2.423457952e-01	-2.563668504e-02	1.196886075e-12
3.270000000e-01	2.424201547e-01	-2.561900851e-02	6.557533438e-13
3.271000000e-01	2.424573258e-01	-2.561017981e-02	7.839082554e-13
3.272000000e-01	2.424944912e-01	-2.560135748e-02	1.253452762e-12
3.273000000e-01	2.425316509e-01	-2.559254152e-02	1.236944553e-12
3.274000000e-01	2.425688048e-01	-2.558373190e-02	2.936755776e-13
3.275000000e-01	2.426059530e-01	-2.557492864e-02	9.963157249e-13
3.277000000e-01	2.426802322e-01	-2.555734113e-02	7.931867689e-13
3.278000000e-01	2.427173632e-01	-2.554855688e-02	6.221625941e-13
3.279000000e-01	2.427544885e-01	-2.553977894e-02	2.843062004e-13
3.280000000e-01	2.427916080e-01	-2.553100732e-02	4.894690045e-13
3.281000000e-01	2.428287219e-01	-2.552224201e-02	6.633299934e-13
3.282000000e-01	2.428658300e-01	-2.551348300e-02	5.109681644e-13
3.284000000e-01	2.429400292e-01	-2.549598386e-02	4.236298043e-13
3.285000000e-01	2.429771202e-01	-2.548724372e-02	3.104547221e-12
3.286000000e-01	2.430142055e-01	-2.547850986e-02	5.482742348e-13
3.287000000e-01	2.430512851e-01	-2.546978226e-02	1.137038288e-12
3.288000000e-01	2.430883590e-01	-2.546106093e-02	8.188009589e-13
3.289000000e-01	2.431254273e-01	-2.545234585e-02	1.365607121e-12
3.290000000e-01	2.431624898e-01	-2.544363702e-02	3.171465294e-12
3.292000000e-01	2.432365978e-01	-2.542623809e-02	8.303943880e-13
3.293000000e-01	2.432736432e-01	-2.541754797e-02	1.422471073e-12
3.294000000e-01	2.433106830e-01	-2.540886408e-02	6.082013472e-13
3.295000000e-01	2.433477171e-01	-2.540018640e-02	1.681772559e-13
3.296000000e-01	2.433847455e-01	-2.539151494e-02	5.007121674e-13
3.298000000e-01	2.434587854e-01	-2.537419061e-02	8.833756480e-13
3.299000000e-01	2.434957968e-01	-2.536553774e-02	1.823999353e-12
3.300000000e-01	2.435328025e-01	-2.535689106e-02	6.420517828e-13
3.301000000e-01	2.435698026e-01	-2.534825055e-02	9.308366860e-13
3.302000000e-01	2.436067970e-01	-2.533961622e-02	7.110995931e-13
3.303000000e-01	2.436437857e-01	-2.533098805e-02	9.522335435e-13
3.304000000e-01	2.436807688e-01	-2.532236604e-02	4.950333068e-13
3.307000000e-01	2.437916842e-01	-2.529653690e-02	7.032290782e-13
3.308000000e-01	2.438286447e-01	-2.528793946e-02	3.511874905e-14
3.310000000e-01	2.439025488e-01	-2.527076297e-02	1.829794013e-13
3.311000000e-01	2.439394924e-01	-2.526218390e-02	3.966587544e-13
3.313000000e-01	2.440133626e-01	-2.524504407e-02	3.777874379e-13
3.315000000e-01	2.440872103e-01	-2.522792863e-02	4.455553144e-13
3.316000000e-01	2.441241258e-01	-2.521938004e-02	1.037926082e-12
3.317000000e-01	2.441610356e-01	-2.521083752e-02	4.772323090e-13
3.318000000e-01	2.441979397e-01	-2.520230108e-02	8.172929663e-13
3.320000000e-01	2.442717312e-01	-2.518524638e-02	1.430525498e-12
3.322000000e-01	2.443455003e-01	-2.516821588e-02	3.872506738e-13
3.324000000e-01	2.444192469e-01	-2.515120955e-02	7.740159995e-13
3.326000000e-01	2.444929711e-01	-2.513422732e-02	1.233306467e-12
3.327000000e-01	2.445298248e-01	-2.512574523e-02	6.850499814e-13
3.328000000e-01	2.445666729e-01	-2.511726915e-02	1.205735545e-12
3.329000000e-01	2.446035154e-01	-2.510879907e-02	7.585113923e-13
3.330000000e-01	2.446403523e-01	-2.510033499e-02	1.701932433e-12
3.331000000e-01	2.446771837e-01	-2.509187690e-02	3.453318502e-13
3.332000000e-01	2.447140094e-01	-2.508342479e-02	1.623021979e-13
3.333000000e-01	2.447508296e-01	-2.507497866e-02	5.536073950e-13
3.335000000e-01	2.448244532e-01	-2.505810430e-02	5.647369718e-13
3.336000000e-01	2.448612566e-01	-2.504967607e-02	3.207128642e-13
3.337000000e-01	2.448980545e-01	-2.504125379e-02	5.288252134e-13
3.338000000e-01	2.449348468e-01	-2.503283745e-02	6.265561760e-13
3.339000000e-01	2.449716335e-01	-2.502442706e-02	7.251268027e-13
3.340000000e-01	2.450084147e-01	-2.501602260e-02	1.501364356e-12
3.341000000e-01	2.450451903e-01	-2.500762407e-02	9.589466316e-13
3.342000000e-01	2.450819603e-01	-2.499923146e-02	2.719519178e-12
3.343000000e-01	2.451187248e-01	-2.499084477e-02	1.976572448e-13
3.344000000e-01	2.451554837e-01	-2.498246399e-02	5.199692019e-13
3.345000000e-01	2.451922371e-01	-2.497408911e-02	6.458747546e-13
3.348000000e-01	2.453024639e-01	-2.494899985e-02	3.565215678e-13
3.349000000e-01	2.453391950e-01	-2.494064853e-02	3.766824551e-13
3.350000000e-01	2.453759207e-01	-2.493230308e-02	1.068848229e-14
3.351000000e-01	2.454126408e-01	-2.492396351e-02	1.830990214e-12
3.353000000e-01	2.454860644e-01	-2.490730193e-02	5.773701635e-13
3.355000000e-01	2.455594659e-01	-2.489066376e-02	2.435058833e-13
3.356000000e-01	2.455961583e-01	-2.488235343e-02	4.768331069e-13
3.357000000e-01	2.456328452e-01	-2.487404894e-02	9.016246401e-13
3.361000000e-01	2.457795378e-01	-2.484088917e-02	2.226850171e-13
3.362000000e-01	2.458161971e-01	-2.483261375e-02	4.039849749e-13
3.363000000e-01	2.458528510e-01	-2.482434413e-02	8.220833015e-13
3.364000000e-01	2.458894993e-01	-2.481608029e-02	1.092562422e-12
3.365000000e-01	2.459261421e-01	-2.480782225e-02	2.304754131e-13
3.367000000e-01	2.459994113e-01	-2.479132348e-02	5.689420809e-13
3.368000000e-01	2.460360376e-01	-2.478308275e-02	6.356217547e-13
3.369000000e-01	2.460726585e-01	-2.477484778e-02	5.661648111e-13
3.372000000e-01	2.461824880e-01	-2.475017739e-02	5.891829020e-13
3.374000000e-01	2.462556803e-01	-2.473375916e-02	1.254113983e-12
3.375000000e-01	2.462922683e-01	-2.472555864e-02	1.811521619e-12
3.376000000e-01	2.463288507e-01	-2.471736384e-02	1.216930427e-12
3.377000000e-01	2.463654277e-01	-2.470917476e-02	2.482234082e-12
3.378000000e-01	2.464019992e-01	-2.470099138e-02	8.014656267e-13
3.381000000e-01	2.465116809e-01	-2.467647544e-02	6.745344244e-13
3.382000000e-01	2.465482306e-01	-2.466831485e-02	5.420547088e-13
3.383000000e-01	2.465847747e-01	-2.466015993e-02	5.683232252e-13
3.384000000e-01	2.466213135e-01	-2.465201068e-02	3.954904902e-13
3.385000000e-01	2.466578467e-01	-2.464386711e-02	7.004086643e-13
3.386000000e-01	2.466943746e-01	-2.463572919e-02	1.457722276e-12
3.387000000e-01	2.467308969e-01	-2.462759694e-02	1.470187451e-12
3.388000000e-01	2.467674138e-01	-2.461947033e-02	6.098288130e-13
3.390000000e-01	2.468404314e-01	-2.460323406e-02	4.172949463e-13
3.392000000e-01	2.469134271e-01	-2.458702032e-02	3.334437225e-13
3.393000000e-01	2.469499168e-01	-2.457892189e-02	7.733892491e-13
3.394000000e-01	2.469864011e-01	-2.457082907e-02	1.898761896e-12
