# mu [eV]     Omega/c [1/micrones]    Im(epsi1)     Eq(det).Opt det con kz, R=0.5 \mum, Re(epsi1)=3.90, kz = 1.0000 1/\mum, solve_det_conkz_vs_mu.py
3.000000000e-01	5.956829798e+00	-8.730511621e-01	1.016233006e-15
3.010000000e-01	5.956823985e+00	-8.730463957e-01	3.668340317e-16
3.020000000e-01	5.956818118e+00	-8.730415903e-01	9.111642011e-16
3.030000000e-01	5.956812199e+00	-8.730367456e-01	7.553274090e-16
3.040000000e-01	5.956806225e+00	-8.730318612e-01	7.038745327e-16
3.050000000e-01	5.956800196e+00	-8.730269368e-01	8.012304119e-16
3.060000000e-01	5.956794113e+00	-8.730219720e-01	8.609626430e-16
3.070000000e-01	5.956787975e+00	-8.730169665e-01	1.143463226e-15
3.080000000e-01	5.956781781e+00	-8.730119199e-01	6.642066686e-16
3.090000000e-01	5.956775531e+00	-8.730068318e-01	9.070239212e-16
3.100000000e-01	5.956769224e+00	-8.730017018e-01	1.129901154e-15
3.110000000e-01	5.956762860e+00	-8.729965297e-01	1.207834309e-15
3.120000000e-01	5.956756439e+00	-8.729913149e-01	9.025881763e-16
3.130000000e-01	5.956749960e+00	-8.729860572e-01	1.442638226e-15
3.140000000e-01	5.956743422e+00	-8.729807561e-01	4.747297150e-16
3.150000000e-01	5.956736826e+00	-8.729754112e-01	1.392995236e-15
3.160000000e-01	5.956730170e+00	-8.729700222e-01	1.439977910e-15
3.170000000e-01	5.956723455e+00	-8.729645886e-01	9.089379043e-16
3.180000000e-01	5.956716679e+00	-8.729591100e-01	7.539555586e-16
3.190000000e-01	5.956709843e+00	-8.729535860e-01	1.151273396e-15
3.200000000e-01	5.956702945e+00	-8.729480162e-01	1.474618875e-15
3.210000000e-01	5.956695986e+00	-8.729424001e-01	1.044311504e-15
3.220000000e-01	5.956688964e+00	-8.729367374e-01	5.521365570e-16
3.230000000e-01	5.956681880e+00	-8.729310276e-01	1.100333433e-15
3.240000000e-01	5.956674732e+00	-8.729252702e-01	1.554413111e-15
3.250000000e-01	5.956667521e+00	-8.729194649e-01	9.233478411e-16
3.260000000e-01	5.956660246e+00	-8.729136111e-01	1.212913874e-15
3.270000000e-01	5.956652905e+00	-8.729077084e-01	8.158690374e-16
3.280000000e-01	5.956645500e+00	-8.729017563e-01	6.437079801e-16
3.290000000e-01	5.956638028e+00	-8.728957545e-01	8.748401259e-16
3.300000000e-01	5.956630490e+00	-8.728897023e-01	7.595644759e-16
3.310000000e-01	5.956622885e+00	-8.728835993e-01	1.108183601e-15
3.320000000e-01	5.956615213e+00	-8.728774451e-01	1.053909008e-15
3.330000000e-01	5.956607473e+00	-8.728712391e-01	1.357851470e-15
3.340000000e-01	5.956599664e+00	-8.728649808e-01	1.855374125e-16
3.350000000e-01	5.956591785e+00	-8.728586697e-01	9.814712129e-16
3.360000000e-01	5.956583838e+00	-8.728523054e-01	1.044913590e-15
3.370000000e-01	5.956575819e+00	-8.728458873e-01	1.493619403e-15
3.380000000e-01	5.956567730e+00	-8.728394148e-01	7.056979183e-16
3.390000000e-01	5.956559569e+00	-8.728328875e-01	5.672479963e-16
3.400000000e-01	5.956551337e+00	-8.728263047e-01	1.021140933e-15
3.410000000e-01	5.956543031e+00	-8.728196661e-01	1.051298819e-15
3.420000000e-01	5.956534652e+00	-8.728129709e-01	1.160134080e-15
3.430000000e-01	5.956526199e+00	-8.728062186e-01	1.269703566e-15
3.440000000e-01	5.956517672e+00	-8.727994087e-01	1.160688428e-15
3.450000000e-01	5.956509069e+00	-8.727925406e-01	7.993609258e-16
3.460000000e-01	5.956500391e+00	-8.727856136e-01	9.621874054e-16
3.470000000e-01	5.956491636e+00	-8.727786273e-01	8.026008359e-16
3.480000000e-01	5.956482804e+00	-8.727715809e-01	6.008806874e-16
3.490000000e-01	5.956473894e+00	-8.727644740e-01	7.026031827e-16
3.500000000e-01	5.956464905e+00	-8.727573058e-01	9.555547994e-16
3.510000000e-01	5.956455837e+00	-8.727500758e-01	8.723799856e-16
3.520000000e-01	5.956446690e+00	-8.727427832e-01	1.368003683e-15
3.530000000e-01	5.956437462e+00	-8.727354276e-01	8.878129967e-16
3.540000000e-01	5.956428152e+00	-8.727280081e-01	1.191257492e-15
3.550000000e-01	5.956418761e+00	-8.727205241e-01	8.710559615e-16
3.560000000e-01	5.956409287e+00	-8.727129751e-01	1.291321688e-15
3.570000000e-01	5.956399730e+00	-8.727053602e-01	4.753095253e-16
3.580000000e-01	5.956390088e+00	-8.726976788e-01	7.303235096e-16
3.590000000e-01	5.956380362e+00	-8.726899302e-01	1.312089251e-15
3.600000000e-01	5.956370549e+00	-8.726821136e-01	7.308454792e-16
3.610000000e-01	5.956360651e+00	-8.726742284e-01	9.651776180e-16
3.620000000e-01	5.956350665e+00	-8.726662738e-01	1.165454450e-15
3.630000000e-01	5.956340591e+00	-8.726582491e-01	9.318391653e-16
3.640000000e-01	5.956330429e+00	-8.726501535e-01	9.900692380e-16
3.650000000e-01	5.956320177e+00	-8.726419862e-01	1.282193435e-15
3.660000000e-01	5.956309835e+00	-8.726337465e-01	7.702730569e-16
3.670000000e-01	5.956299401e+00	-8.726254336e-01	1.130791958e-15
3.680000000e-01	5.956288876e+00	-8.726170466e-01	9.737413224e-16
3.690000000e-01	5.956278258e+00	-8.726085848e-01	1.142966943e-15
3.700000000e-01	5.956267546e+00	-8.726000473e-01	8.676881464e-16
3.710000000e-01	5.956256739e+00	-8.725914333e-01	1.529307144e-15
3.720000000e-01	5.956245837e+00	-8.725827419e-01	8.165113200e-16
3.730000000e-01	5.956234839e+00	-8.725739723e-01	8.396666852e-16
3.740000000e-01	5.956223744e+00	-8.725651236e-01	7.921006762e-16
3.750000000e-01	5.956212550e+00	-8.725561949e-01	6.881395687e-16
3.760000000e-01	5.956201258e+00	-8.725471852e-01	9.632060904e-16
3.770000000e-01	5.956189865e+00	-8.725380937e-01	4.683662697e-16
3.780000000e-01	5.956178372e+00	-8.725289194e-01	1.211056675e-15
3.790000000e-01	5.956166777e+00	-8.725196614e-01	1.408118151e-15
3.800000000e-01	5.956155079e+00	-8.725103187e-01	8.296914620e-16
3.810000000e-01	5.956143278e+00	-8.725008903e-01	5.874735152e-16
3.820000000e-01	5.956131372e+00	-8.724913752e-01	1.790626169e-15
3.830000000e-01	5.956119360e+00	-8.724817725e-01	1.065102001e-15
3.840000000e-01	5.956107241e+00	-8.724720810e-01	1.721519621e-15
3.850000000e-01	5.956095015e+00	-8.724622997e-01	9.295459030e-16
3.860000000e-01	5.956082679e+00	-8.724524276e-01	6.097346391e-16
3.870000000e-01	5.956070234e+00	-8.724424635e-01	1.248661156e-15
3.880000000e-01	5.956057679e+00	-8.724324064e-01	8.497805984e-16
3.890000000e-01	5.956045011e+00	-8.724222552e-01	7.792044309e-16
3.900000000e-01	5.956032230e+00	-8.724120087e-01	8.528508584e-16
3.910000000e-01	5.956019334e+00	-8.724016657e-01	4.570754936e-16
3.920000000e-01	5.956006324e+00	-8.723912251e-01	1.280752827e-15
3.930000000e-01	5.955993197e+00	-8.723806856e-01	1.080222783e-15
3.940000000e-01	5.955979953e+00	-8.723700461e-01	1.275145258e-15
3.950000000e-01	5.955966589e+00	-8.723593054e-01	8.228848475e-16
3.960000000e-01	5.955953106e+00	-8.723484620e-01	1.684157821e-15
3.970000000e-01	5.955939502e+00	-8.723375149e-01	1.459950991e-15
3.980000000e-01	5.955925775e+00	-8.723264626e-01	1.168162573e-15
3.990000000e-01	5.955911925e+00	-8.723153038e-01	1.052437466e-15
4.000000000e-01	5.955897950e+00	-8.723040372e-01	1.894319551e-15
4.010000000e-01	5.955883848e+00	-8.722926614e-01	1.151444519e-15
4.020000000e-01	5.955869620e+00	-8.722811750e-01	9.798891277e-16
4.030000000e-01	5.955855262e+00	-8.722695765e-01	1.393005342e-15
4.040000000e-01	5.955840775e+00	-8.722578645e-01	6.740537189e-16
4.050000000e-01	5.955826156e+00	-8.722460376e-01	6.860023892e-16
4.060000000e-01	5.955811404e+00	-8.722340942e-01	5.528500651e-16
4.070000000e-01	5.955796519e+00	-8.722220328e-01	5.031124462e-16
4.080000000e-01	5.955781498e+00	-8.722098518e-01	7.587429496e-16
4.090000000e-01	5.955766339e+00	-8.721975496e-01	1.518209359e-15
4.100000000e-01	5.955751043e+00	-8.721851246e-01	1.262261733e-15
4.110000000e-01	5.955735607e+00	-8.721725751e-01	1.073451999e-15
4.120000000e-01	5.955720029e+00	-8.721598996e-01	1.024554969e-15
4.130000000e-01	5.955704308e+00	-8.721470961e-01	1.018272105e-15
4.140000000e-01	5.955688444e+00	-8.721341631e-01	8.932771633e-16
4.150000000e-01	5.955672433e+00	-8.721210986e-01	1.078361791e-15
4.160000000e-01	5.955656275e+00	-8.721079010e-01	6.060471882e-16
4.170000000e-01	5.955639967e+00	-8.720945682e-01	1.172758099e-15
4.180000000e-01	5.955623509e+00	-8.720810985e-01	1.209629885e-15
4.190000000e-01	5.955606899e+00	-8.720674899e-01	8.327826057e-16
4.200000000e-01	5.955590135e+00	-8.720537405e-01	8.384992570e-16
4.210000000e-01	5.955573215e+00	-8.720398482e-01	7.092905807e-16
4.220000000e-01	5.955556137e+00	-8.720258109e-01	1.018026662e-15
4.230000000e-01	5.955538901e+00	-8.720116267e-01	8.154373512e-16
4.240000000e-01	5.955521503e+00	-8.719972933e-01	1.204964305e-15
4.250000000e-01	5.955503943e+00	-8.719828086e-01	8.942855285e-16
4.260000000e-01	5.955486218e+00	-8.719681704e-01	8.430514617e-16
4.270000000e-01	5.955468326e+00	-8.719533764e-01	9.079013710e-16
4.280000000e-01	5.955450267e+00	-8.719384242e-01	1.206655191e-15
4.290000000e-01	5.955432037e+00	-8.719233116e-01	1.211159015e-15
4.300000000e-01	5.955413635e+00	-8.719080362e-01	7.807708953e-16
4.310000000e-01	5.955395059e+00	-8.718925953e-01	9.807611452e-16
4.320000000e-01	5.955376306e+00	-8.718769866e-01	9.031559682e-16
4.330000000e-01	5.955357376e+00	-8.718612075e-01	1.757015684e-15
4.340000000e-01	5.955338265e+00	-8.718452553e-01	8.251986098e-16
4.350000000e-01	5.955318972e+00	-8.718291273e-01	8.195932010e-16
4.360000000e-01	5.955299494e+00	-8.718128209e-01	1.160243673e-15
4.370000000e-01	5.955279830e+00	-8.717963331e-01	1.630085215e-15
4.380000000e-01	5.955259976e+00	-8.717796613e-01	1.055172636e-15
4.390000000e-01	5.955239932e+00	-8.717628023e-01	1.070018583e-15
4.400000000e-01	5.955219694e+00	-8.717457533e-01	1.250583530e-15
4.410000000e-01	5.955199260e+00	-8.717285111e-01	1.177927304e-15
4.420000000e-01	5.955178629e+00	-8.717110726e-01	8.177055014e-16
4.430000000e-01	5.955157796e+00	-8.716934347e-01	9.267272350e-16
4.440000000e-01	5.955136761e+00	-8.716755940e-01	8.741440964e-16
4.450000000e-01	5.955115520e+00	-8.716575473e-01	1.098469182e-15
4.460000000e-01	5.955094072e+00	-8.716392909e-01	1.132676532e-15
4.470000000e-01	5.955072413e+00	-8.716208216e-01	6.096963743e-16
4.480000000e-01	5.955050541e+00	-8.716021355e-01	9.037945120e-16
4.490000000e-01	5.955028453e+00	-8.715832292e-01	7.341529727e-16
4.500000000e-01	5.955006146e+00	-8.715640987e-01	1.293369849e-15
4.510000000e-01	5.954983619e+00	-8.715447403e-01	8.416585514e-16
4.520000000e-01	5.954960867e+00	-8.715251500e-01	8.584517731e-16
4.530000000e-01	5.954937889e+00	-8.715053237e-01	1.397413504e-15
4.540000000e-01	5.954914681e+00	-8.714852572e-01	7.890589449e-16
4.550000000e-01	5.954891240e+00	-8.714649464e-01	8.581699763e-16
4.560000000e-01	5.954867563e+00	-8.714443869e-01	1.001564384e-15
4.570000000e-01	5.954843648e+00	-8.714235741e-01	9.999728059e-16
4.580000000e-01	5.954819492e+00	-8.714025036e-01	8.623761425e-16
4.590000000e-01	5.954795090e+00	-8.713811705e-01	5.848210598e-16
4.600000000e-01	5.954770440e+00	-8.713595701e-01	7.627443428e-16
4.610000000e-01	5.954745539e+00	-8.713376974e-01	8.521161021e-16
4.620000000e-01	5.954720383e+00	-8.713155474e-01	3.249435346e-16
4.630000000e-01	5.954694970e+00	-8.712931149e-01	1.320698412e-15
4.640000000e-01	5.954669294e+00	-8.712703944e-01	9.925875896e-16
4.650000000e-01	5.954643354e+00	-8.712473805e-01	1.071602151e-15
4.660000000e-01	5.954617146e+00	-8.712240675e-01	1.247862268e-15
4.670000000e-01	5.954590665e+00	-8.712004498e-01	1.026166701e-15
4.680000000e-01	5.954563908e+00	-8.711765212e-01	8.807413775e-16
4.690000000e-01	5.954536872e+00	-8.711522758e-01	1.033339615e-15
4.700000000e-01	5.954509553e+00	-8.711277072e-01	1.036021184e-15
4.710000000e-01	5.954481946e+00	-8.711028089e-01	1.298571413e-15
4.720000000e-01	5.954454048e+00	-8.710775744e-01	1.328568311e-15
4.730000000e-01	5.954425855e+00	-8.710519968e-01	9.220125997e-16
4.740000000e-01	5.954397363e+00	-8.710260690e-01	7.371535222e-16
4.750000000e-01	5.954368567e+00	-8.709997840e-01	1.358292058e-15
4.760000000e-01	5.954339463e+00	-8.709731341e-01	1.135652543e-15
4.770000000e-01	5.954310047e+00	-8.709461119e-01	1.083162117e-15
4.780000000e-01	5.954280315e+00	-8.709187094e-01	5.095213360e-16
4.790000000e-01	5.954250262e+00	-8.708909184e-01	8.359342008e-16
4.800000000e-01	5.954219884e+00	-8.708627308e-01	1.081183559e-15
4.810000000e-01	5.954189175e+00	-8.708341378e-01	9.723905954e-16
4.820000000e-01	5.954158132e+00	-8.708051306e-01	9.060990020e-16
4.830000000e-01	5.954126749e+00	-8.707757002e-01	1.180405443e-15
4.840000000e-01	5.954095022e+00	-8.707458370e-01	1.122066701e-15
4.850000000e-01	5.954062945e+00	-8.707155314e-01	1.701924768e-15
4.860000000e-01	5.954030513e+00	-8.706847733e-01	1.373424320e-15
4.870000000e-01	5.953997722e+00	-8.706535526e-01	9.202330192e-16
4.880000000e-01	5.953964566e+00	-8.706218584e-01	1.265888827e-15
4.890000000e-01	5.953931040e+00	-8.705896799e-01	1.439585680e-15
4.900000000e-01	5.953897139e+00	-8.705570057e-01	1.148737254e-15
4.910000000e-01	5.953862856e+00	-8.705238241e-01	3.281333410e-16
4.920000000e-01	5.953828186e+00	-8.704901230e-01	1.211324821e-15
4.930000000e-01	5.953793124e+00	-8.704558899e-01	8.636885510e-16
4.940000000e-01	5.953757664e+00	-8.704211119e-01	1.222286062e-15
4.950000000e-01	5.953721799e+00	-8.703857757e-01	1.509623567e-15
4.960000000e-01	5.953685525e+00	-8.703498675e-01	1.312701478e-15
4.970000000e-01	5.953648835e+00	-8.703133729e-01	1.334871997e-15
4.980000000e-01	5.953611722e+00	-8.702762774e-01	9.374086083e-16
4.990000000e-01	5.953574181e+00	-8.702385656e-01	1.351249860e-15
5.000000000e-01	5.953536205e+00	-8.702002216e-01	9.703213552e-16
5.010000000e-01	5.953497788e+00	-8.701612293e-01	3.412337654e-16
5.020000000e-01	5.953458924e+00	-8.701215716e-01	6.998025689e-16
5.030000000e-01	5.953419605e+00	-8.700812309e-01	4.207881800e-16
5.040000000e-01	5.953379825e+00	-8.700401893e-01	1.550137783e-15
5.050000000e-01	5.953339578e+00	-8.699984277e-01	1.046245445e-15
5.060000000e-01	5.953298856e+00	-8.699559267e-01	6.930046773e-16
5.070000000e-01	5.953257652e+00	-8.699126660e-01	6.379594844e-16
5.080000000e-01	5.953215961e+00	-8.698686247e-01	1.084301177e-15
5.090000000e-01	5.953173774e+00	-8.698237810e-01	7.770356604e-16
5.100000000e-01	5.953131085e+00	-8.697781122e-01	1.079927776e-15
5.110000000e-01	5.953087887e+00	-8.697315949e-01	6.403064722e-16
5.120000000e-01	5.953044172e+00	-8.696842048e-01	1.222176448e-15
5.130000000e-01	5.952999933e+00	-8.696359165e-01	9.756772635e-16
5.140000000e-01	5.952955164e+00	-8.695867037e-01	8.502785695e-16
5.150000000e-01	5.952909856e+00	-8.695365391e-01	1.259264355e-15
5.160000000e-01	5.952864004e+00	-8.694853943e-01	1.070677775e-15
5.170000000e-01	5.952817600e+00	-8.694332397e-01	8.770096283e-16
5.180000000e-01	5.952770636e+00	-8.693800446e-01	1.103118917e-15
5.190000000e-01	5.952723106e+00	-8.693257771e-01	9.553945340e-16
5.200000000e-01	5.952675004e+00	-8.692704039e-01	1.359860598e-15
5.210000000e-01	5.952626321e+00	-8.692138904e-01	8.975810924e-16
5.220000000e-01	5.952577053e+00	-8.691562004e-01	8.861198333e-16
5.230000000e-01	5.952527191e+00	-8.690972965e-01	6.001618444e-16
5.240000000e-01	5.952476731e+00	-8.690371395e-01	1.127249264e-15
5.250000000e-01	5.952425667e+00	-8.689756888e-01	1.217439185e-15
5.260000000e-01	5.952373992e+00	-8.689129017e-01	8.107105518e-16
5.270000000e-01	5.952321702e+00	-8.688487342e-01	1.288827380e-15
5.280000000e-01	5.952268791e+00	-8.687831399e-01	1.028769188e-15
5.290000000e-01	5.952215257e+00	-8.687160710e-01	5.968111131e-16
5.300000000e-01	5.952161094e+00	-8.686474770e-01	1.014166347e-15
5.310000000e-01	5.952106300e+00	-8.685773059e-01	3.870763293e-16
5.320000000e-01	5.952050873e+00	-8.685055029e-01	6.566103100e-16
5.330000000e-01	5.951994811e+00	-8.684320113e-01	7.428964867e-16
5.340000000e-01	5.951938113e+00	-8.683567716e-01	1.199898833e-15
5.350000000e-01	5.951880780e+00	-8.682797220e-01	1.260517321e-15
5.360000000e-01	5.951822815e+00	-8.682007979e-01	1.344762753e-15
5.370000000e-01	5.951764219e+00	-8.681199320e-01	9.374593401e-16
5.380000000e-01	5.951704997e+00	-8.680370541e-01	1.738582872e-15
5.390000000e-01	5.951645157e+00	-8.679520910e-01	1.247845385e-15
5.400000000e-01	5.951584705e+00	-8.678649666e-01	8.583365395e-16
5.410000000e-01	5.951523652e+00	-8.677756015e-01	1.487326592e-15
5.420000000e-01	5.951462012e+00	-8.676839129e-01	1.695135266e-15
5.430000000e-01	5.951399799e+00	-8.675898148e-01	1.154871966e-15
5.440000000e-01	5.951337031e+00	-8.674932179e-01	6.160533397e-16
5.450000000e-01	5.951273731e+00	-8.673940293e-01	9.653972192e-16
5.460000000e-01	5.951209924e+00	-8.672921524e-01	1.211262132e-15
5.470000000e-01	5.951145638e+00	-8.671874874e-01	6.478620493e-16
5.480000000e-01	5.951080908e+00	-8.670799307e-01	8.977153752e-16
5.490000000e-01	5.951015774e+00	-8.669693754e-01	1.229532115e-15
5.500000000e-01	5.950950278e+00	-8.668557113e-01	4.914857779e-16
5.510000000e-01	5.950884473e+00	-8.667388246e-01	1.272804360e-15
5.520000000e-01	5.950818415e+00	-8.666185988e-01	7.617339648e-16
5.530000000e-01	5.950752169e+00	-8.664949145e-01	7.643633415e-16
5.540000000e-01	5.950685809e+00	-8.663676499e-01	6.583652923e-16
5.550000000e-01	5.950619417e+00	-8.662366814e-01	8.245462344e-16
5.560000000e-01	5.950553085e+00	-8.661018839e-01	1.607528614e-15
5.570000000e-01	5.950486916e+00	-8.659631317e-01	7.537273134e-16
5.580000000e-01	5.950421025e+00	-8.658202993e-01	8.506536309e-16
5.590000000e-01	5.950355539e+00	-8.656732628e-01	1.066673640e-15
5.600000000e-01	5.950290599e+00	-8.655219004e-01	6.702211545e-16
5.610000000e-01	5.950226363e+00	-8.653660948e-01	1.324748753e-15
5.620000000e-01	5.950163002e+00	-8.652057343e-01	9.250809206e-16
5.630000000e-01	5.950100706e+00	-8.650407151e-01	1.499167958e-15
5.640000000e-01	5.950039682e+00	-8.648709434e-01	1.090515940e-15
5.650000000e-01	5.949980156e+00	-8.646963384e-01	1.130101402e-15
5.660000000e-01	5.949922373e+00	-8.645168349e-01	1.932308361e-15
5.670000000e-01	5.949866600e+00	-8.643323870e-01	1.123707130e-15
5.680000000e-01	5.949813121e+00	-8.641429713e-01	7.067506142e-16
5.690000000e-01	5.949762244e+00	-8.639485910e-01	1.335804590e-15
5.700000000e-01	5.949714293e+00	-8.637492803e-01	6.967959697e-16
5.710000000e-01	5.949669613e+00	-8.635451083e-01	1.117072136e-15
5.720000000e-01	5.949628564e+00	-8.633361838e-01	1.238195116e-15
5.730000000e-01	5.949591522e+00	-8.631226597e-01	9.611659041e-16
5.740000000e-01	5.949558874e+00	-8.629047367e-01	7.091701592e-16
5.750000000e-01	5.949531011e+00	-8.626826677e-01	1.484257120e-15
5.760000000e-01	5.949508331e+00	-8.624567602e-01	1.081416494e-15
5.770000000e-01	5.949491225e+00	-8.622273789e-01	8.443260260e-16
5.780000000e-01	5.949480076e+00	-8.619949469e-01	5.552609629e-16
5.790000000e-01	5.949475247e+00	-8.617599447e-01	9.534716477e-16
5.800000000e-01	5.949477079e+00	-8.615229089e-01	6.903233873e-16
5.810000000e-01	5.949485878e+00	-8.612844279e-01	1.173191918e-15
5.820000000e-01	5.949501911e+00	-8.610451364e-01	6.334017394e-16
5.830000000e-01	5.949525394e+00	-8.608057081e-01	7.831095565e-16
5.840000000e-01	5.949556491e+00	-8.605668459e-01	9.931703762e-16
5.850000000e-01	5.949595302e+00	-8.603292718e-01	9.203325630e-16
5.860000000e-01	5.949641864e+00	-8.600937141e-01	1.108030816e-15
5.870000000e-01	5.949696148e+00	-8.598608959e-01	8.247871573e-16
5.880000000e-01	5.949758056e+00	-8.596315214e-01	8.422337265e-16
5.890000000e-01	5.949827422e+00	-8.594062641e-01	1.157184205e-15
5.900000000e-01	5.949904021e+00	-8.591857549e-01	9.428948937e-16
5.910000000e-01	5.949987567e+00	-8.589705729e-01	1.422690684e-15
5.920000000e-01	5.950077724e+00	-8.587612364e-01	1.339767834e-15
5.930000000e-01	5.950174113e+00	-8.585581969e-01	7.286128867e-16
5.940000000e-01	5.950276318e+00	-8.583618355e-01	1.313177262e-15
5.950000000e-01	5.950383899e+00	-8.581724607e-01	1.291450123e-15
5.960000000e-01	5.950496397e+00	-8.579903086e-01	1.043322944e-15
5.970000000e-01	5.950613344e+00	-8.578155453e-01	7.414333220e-16
5.980000000e-01	5.950734271e+00	-8.576482701e-01	8.820145133e-16
5.990000000e-01	5.950858714e+00	-8.574885205e-01	1.516741333e-15
6.000000000e-01	5.950986222e+00	-8.573362778e-01	1.314457584e-15
6.010000000e-01	5.951116358e+00	-8.571914732e-01	1.193327112e-15
6.020000000e-01	5.951248707e+00	-8.570539947e-01	1.113443802e-15
6.030000000e-01	5.951382878e+00	-8.569236932e-01	1.561001906e-15
6.040000000e-01	5.951518504e+00	-8.568003889e-01	9.479734715e-16
