# mu [eV]     Omega/c [1/micrones]    Im(epsi1)     Eq(det).Opt det con kz, R=0.5 \mum, Re(epsi1)=3.90, kz = 0.1400 1/\mum, solve_det_conkz_vs_mu.py
3.000000000e-01	1.897032764e-01	-2.718618313e-02	7.714911032e-13
3.060000000e-01	1.915922564e-01	-2.663477223e-02	8.806082260e-13
3.080000000e-01	1.922177502e-01	-2.645643990e-02	2.865241992e-13
3.100000000e-01	1.928411945e-01	-2.628074418e-02	9.714469060e-13
3.110000000e-01	1.931521542e-01	-2.619386721e-02	9.697319609e-13
3.120000000e-01	1.934626090e-01	-2.610762818e-02	1.134227102e-12
3.140000000e-01	1.940820132e-01	-2.593703657e-02	5.357194170e-13
3.150000000e-01	1.943909674e-01	-2.585267056e-02	5.341788404e-13
3.160000000e-01	1.946994262e-01	-2.576891560e-02	3.638803939e-13
3.180000000e-01	1.953148668e-01	-2.560321298e-02	4.241083505e-13
3.190000000e-01	1.956218532e-01	-2.552125261e-02	2.338553973e-13
3.210000000e-01	1.962343697e-01	-2.535908263e-02	1.346192128e-13
3.220000000e-01	1.965399043e-01	-2.527886083e-02	9.678706929e-13
3.230000000e-01	1.968449595e-01	-2.519920649e-02	1.257961139e-13
3.250000000e-01	1.974536405e-01	-2.504157673e-02	1.602126337e-13
3.270000000e-01	1.980604302e-01	-2.488614718e-02	3.011149303e-13
3.280000000e-01	1.983631211e-01	-2.480924339e-02	9.871576803e-13
3.310000000e-01	1.992684042e-01	-2.458171012e-02	8.048108016e-14
3.330000000e-01	1.998696224e-01	-2.443261628e-02	8.303021499e-13
3.340000000e-01	2.001695466e-01	-2.435883220e-02	4.587081350e-13
3.360000000e-01	2.007680352e-01	-2.421276432e-02	4.505739969e-13
3.370000000e-01	2.010666038e-01	-2.414047055e-02	2.587902847e-13
3.380000000e-01	2.013647244e-01	-2.406866369e-02	5.537423664e-13
3.390000000e-01	2.016623991e-01	-2.399733893e-02	3.783792244e-13
3.410000000e-01	2.022564188e-01	-2.385611670e-02	4.843858787e-13
3.420000000e-01	2.025527676e-01	-2.378620989e-02	5.031335947e-13
3.430000000e-01	2.028486783e-01	-2.371676650e-02	4.436708928e-13
3.440000000e-01	2.031441528e-01	-2.364778201e-02	8.567502059e-13
3.450000000e-01	2.034391930e-01	-2.357925196e-02	3.938512688e-13
3.470000000e-01	2.040279779e-01	-2.344353759e-02	1.597851864e-13
3.490000000e-01	2.046150481e-01	-2.330958881e-02	5.133423113e-13
3.500000000e-01	2.049079447e-01	-2.324326595e-02	4.600781512e-13
3.510000000e-01	2.052004181e-01	-2.317737191e-02	1.193317160e-14
3.520000000e-01	2.054924700e-01	-2.311190261e-02	2.230164361e-13
3.530000000e-01	2.057841024e-01	-2.304685402e-02	2.433778258e-13
3.540000000e-01	2.060753169e-01	-2.298222216e-02	8.446820909e-14
3.550000000e-01	2.063661153e-01	-2.291800308e-02	1.341651840e-12
3.560000000e-01	2.066564994e-01	-2.285419291e-02	2.459754436e-13
3.570000000e-01	2.069464709e-01	-2.279078782e-02	2.875708336e-13
3.580000000e-01	2.072360316e-01	-2.272778400e-02	5.019121364e-13
3.590000000e-01	2.075251831e-01	-2.266517772e-02	3.881036918e-13
3.600000000e-01	2.078139272e-01	-2.260296529e-02	5.119659375e-13
3.610000000e-01	2.081022655e-01	-2.254114304e-02	1.377784706e-13
3.620000000e-01	2.083901998e-01	-2.247970737e-02	1.159339970e-13
3.630000000e-01	2.086777316e-01	-2.241865471e-02	5.941756085e-13
3.640000000e-01	2.089648628e-01	-2.235798155e-02	1.462747716e-12
3.650000000e-01	2.092515948e-01	-2.229768441e-02	2.325934472e-13
3.660000000e-01	2.095379294e-01	-2.223775985e-02	1.371846207e-13
3.670000000e-01	2.098238681e-01	-2.217820446e-02	4.461521156e-13
3.680000000e-01	2.101094127e-01	-2.211901490e-02	5.561193529e-13
3.700000000e-01	2.106793255e-01	-2.200172005e-02	4.047248701e-13
3.720000000e-01	2.112476805e-01	-2.188584921e-02	3.013035089e-13
3.730000000e-01	2.115312778e-01	-2.182843983e-02	3.964711127e-13
3.740000000e-01	2.118144902e-01	-2.177137696e-02	2.349273316e-13
3.750000000e-01	2.120973195e-01	-2.171465752e-02	8.543174902e-13
3.760000000e-01	2.123797671e-01	-2.165827844e-02	7.802942849e-13
3.770000000e-01	2.126618345e-01	-2.160223672e-02	3.278068485e-13
3.780000000e-01	2.129435232e-01	-2.154652938e-02	1.428775805e-13
3.790000000e-01	2.132248347e-01	-2.149115346e-02	3.101039039e-13
3.800000000e-01	2.135057705e-01	-2.143610606e-02	2.855910044e-13
3.810000000e-01	2.137863322e-01	-2.138138429e-02	3.079335524e-13
3.820000000e-01	2.140665211e-01	-2.132698532e-02	4.533227772e-13
3.840000000e-01	2.146257865e-01	-2.121914451e-02	7.042279363e-14
3.850000000e-01	2.149048659e-01	-2.116569715e-02	4.885695429e-13
3.860000000e-01	2.151835784e-01	-2.111256151e-02	6.097275364e-13
3.870000000e-01	2.154619253e-01	-2.105973492e-02	3.813450308e-13
3.880000000e-01	2.157399081e-01	-2.100721470e-02	1.581693719e-13
3.890000000e-01	2.160175282e-01	-2.095499824e-02	3.600047981e-13
3.900000000e-01	2.162947869e-01	-2.090308294e-02	8.253408138e-14
3.910000000e-01	2.165716857e-01	-2.085146623e-02	2.538995257e-14
3.920000000e-01	2.168482260e-01	-2.080014556e-02	1.408440263e-13
3.930000000e-01	2.171244090e-01	-2.074911843e-02	1.716478611e-13
3.940000000e-01	2.174002363e-01	-2.069838236e-02	6.118026923e-12
3.950000000e-01	2.176757090e-01	-2.064793488e-02	1.524234483e-13
3.960000000e-01	2.179508286e-01	-2.059777357e-02	6.397211669e-13
3.970000000e-01	2.182255964e-01	-2.054789603e-02	1.075694407e-13
3.980000000e-01	2.185000137e-01	-2.049829988e-02	2.100593539e-13
3.990000000e-01	2.187740818e-01	-2.044898278e-02	4.702414356e-13
4.000000000e-01	2.190478021e-01	-2.039994239e-02	5.728372417e-13
4.010000000e-01	2.193211759e-01	-2.035117642e-02	2.360211935e-13
4.040000000e-01	2.201392306e-01	-2.020650243e-02	2.430477550e-13
4.050000000e-01	2.204112310e-01	-2.015881165e-02	1.014887989e-13
4.060000000e-01	2.206828912e-01	-2.011138418e-02	4.097738490e-13
4.070000000e-01	2.209542125e-01	-2.006421785e-02	2.144568038e-14
4.080000000e-01	2.212251961e-01	-2.001731054e-02	6.093867663e-14
4.090000000e-01	2.214958432e-01	-1.997066013e-02	3.105579954e-14
4.110000000e-01	2.220361332e-01	-1.987812174e-02	2.730680648e-13
4.130000000e-01	2.225750920e-01	-1.978658625e-02	2.604855624e-13
4.140000000e-01	2.228440753e-01	-1.974118957e-02	5.349224792e-14
4.160000000e-01	2.233810556e-01	-1.965112843e-02	1.766750050e-13
4.170000000e-01	2.236490550e-01	-1.960646009e-02	3.038856885e-13
4.180000000e-01	2.239167287e-01	-1.956203068e-02	7.011795186e-14
4.190000000e-01	2.241840780e-01	-1.951783830e-02	2.274008833e-13
4.210000000e-01	2.247178077e-01	-1.943015714e-02	2.091005944e-13
4.220000000e-01	2.249841906e-01	-1.938666468e-02	1.886034524e-13
4.230000000e-01	2.252502535e-01	-1.934340187e-02	7.741298353e-14
4.250000000e-01	2.257814243e-01	-1.925755800e-02	1.284763110e-13
4.260000000e-01	2.260465343e-01	-1.921497341e-02	2.523737973e-13
4.270000000e-01	2.263113290e-01	-1.917261139e-02	3.234061674e-12
4.290000000e-01	2.268399767e-01	-1.908854815e-02	1.049387432e-13
4.300000000e-01	2.271038318e-01	-1.904684353e-02	5.062532812e-13
4.310000000e-01	2.273673760e-01	-1.900535468e-02	4.014099130e-13
4.330000000e-01	2.278935355e-01	-1.892301768e-02	4.850865757e-13
4.340000000e-01	2.281561531e-01	-1.888216625e-02	8.728130102e-14
4.350000000e-01	2.284184639e-01	-1.884152407e-02	1.650929970e-12
4.360000000e-01	2.286804691e-01	-1.880108953e-02	5.560807402e-13
4.370000000e-01	2.289421696e-01	-1.876086107e-02	2.381947750e-13
4.380000000e-01	2.292035666e-01	-1.872083712e-02	5.711453611e-13
4.390000000e-01	2.294646610e-01	-1.868101615e-02	3.469640334e-13
4.400000000e-01	2.297254539e-01	-1.864139661e-02	4.851465144e-14
4.410000000e-01	2.299859463e-01	-1.860197701e-02	3.218627337e-13
4.440000000e-01	2.307656308e-01	-1.848490286e-02	9.652800035e-14
4.450000000e-01	2.310249313e-01	-1.844626813e-02	4.262922579e-14
4.460000000e-01	2.312839365e-01	-1.840782599e-02	1.834420894e-13
4.470000000e-01	2.315426471e-01	-1.836957501e-02	3.611099912e-13
4.480000000e-01	2.318010643e-01	-1.833151377e-02	1.349053204e-13
4.490000000e-01	2.320591890e-01	-1.829364088e-02	4.790674086e-13
4.500000000e-01	2.323170222e-01	-1.825595495e-02	5.553221075e-13
4.510000000e-01	2.325745648e-01	-1.821845461e-02	1.568347623e-13
4.520000000e-01	2.328318179e-01	-1.818113850e-02	3.411773020e-13
4.530000000e-01	2.330887822e-01	-1.814400528e-02	7.653790428e-14
4.540000000e-01	2.333454590e-01	-1.810705362e-02	9.317513098e-14
4.550000000e-01	2.336018489e-01	-1.807028219e-02	1.789100499e-13
4.560000000e-01	2.338579531e-01	-1.803368969e-02	1.791960552e-13
4.570000000e-01	2.341137725e-01	-1.799727482e-02	9.316845997e-14
4.580000000e-01	2.343693079e-01	-1.796103631e-02	1.053835948e-13
4.590000000e-01	2.346245603e-01	-1.792497288e-02	4.347843574e-14
4.600000000e-01	2.348795307e-01	-1.788908327e-02	3.767987261e-13
4.610000000e-01	2.351342199e-01	-1.785336625e-02	7.430269951e-14
4.620000000e-01	2.353886288e-01	-1.781782056e-02	2.955641819e-13
4.630000000e-01	2.356427585e-01	-1.778244500e-02	6.427554513e-14
4.640000000e-01	2.358966096e-01	-1.774723836e-02	8.549691586e-13
4.650000000e-01	2.361501833e-01	-1.771219942e-02	5.321017101e-14
4.660000000e-01	2.364034803e-01	-1.767732701e-02	8.026508664e-14
4.670000000e-01	2.366565015e-01	-1.764261995e-02	2.892427096e-13
4.680000000e-01	2.369092479e-01	-1.760807706e-02	1.244452104e-13
4.690000000e-01	2.371617203e-01	-1.757369720e-02	1.133715666e-13
4.700000000e-01	2.374139195e-01	-1.753947922e-02	7.845337881e-14
4.710000000e-01	2.376658465e-01	-1.750542199e-02	2.479662333e-13
4.720000000e-01	2.379175021e-01	-1.747152438e-02	1.125617933e-13
4.730000000e-01	2.381688872e-01	-1.743778528e-02	3.860612308e-13
4.740000000e-01	2.384200026e-01	-1.740420359e-02	4.856487993e-14
4.750000000e-01	2.386708492e-01	-1.737077821e-02	6.577544772e-13
4.760000000e-01	2.389214278e-01	-1.733750807e-02	1.858995436e-13
4.770000000e-01	2.391717392e-01	-1.730439208e-02	9.549190971e-14
4.780000000e-01	2.394217844e-01	-1.727142918e-02	3.044935561e-13
4.790000000e-01	2.396715641e-01	-1.723861833e-02	3.219805885e-13
4.800000000e-01	2.399210791e-01	-1.720595847e-02	6.559009432e-14
4.810000000e-01	2.401703304e-01	-1.717344858e-02	1.868678033e-13
4.840000000e-01	2.409165094e-01	-1.707680848e-02	2.289120141e-13
4.850000000e-01	2.411647136e-01	-1.704488828e-02	4.623279825e-14
4.860000000e-01	2.414126579e-01	-1.701311301e-02	1.899947451e-13
4.870000000e-01	2.416603434e-01	-1.698148169e-02	1.168587548e-13
4.880000000e-01	2.419077706e-01	-1.694999335e-02	4.608335300e-14
4.890000000e-01	2.421549405e-01	-1.691864702e-02	1.972211533e-13
4.900000000e-01	2.424018538e-01	-1.688744176e-02	2.204400994e-13
4.910000000e-01	2.426485114e-01	-1.685637661e-02	3.276836002e-13
4.920000000e-01	2.428949138e-01	-1.682545064e-02	1.408836085e-13
4.930000000e-01	2.431410621e-01	-1.679466293e-02	7.026386628e-14
4.940000000e-01	2.433869568e-01	-1.676401254e-02	3.175585737e-13
4.950000000e-01	2.436325989e-01	-1.673349857e-02	3.481158144e-13
4.960000000e-01	2.438779890e-01	-1.670312011e-02	2.204400302e-13
4.970000000e-01	2.441231279e-01	-1.667287627e-02	2.344618213e-13
4.980000000e-01	2.443680164e-01	-1.664276616e-02	4.438760874e-13
4.990000000e-01	2.446126552e-01	-1.661278889e-02	4.457361674e-13
5.000000000e-01	2.448570450e-01	-1.658294360e-02	2.674904602e-13
5.010000000e-01	2.451011867e-01	-1.655322942e-02	2.056554469e-13
5.020000000e-01	2.453450809e-01	-1.652364548e-02	3.442359368e-13
5.030000000e-01	2.455887285e-01	-1.649419095e-02	7.262276887e-14
5.040000000e-01	2.458321300e-01	-1.646486497e-02	5.411494602e-13
5.050000000e-01	2.460752863e-01	-1.643566671e-02	3.227919696e-14
5.060000000e-01	2.463181981e-01	-1.640659533e-02	1.411240289e-13
5.070000000e-01	2.465608660e-01	-1.637765003e-02	3.473935056e-13
5.090000000e-01	2.470454734e-01	-1.632013438e-02	1.089189350e-13
5.100000000e-01	2.472874143e-01	-1.629156242e-02	1.814214201e-13
5.110000000e-01	2.475291142e-01	-1.626311332e-02	3.715747098e-13
5.120000000e-01	2.477705739e-01	-1.623478627e-02	3.183056882e-13
5.130000000e-01	2.480117940e-01	-1.620658051e-02	4.415499216e-13
5.140000000e-01	2.482527753e-01	-1.617849526e-02	2.785635673e-14
5.150000000e-01	2.484935184e-01	-1.615052975e-02	2.688608908e-14
5.160000000e-01	2.487340241e-01	-1.612268321e-02	2.208002708e-13
5.170000000e-01	2.489742930e-01	-1.609495491e-02	7.319219938e-13
5.180000000e-01	2.492143258e-01	-1.606734408e-02	6.868096961e-14
5.190000000e-01	2.494541232e-01	-1.603984998e-02	2.513112908e-13
5.200000000e-01	2.496936859e-01	-1.601247188e-02	1.672285356e-13
5.210000000e-01	2.499330146e-01	-1.598520905e-02	1.476467144e-13
5.220000000e-01	2.501721098e-01	-1.595806077e-02	2.289176089e-13
5.230000000e-01	2.504109724e-01	-1.593102632e-02	3.538362544e-14
5.240000000e-01	2.506496029e-01	-1.590410498e-02	1.358065739e-13
5.250000000e-01	2.508880020e-01	-1.587729605e-02	1.099899524e-12
5.260000000e-01	2.511261704e-01	-1.585059883e-02	2.143002519e-13
5.270000000e-01	2.513641087e-01	-1.582401262e-02	1.211910673e-13
5.280000000e-01	2.516018176e-01	-1.579753675e-02	6.491169265e-13
5.300000000e-01	2.520765497e-01	-1.574491325e-02	2.249669852e-13
5.310000000e-01	2.523135742e-01	-1.571876428e-02	4.062901456e-13
5.320000000e-01	2.525503719e-01	-1.569272294e-02	1.800028471e-13
5.330000000e-01	2.527869434e-01	-1.566678857e-02	8.208357483e-14
5.340000000e-01	2.530232893e-01	-1.564096052e-02	1.579196954e-13
5.350000000e-01	2.532594102e-01	-1.561523812e-02	6.648215267e-14
5.370000000e-01	2.537309799e-01	-1.556410775e-02	4.669008413e-13
5.380000000e-01	2.539664298e-01	-1.553869849e-02	1.156094942e-13
5.390000000e-01	2.542016573e-01	-1.551339235e-02	6.755438295e-14
5.400000000e-01	2.544366629e-01	-1.548818870e-02	3.155721976e-13
5.410000000e-01	2.546714473e-01	-1.546308692e-02	3.282039722e-13
5.420000000e-01	2.549060112e-01	-1.543808640e-02	1.863314605e-13
5.430000000e-01	2.551403550e-01	-1.541318653e-02	1.064258799e-12
5.440000000e-01	2.553744794e-01	-1.538838670e-02	1.621390758e-13
5.450000000e-01	2.556083851e-01	-1.536368631e-02	1.104015999e-12
5.460000000e-01	2.558420726e-01	-1.533908477e-02	1.185008012e-13
5.470000000e-01	2.560755425e-01	-1.531458149e-02	1.194497093e-13
5.480000000e-01	2.563087954e-01	-1.529017588e-02	1.086663232e-13
5.490000000e-01	2.565418319e-01	-1.526586736e-02	2.063112396e-13
5.500000000e-01	2.567746526e-01	-1.524165535e-02	1.165925380e-13
5.510000000e-01	2.570072580e-01	-1.521753929e-02	7.020541104e-14
5.520000000e-01	2.572396488e-01	-1.519351861e-02	2.447152492e-13
5.530000000e-01	2.574718256e-01	-1.516959274e-02	1.168973172e-13
5.540000000e-01	2.577037889e-01	-1.514576112e-02	1.693541884e-13
5.550000000e-01	2.579355392e-01	-1.512202320e-02	7.940083998e-14
5.560000000e-01	2.581670772e-01	-1.509837844e-02	3.401533981e-14
5.570000000e-01	2.583984035e-01	-1.507482627e-02	3.182146761e-13
5.580000000e-01	2.586295186e-01	-1.505136618e-02	6.275180285e-13
5.590000000e-01	2.588604230e-01	-1.502799760e-02	9.056770142e-13
5.600000000e-01	2.590911174e-01	-1.500472003e-02	1.387063887e-13
5.610000000e-01	2.593216022e-01	-1.498153291e-02	9.107550440e-14
5.620000000e-01	2.595518781e-01	-1.495843574e-02	3.363946793e-13
5.640000000e-01	2.600118053e-01	-1.491250914e-02	2.192767453e-13
5.650000000e-01	2.602414577e-01	-1.488967868e-02	3.247498776e-13
5.660000000e-01	2.604709033e-01	-1.486693610e-02	3.550847706e-13
5.670000000e-01	2.607001427e-01	-1.484428089e-02	1.799404012e-13
5.680000000e-01	2.609291765e-01	-1.482171257e-02	3.398053570e-13
5.690000000e-01	2.611580052e-01	-1.479923062e-02	4.076819598e-14
5.700000000e-01	2.613866293e-01	-1.477683455e-02	1.316264048e-13
5.720000000e-01	2.618432659e-01	-1.473229812e-02	6.483958997e-14
5.730000000e-01	2.620712795e-01	-1.471015679e-02	1.368189860e-14
5.750000000e-01	2.625266998e-01	-1.466612549e-02	3.223586691e-13
5.760000000e-01	2.627541076e-01	-1.464423457e-02	9.951183471e-14
5.770000000e-01	2.629813146e-01	-1.462242619e-02	3.310768181e-13
5.780000000e-01	2.632083212e-01	-1.460069988e-02	3.191705968e-13
5.790000000e-01	2.634351279e-01	-1.457905518e-02	1.482762412e-13
5.800000000e-01	2.636617354e-01	-1.455749163e-02	4.860106324e-13
5.810000000e-01	2.638881440e-01	-1.453600877e-02	1.581739143e-13
5.820000000e-01	2.641143544e-01	-1.451460616e-02	1.112177042e-13
5.830000000e-01	2.643403670e-01	-1.449328335e-02	1.989457204e-13
5.840000000e-01	2.645661822e-01	-1.447203989e-02	3.340158616e-13
5.850000000e-01	2.647918008e-01	-1.445087534e-02	2.504760223e-13
5.860000000e-01	2.650172230e-01	-1.442978927e-02	2.459824532e-13
5.870000000e-01	2.652424495e-01	-1.440878124e-02	2.268190878e-13
5.880000000e-01	2.654674807e-01	-1.438785082e-02	1.300809501e-13
5.890000000e-01	2.656923171e-01	-1.436699758e-02	1.125419622e-13
5.900000000e-01	2.659169593e-01	-1.434622110e-02	1.798222887e-13
5.910000000e-01	2.661414076e-01	-1.432552095e-02	2.640184126e-13
5.920000000e-01	2.663656627e-01	-1.430489672e-02	6.013264366e-13
5.930000000e-01	2.665897249e-01	-1.428434799e-02	2.077384344e-13
5.940000000e-01	2.668135948e-01	-1.426387435e-02	3.384313504e-14
5.950000000e-01	2.670372729e-01	-1.424347539e-02	1.700104046e-13
5.960000000e-01	2.672607596e-01	-1.422315070e-02	1.164266358e-13
5.970000000e-01	2.674840554e-01	-1.420289988e-02	1.385605526e-13
5.980000000e-01	2.677071608e-01	-1.418272252e-02	1.411549053e-13
5.990000000e-01	2.679300763e-01	-1.416261824e-02	1.243839729e-13
6.000000000e-01	2.681528023e-01	-1.414258663e-02	5.399135331e-14
6.010000000e-01	2.683753394e-01	-1.412262731e-02	1.585271938e-13
6.020000000e-01	2.685976879e-01	-1.410273988e-02	3.140612787e-13
6.030000000e-01	2.688198484e-01	-1.408292395e-02	7.777540339e-13
6.040000000e-01	2.690418213e-01	-1.406317915e-02	1.822492468e-14
6.050000000e-01	2.692636071e-01	-1.404350509e-02	2.467235046e-13
6.060000000e-01	2.694852062e-01	-1.402390140e-02	2.034506467e-13
6.070000000e-01	2.697066191e-01	-1.400436769e-02	2.246087118e-13
6.080000000e-01	2.699278463e-01	-1.398490360e-02	1.602332854e-13
6.090000000e-01	2.701488882e-01	-1.396550876e-02	1.941450526e-13
6.110000000e-01	2.705904180e-01	-1.392692533e-02	7.578513730e-14
6.120000000e-01	2.708109068e-01	-1.390773602e-02	1.108823843e-13
6.130000000e-01	2.710312121e-01	-1.388861451e-02	1.168757993e-13
6.140000000e-01	2.712513343e-01	-1.386956042e-02	3.207674535e-13
6.150000000e-01	2.714712740e-01	-1.385057342e-02	7.962233675e-14
6.160000000e-01	2.716910316e-01	-1.383165314e-02	2.267916261e-13
6.170000000e-01	2.719106074e-01	-1.381279923e-02	2.822534336e-13
6.180000000e-01	2.721300020e-01	-1.379401135e-02	1.026249091e-13
6.190000000e-01	2.723492158e-01	-1.377528915e-02	1.915826766e-13
6.200000000e-01	2.725682492e-01	-1.375663230e-02	6.150541495e-15
6.210000000e-01	2.727871026e-01	-1.373804044e-02	2.949598040e-13
6.220000000e-01	2.730057765e-01	-1.371951325e-02	4.765766723e-14
6.230000000e-01	2.732242713e-01	-1.370105038e-02	4.429925090e-14
6.240000000e-01	2.734425875e-01	-1.368265150e-02	2.239763934e-13
6.250000000e-01	2.736607254e-01	-1.366431629e-02	2.582009377e-13
6.260000000e-01	2.738786855e-01	-1.364604441e-02	1.844096457e-13
6.270000000e-01	2.740964683e-01	-1.362783553e-02	8.712587952e-14
6.280000000e-01	2.743140741e-01	-1.360968934e-02	2.544143102e-13
6.290000000e-01	2.745315033e-01	-1.359160551e-02	3.706319871e-13
6.300000000e-01	2.747487565e-01	-1.357358372e-02	2.219272732e-13
6.310000000e-01	2.749658339e-01	-1.355562365e-02	2.324183394e-13
6.320000000e-01	2.751827360e-01	-1.353772499e-02	1.160672015e-13
6.330000000e-01	2.753994633e-01	-1.351988743e-02	2.783769819e-13
6.340000000e-01	2.756160161e-01	-1.350211065e-02	5.237435337e-14
6.350000000e-01	2.758323949e-01	-1.348439434e-02	2.019895044e-13
6.360000000e-01	2.760486000e-01	-1.346673820e-02	2.209635127e-13
6.370000000e-01	2.762646319e-01	-1.344914193e-02	3.429424895e-14
6.380000000e-01	2.764804909e-01	-1.343160521e-02	2.923603450e-13
6.390000000e-01	2.766961776e-01	-1.341412775e-02	2.272163576e-13
6.400000000e-01	2.769116922e-01	-1.339670926e-02	1.225464760e-13
6.410000000e-01	2.771270352e-01	-1.337934942e-02	1.416619176e-13
6.420000000e-01	2.773422070e-01	-1.336204796e-02	1.867621253e-13
6.430000000e-01	2.775572080e-01	-1.334480457e-02	1.719425820e-13
6.440000000e-01	2.777720385e-01	-1.332761897e-02	7.910573614e-14
6.450000000e-01	2.779866990e-01	-1.331049087e-02	2.061851728e-13
6.460000000e-01	2.782011899e-01	-1.329341997e-02	6.085242939e-13
