# R [micrones]     Omega/c [1/micrones]    Im(epsi1)     Eq(det)$\mu$ = 0.3 eV, $E_p$ = 0.800 eV, modo = 1, $\epsilon_\infty$ = 4.9, $\gamma_{DL}$ = 0.01 eV, solve_det_sinkz_vs_R.py
5.000000000e+00	2.051366510e+00	-9.659419624e-02	2.200413312e-14
4.999000000e+00	2.051366977e+00	-9.659447819e-02	1.992332227e-14
4.998000000e+00	2.051367441e+00	-9.659475808e-02	2.315376034e-14
4.997000000e+00	2.051367902e+00	-9.659503593e-02	7.333662134e-15
4.996000000e+00	2.051368359e+00	-9.659531171e-02	1.173404683e-14
4.995000000e+00	2.051368813e+00	-9.659558542e-02	1.475347041e-14
4.994000000e+00	2.051369262e+00	-9.659585706e-02	3.168735849e-14
4.993000000e+00	2.051369709e+00	-9.659612662e-02	1.542827667e-14
4.992000000e+00	2.051370152e+00	-9.659639410e-02	1.245879557e-14
4.991000000e+00	2.051370591e+00	-9.659665948e-02	1.197507591e-14
4.990000000e+00	2.051371026e+00	-9.659692276e-02	1.306587444e-14
4.989000000e+00	2.051371458e+00	-9.659718395e-02	1.221146275e-14
4.988000000e+00	2.051371887e+00	-9.659744302e-02	1.866362995e-14
4.987000000e+00	2.051372311e+00	-9.659769998e-02	2.160537717e-14
4.986000000e+00	2.051372732e+00	-9.659795482e-02	2.095494043e-14
4.985000000e+00	2.051373150e+00	-9.659820753e-02	2.297842398e-14
4.984000000e+00	2.051373564e+00	-9.659845810e-02	1.137335611e-14
4.983000000e+00	2.051373974e+00	-9.659870654e-02	1.318164507e-14
4.982000000e+00	2.051374380e+00	-9.659895284e-02	8.023238470e-15
4.981000000e+00	2.051374783e+00	-9.659919698e-02	1.889152940e-14
4.980000000e+00	2.051375182e+00	-9.659943897e-02	2.997531672e-14
4.979000000e+00	2.051375577e+00	-9.659967879e-02	9.853301177e-15
4.978000000e+00	2.051375969e+00	-9.659991645e-02	9.725654414e-15
4.977000000e+00	2.051376356e+00	-9.660015194e-02	2.982758413e-14
4.976000000e+00	2.051376740e+00	-9.660038524e-02	1.484423903e-14
4.975000000e+00	2.051377121e+00	-9.660061637e-02	8.343044801e-15
4.974000000e+00	2.051377497e+00	-9.660084530e-02	1.026410773e-14
4.973000000e+00	2.051377870e+00	-9.660107203e-02	1.693024207e-14
4.972000000e+00	2.051378239e+00	-9.660129657e-02	1.014579937e-14
4.971000000e+00	2.051378604e+00	-9.660151889e-02	1.175127285e-14
4.970000000e+00	2.051378966e+00	-9.660173901e-02	9.703207049e-15
4.969000000e+00	2.051379324e+00	-9.660195691e-02	1.566764323e-14
4.968000000e+00	2.051379677e+00	-9.660217258e-02	1.323318512e-14
4.967000000e+00	2.051380027e+00	-9.660238603e-02	8.741601156e-15
4.966000000e+00	2.051380374e+00	-9.660259724e-02	2.422138991e-14
4.965000000e+00	2.051380716e+00	-9.660280621e-02	7.754266292e-15
4.964000000e+00	2.051381054e+00	-9.660301293e-02	1.542915510e-14
4.963000000e+00	2.051381389e+00	-9.660321741e-02	1.216215562e-14
4.962000000e+00	2.051381720e+00	-9.660341963e-02	1.250915508e-14
4.961000000e+00	2.051382047e+00	-9.660361959e-02	1.156820179e-14
4.960000000e+00	2.051382370e+00	-9.660381728e-02	1.045299862e-14
4.959000000e+00	2.051382689e+00	-9.660401270e-02	1.853622612e-14
4.958000000e+00	2.051383004e+00	-9.660420584e-02	1.409273992e-14
4.957000000e+00	2.051383316e+00	-9.660439670e-02	2.328880182e-14
4.956000000e+00	2.051383623e+00	-9.660458528e-02	1.649331496e-14
4.955000000e+00	2.051383926e+00	-9.660477156e-02	1.401836074e-14
4.954000000e+00	2.051384226e+00	-9.660495554e-02	2.261059070e-14
4.953000000e+00	2.051384522e+00	-9.660513722e-02	1.256421005e-14
4.952000000e+00	2.051384813e+00	-9.660531660e-02	1.541647914e-14
4.951000000e+00	2.051385101e+00	-9.660549366e-02	8.746622849e-15
4.950000000e+00	2.051385385e+00	-9.660566840e-02	1.565548222e-14
4.949000000e+00	2.051385665e+00	-9.660584082e-02	1.097640630e-14
4.948000000e+00	2.051385940e+00	-9.660601092e-02	1.322848510e-14
4.947000000e+00	2.051386212e+00	-9.660617868e-02	1.341146986e-14
4.946000000e+00	2.051386480e+00	-9.660634410e-02	2.029451270e-14
4.945000000e+00	2.051386744e+00	-9.660650718e-02	7.949224299e-15
4.944000000e+00	2.051387004e+00	-9.660666791e-02	1.545780096e-14
4.943000000e+00	2.051387260e+00	-9.660682629e-02	1.301306959e-14
4.942000000e+00	2.051387511e+00	-9.660698232e-02	1.346612747e-14
4.941000000e+00	2.051387759e+00	-9.660713598e-02	1.736463288e-14
4.940000000e+00	2.051388003e+00	-9.660728728e-02	9.480376074e-15
4.939000000e+00	2.051388242e+00	-9.660743620e-02	1.209187708e-14
4.938000000e+00	2.051388478e+00	-9.660758275e-02	2.525754129e-14
4.937000000e+00	2.051388709e+00	-9.660772692e-02	7.397846308e-15
4.936000000e+00	2.051388937e+00	-9.660786871e-02	1.538537525e-14
4.935000000e+00	2.051389160e+00	-9.660800810e-02	1.457659672e-14
4.934000000e+00	2.051389380e+00	-9.660814510e-02	6.100660699e-15
4.933000000e+00	2.051389595e+00	-9.660827970e-02	1.100994212e-14
4.932000000e+00	2.051389806e+00	-9.660841190e-02	1.760647414e-14
4.931000000e+00	2.051390013e+00	-9.660854169e-02	8.316703418e-15
4.930000000e+00	2.051390216e+00	-9.660866907e-02	1.051368796e-14
4.929000000e+00	2.051390414e+00	-9.660879404e-02	9.091583638e-15
4.928000000e+00	2.051390609e+00	-9.660891658e-02	1.509603452e-14
4.927000000e+00	2.051390800e+00	-9.660903670e-02	1.131653031e-14
4.926000000e+00	2.051390986e+00	-9.660915439e-02	1.473982837e-14
4.925000000e+00	2.051391168e+00	-9.660926964e-02	6.612001801e-15
4.924000000e+00	2.051391346e+00	-9.660938246e-02	1.129293899e-14
4.923000000e+00	2.051391520e+00	-9.660949283e-02	1.486305391e-14
4.922000000e+00	2.051391690e+00	-9.660960076e-02	1.093126360e-14
4.921000000e+00	2.051391855e+00	-9.660970624e-02	6.843092515e-15
4.920000000e+00	2.051392017e+00	-9.660980927e-02	2.005264123e-14
4.919000000e+00	2.051392174e+00	-9.660990983e-02	1.368340382e-14
4.918000000e+00	2.051392327e+00	-9.661000793e-02	1.575894078e-14
4.917000000e+00	2.051392476e+00	-9.661010357e-02	9.203495337e-15
4.916000000e+00	2.051392620e+00	-9.661019674e-02	1.721143003e-14
4.915000000e+00	2.051392761e+00	-9.661028743e-02	7.174352540e-15
4.914000000e+00	2.051392897e+00	-9.661037564e-02	1.762768002e-14
4.913000000e+00	2.051393029e+00	-9.661046137e-02	9.908809072e-15
4.912000000e+00	2.051393156e+00	-9.661054462e-02	1.126569890e-14
4.911000000e+00	2.051393280e+00	-9.661062538e-02	1.482135850e-14
4.910000000e+00	2.051393399e+00	-9.661070364e-02	1.138717060e-14
4.909000000e+00	2.051393514e+00	-9.661077940e-02	1.351983277e-14
4.908000000e+00	2.051393625e+00	-9.661085267e-02	1.325791654e-14
4.907000000e+00	2.051393731e+00	-9.661092343e-02	1.003264204e-14
4.906000000e+00	2.051393833e+00	-9.661099168e-02	1.151487934e-14
4.905000000e+00	2.051393931e+00	-9.661105742e-02	1.411977592e-14
4.904000000e+00	2.051394025e+00	-9.661112064e-02	1.535915939e-14
4.903000000e+00	2.051394114e+00	-9.661118135e-02	8.428932832e-15
4.902000000e+00	2.051394199e+00	-9.661123953e-02	1.528302266e-14
4.901000000e+00	2.051394280e+00	-9.661129519e-02	1.132492279e-14
4.900000000e+00	2.051394357e+00	-9.661134832e-02	9.051977954e-15
4.899000000e+00	2.051394429e+00	-9.661139892e-02	9.617194519e-15
4.898000000e+00	2.051394497e+00	-9.661144698e-02	1.018070407e-14
4.897000000e+00	2.051394560e+00	-9.661149250e-02	1.517279675e-14
4.896000000e+00	2.051394619e+00	-9.661153548e-02	1.831435068e-14
4.895000000e+00	2.051394674e+00	-9.661157591e-02	1.406222106e-14
4.894000000e+00	2.051394725e+00	-9.661161380e-02	1.617928390e-14
4.893000000e+00	2.051394771e+00	-9.661164913e-02	2.004070817e-14
4.892000000e+00	2.051394813e+00	-9.661168191e-02	8.458898850e-15
4.891000000e+00	2.051394851e+00	-9.661171213e-02	1.546900864e-14
4.890000000e+00	2.051394884e+00	-9.661173979e-02	1.360436342e-14
4.889000000e+00	2.051394913e+00	-9.661176489e-02	1.965455644e-14
4.888000000e+00	2.051394937e+00	-9.661178742e-02	8.411865645e-15
4.887000000e+00	2.051394958e+00	-9.661180738e-02	1.090181359e-14
4.886000000e+00	2.051394973e+00	-9.661182477e-02	1.167955689e-14
4.885000000e+00	2.051394985e+00	-9.661183958e-02	1.734237499e-14
4.884000000e+00	2.051394992e+00	-9.661185181e-02	2.644521118e-14
4.883000000e+00	2.051394995e+00	-9.661186147e-02	8.573409641e-15
4.882000000e+00	2.051394993e+00	-9.661186854e-02	1.233036655e-14
4.881000000e+00	2.051394987e+00	-9.661187302e-02	4.154552660e-15
4.880000000e+00	2.051394977e+00	-9.661187491e-02	1.266343665e-14
4.879000000e+00	2.051394962e+00	-9.661187422e-02	8.610991409e-15
4.878000000e+00	2.051394943e+00	-9.661187093e-02	7.473165616e-15
4.877000000e+00	2.051394919e+00	-9.661186504e-02	6.142233318e-15
4.876000000e+00	2.051394891e+00	-9.661185656e-02	1.231838768e-14
4.875000000e+00	2.051394859e+00	-9.661184547e-02	7.034061182e-15
4.874000000e+00	2.051394822e+00	-9.661183178e-02	1.268744865e-14
4.873000000e+00	2.051394780e+00	-9.661181548e-02	1.009669727e-14
4.872000000e+00	2.051394735e+00	-9.661179658e-02	1.676711841e-14
4.871000000e+00	2.051394685e+00	-9.661177506e-02	1.080134534e-14
4.870000000e+00	2.051394630e+00	-9.661175094e-02	2.828301615e-14
4.869000000e+00	2.051394571e+00	-9.661172420e-02	1.633818126e-14
4.868000000e+00	2.051394508e+00	-9.661169484e-02	1.931913522e-14
4.867000000e+00	2.051394440e+00	-9.661166286e-02	2.306329368e-14
4.866000000e+00	2.051394368e+00	-9.661162826e-02	1.336924420e-14
4.865000000e+00	2.051394291e+00	-9.661159104e-02	1.178855721e-14
4.864000000e+00	2.051394210e+00	-9.661155120e-02	1.048436268e-14
4.863000000e+00	2.051394125e+00	-9.661150872e-02	1.505944209e-14
4.862000000e+00	2.051394035e+00	-9.661146362e-02	9.609724692e-15
4.861000000e+00	2.051393940e+00	-9.661141589e-02	1.038718771e-14
4.860000000e+00	2.051393842e+00	-9.661136553e-02	1.526679171e-14
4.859000000e+00	2.051393738e+00	-9.661131253e-02	2.850132549e-14
4.858000000e+00	2.051393630e+00	-9.661125690e-02	7.795897463e-15
4.857000000e+00	2.051393518e+00	-9.661119863e-02	1.152218496e-14
4.856000000e+00	2.051393402e+00	-9.661113773e-02	1.411226925e-14
4.855000000e+00	2.051393280e+00	-9.661107418e-02	1.442410405e-14
4.854000000e+00	2.051393155e+00	-9.661100799e-02	1.229742415e-14
4.853000000e+00	2.051393025e+00	-9.661093916e-02	5.526864249e-15
4.852000000e+00	2.051392890e+00	-9.661086769e-02	2.452660994e-14
4.851000000e+00	2.051392751e+00	-9.661079356e-02	1.337596242e-14
4.850000000e+00	2.051392608e+00	-9.661071680e-02	1.434538485e-14
4.849000000e+00	2.051392460e+00	-9.661063738e-02	1.386027116e-14
4.848000000e+00	2.051392308e+00	-9.661055531e-02	1.141581349e-14
4.847000000e+00	2.051392151e+00	-9.661047060e-02	1.603258658e-14
4.846000000e+00	2.051391989e+00	-9.661038323e-02	8.455601940e-15
4.845000000e+00	2.051391824e+00	-9.661029321e-02	1.541358568e-14
4.844000000e+00	2.051391653e+00	-9.661020054e-02	1.261151809e-14
4.843000000e+00	2.051391478e+00	-9.661010521e-02	1.103831787e-14
4.842000000e+00	2.051391299e+00	-9.661000723e-02	1.042478076e-14
4.841000000e+00	2.051391115e+00	-9.660990659e-02	1.250044921e-14
4.840000000e+00	2.051390927e+00	-9.660980329e-02	8.884651933e-15
4.839000000e+00	2.051390735e+00	-9.660969733e-02	2.167825371e-14
4.838000000e+00	2.051390537e+00	-9.660958872e-02	9.389053206e-15
4.837000000e+00	2.051390336e+00	-9.660947745e-02	7.099773830e-15
4.836000000e+00	2.051390130e+00	-9.660936351e-02	1.684368929e-14
4.835000000e+00	2.051389919e+00	-9.660924692e-02	1.435354640e-14
4.834000000e+00	2.051389704e+00	-9.660912767e-02	1.257884773e-14
4.833000000e+00	2.051389484e+00	-9.660900575e-02	1.406882318e-14
4.832000000e+00	2.051389260e+00	-9.660888118e-02	1.355587240e-14
4.831000000e+00	2.051389032e+00	-9.660875394e-02	1.732267115e-14
4.830000000e+00	2.051388799e+00	-9.660862403e-02	1.212563566e-14
4.829000000e+00	2.051388561e+00	-9.660849147e-02	2.318301066e-14
4.828000000e+00	2.051388319e+00	-9.660835624e-02	9.636889327e-15
4.827000000e+00	2.051388073e+00	-9.660821835e-02	1.404566718e-14
4.826000000e+00	2.051387822e+00	-9.660807780e-02	1.297436856e-14
4.825000000e+00	2.051387567e+00	-9.660793458e-02	1.859047751e-14
4.824000000e+00	2.051387307e+00	-9.660778870e-02	9.286750382e-15
4.823000000e+00	2.051387042e+00	-9.660764016e-02	2.137103783e-14
4.822000000e+00	2.051386773e+00	-9.660748895e-02	1.083486695e-14
4.821000000e+00	2.051386500e+00	-9.660733508e-02	1.317185118e-14
4.820000000e+00	2.051386222e+00	-9.660717855e-02	1.283174098e-14
4.819000000e+00	2.051385940e+00	-9.660701936e-02	1.057216055e-14
4.818000000e+00	2.051385653e+00	-9.660685750e-02	3.411569205e-14
4.817000000e+00	2.051385362e+00	-9.660669298e-02	3.094783947e-14
4.816000000e+00	2.051385066e+00	-9.660652580e-02	1.183262161e-14
4.815000000e+00	2.051384766e+00	-9.660635596e-02	3.850383633e-15
4.814000000e+00	2.051384461e+00	-9.660618346e-02	1.458306277e-14
4.813000000e+00	2.051384152e+00	-9.660600830e-02	1.347553884e-14
4.812000000e+00	2.051383839e+00	-9.660583048e-02	1.932473712e-14
4.811000000e+00	2.051383521e+00	-9.660565000e-02	1.464127257e-14
4.810000000e+00	2.051383198e+00	-9.660546686e-02	1.598369430e-14
4.809000000e+00	2.051382871e+00	-9.660528107e-02	8.484018438e-15
4.808000000e+00	2.051382540e+00	-9.660509262e-02	2.576496047e-14
4.807000000e+00	2.051382204e+00	-9.660490151e-02	9.629012638e-15
4.806000000e+00	2.051381864e+00	-9.660470775e-02	3.649027078e-14
4.805000000e+00	2.051381519e+00	-9.660451134e-02	1.264421896e-14
4.804000000e+00	2.051381169e+00	-9.660431227e-02	7.986913046e-15
4.803000000e+00	2.051380816e+00	-9.660411055e-02	7.435088589e-15
4.802000000e+00	2.051380458e+00	-9.660390619e-02	1.603830232e-14
4.801000000e+00	2.051380095e+00	-9.660369917e-02	1.388640821e-14
4.800000000e+00	2.051379728e+00	-9.660348951e-02	1.054928743e-14
4.799000000e+00	2.051379357e+00	-9.660327720e-02	2.460905609e-14
4.798000000e+00	2.051378981e+00	-9.660306224e-02	7.126115811e-15
4.797000000e+00	2.051378600e+00	-9.660284465e-02	1.190600749e-14
4.796000000e+00	2.051378216e+00	-9.660262441e-02	1.354673123e-14
4.795000000e+00	2.051377826e+00	-9.660240153e-02	1.279582656e-14
4.794000000e+00	2.051377433e+00	-9.660217601e-02	2.092893887e-14
4.793000000e+00	2.051377035e+00	-9.660194785e-02	2.358197118e-14
4.792000000e+00	2.051376632e+00	-9.660171706e-02	1.996248549e-14
4.791000000e+00	2.051376225e+00	-9.660148364e-02	1.545608066e-14
4.790000000e+00	2.051375814e+00	-9.660124758e-02	7.336017105e-15
4.789000000e+00	2.051375398e+00	-9.660100890e-02	1.286985314e-14
4.788000000e+00	2.051374978e+00	-9.660076758e-02	1.676820788e-14
4.787000000e+00	2.051374554e+00	-9.660052364e-02	2.230868761e-14
4.786000000e+00	2.051374125e+00	-9.660027708e-02	1.265969355e-14
4.785000000e+00	2.051373692e+00	-9.660002789e-02	1.218406051e-14
4.784000000e+00	2.051373254e+00	-9.659977609e-02	1.712972828e-14
4.783000000e+00	2.051372812e+00	-9.659952166e-02	1.073941249e-14
4.782000000e+00	2.051372366e+00	-9.659926463e-02	4.078522169e-15
4.781000000e+00	2.051371915e+00	-9.659900498e-02	5.477802786e-15
4.780000000e+00	2.051371460e+00	-9.659874272e-02	9.779044809e-15
4.779000000e+00	2.051371000e+00	-9.659847785e-02	8.780958399e-15
4.778000000e+00	2.051370537e+00	-9.659821037e-02	1.048379369e-14
4.777000000e+00	2.051370068e+00	-9.659794030e-02	1.429851851e-14
4.776000000e+00	2.051369596e+00	-9.659766762e-02	1.866201210e-14
4.775000000e+00	2.051369119e+00	-9.659739235e-02	8.368935688e-15
4.774000000e+00	2.051368638e+00	-9.659711448e-02	5.989535384e-15
4.773000000e+00	2.051368152e+00	-9.659683402e-02	2.517382488e-14
4.772000000e+00	2.051367662e+00	-9.659655097e-02	1.637732794e-14
4.771000000e+00	2.051367168e+00	-9.659626533e-02	1.760121805e-14
4.770000000e+00	2.051366669e+00	-9.659597712e-02	8.378309086e-15
4.769000000e+00	2.051366167e+00	-9.659568632e-02	1.753985725e-14
4.768000000e+00	2.051365659e+00	-9.659539294e-02	1.400031898e-14
4.767000000e+00	2.051365148e+00	-9.659509699e-02	1.054556311e-14
4.766000000e+00	2.051364632e+00	-9.659479847e-02	1.248098027e-14
4.765000000e+00	2.051364112e+00	-9.659449739e-02	1.412607741e-14
4.764000000e+00	2.051363588e+00	-9.659419374e-02	1.835606164e-14
4.763000000e+00	2.051363059e+00	-9.659388752e-02	1.699625283e-14
4.762000000e+00	2.051362526e+00	-9.659357876e-02	1.550485213e-14
4.761000000e+00	2.051361989e+00	-9.659326743e-02	7.580848210e-15
4.760000000e+00	2.051361448e+00	-9.659295356e-02	1.156617975e-14
4.759000000e+00	2.051360902e+00	-9.659263714e-02	1.093276531e-14
4.758000000e+00	2.051360352e+00	-9.659231818e-02	1.353531352e-14
4.757000000e+00	2.051359798e+00	-9.659199668e-02	1.263542779e-14
4.756000000e+00	2.051359240e+00	-9.659167265e-02	2.709937623e-14
4.755000000e+00	2.051358677e+00	-9.659134608e-02	1.062621315e-14
4.754000000e+00	2.051358111e+00	-9.659101699e-02	1.651834453e-14
4.753000000e+00	2.051357540e+00	-9.659068537e-02	9.820303484e-15
4.752000000e+00	2.051356965e+00	-9.659035123e-02	8.277412695e-15
4.751000000e+00	2.051356385e+00	-9.659001458e-02	2.024451293e-14
4.750000000e+00	2.051355802e+00	-9.658967542e-02	4.364391667e-14
4.749000000e+00	2.051355214e+00	-9.658933375e-02	1.130048051e-14
4.748000000e+00	2.051354622e+00	-9.658898958e-02	8.223389145e-15
4.747000000e+00	2.051354026e+00	-9.658864291e-02	1.066360705e-14
4.746000000e+00	2.051353426e+00	-9.658829374e-02	1.201259991e-14
4.745000000e+00	2.051352821e+00	-9.658794209e-02	1.513356659e-14
4.744000000e+00	2.051352213e+00	-9.658758795e-02	1.619955539e-14
4.743000000e+00	2.051351600e+00	-9.658723134e-02	1.008243632e-14
4.742000000e+00	2.051350983e+00	-9.658687224e-02	1.039717127e-14
4.741000000e+00	2.051350362e+00	-9.658651068e-02	1.499478517e-14
4.740000000e+00	2.051349737e+00	-9.658614665e-02	1.169875435e-14
4.739000000e+00	2.051349108e+00	-9.658578016e-02	1.266858101e-14
4.738000000e+00	2.051348475e+00	-9.658541121e-02	1.262837636e-14
4.737000000e+00	2.051347838e+00	-9.658503981e-02	1.762004050e-14
4.736000000e+00	2.051347197e+00	-9.658466597e-02	8.615905600e-15
4.735000000e+00	2.051346551e+00	-9.658428968e-02	5.470917566e-15
4.734000000e+00	2.051345902e+00	-9.658391096e-02	1.483039335e-14
4.733000000e+00	2.051345248e+00	-9.658352981e-02	5.497216772e-15
4.732000000e+00	2.051344591e+00	-9.658314623e-02	1.034914251e-14
4.731000000e+00	2.051343929e+00	-9.658276023e-02	1.408518879e-14
4.730000000e+00	2.051343264e+00	-9.658237182e-02	1.521081557e-14
4.729000000e+00	2.051342594e+00	-9.658198100e-02	1.545065071e-14
4.728000000e+00	2.051341920e+00	-9.658158777e-02	1.327695979e-14
4.727000000e+00	2.051341243e+00	-9.658119214e-02	7.443499131e-15
4.726000000e+00	2.051340561e+00	-9.658079413e-02	1.828399413e-14
4.725000000e+00	2.051339876e+00	-9.658039372e-02	6.699200574e-15
4.724000000e+00	2.051339186e+00	-9.657999093e-02	1.031552945e-14
4.723000000e+00	2.051338493e+00	-9.657958577e-02	7.310604644e-15
4.722000000e+00	2.051337795e+00	-9.657917824e-02	1.705419268e-14
4.721000000e+00	2.051337094e+00	-9.657876835e-02	1.616469531e-14
4.720000000e+00	2.051336389e+00	-9.657835609e-02	1.053352156e-14
4.719000000e+00	2.051335680e+00	-9.657794149e-02	1.761488840e-14
4.718000000e+00	2.051334967e+00	-9.657752454e-02	1.370667482e-14
4.717000000e+00	2.051334250e+00	-9.657710525e-02	1.438755402e-14
4.716000000e+00	2.051333529e+00	-9.657668363e-02	1.386086926e-14
4.715000000e+00	2.051332805e+00	-9.657625968e-02	1.848081463e-14
4.714000000e+00	2.051332076e+00	-9.657583341e-02	5.088505006e-14
4.713000000e+00	2.051331344e+00	-9.657540482e-02	1.558767852e-14
4.712000000e+00	2.051330608e+00	-9.657497393e-02	7.604569308e-15
4.711000000e+00	2.051329868e+00	-9.657454074e-02	1.443864074e-14
4.710000000e+00	2.051329124e+00	-9.657410525e-02	9.761015298e-15
4.709000000e+00	2.051328376e+00	-9.657366747e-02	1.295874541e-14
4.708000000e+00	2.051327625e+00	-9.657322742e-02	1.603790012e-14
4.707000000e+00	2.051326870e+00	-9.657278508e-02	7.485493149e-15
4.706000000e+00	2.051326111e+00	-9.657234049e-02	2.902485110e-15
4.705000000e+00	2.051325348e+00	-9.657189363e-02	1.833397597e-14
4.704000000e+00	2.051324582e+00	-9.657144451e-02	1.209794199e-14
4.703000000e+00	2.051323812e+00	-9.657099315e-02	1.537437911e-14
4.702000000e+00	2.051323038e+00	-9.657053955e-02	1.768792071e-14
4.701000000e+00	2.051322260e+00	-9.657008372e-02	7.661543947e-15
4.700000000e+00	2.051321479e+00	-9.656962567e-02	1.721064715e-14
4.699000000e+00	2.051320694e+00	-9.656916539e-02	2.703920263e-14
4.698000000e+00	2.051319905e+00	-9.656870290e-02	1.220440100e-14
4.697000000e+00	2.051319113e+00	-9.656823822e-02	1.375193239e-14
