# mu [eV]     Omega/c [1/micrones]    Im(epsi1)     Eq(det)R = 0.35 $\mu$m, $E_p$ = 0.300 eV, modo = 2, $\epsilon_\infty$ = 3.9, $\gamma_{DL}$ = 0.01 eV, solve_det_sinkz_vs_mu.py
3.000000000e-01	7.180530156e-01	-3.218855542e-01	4.744166075e-14
3.001000000e-01	7.180656590e-01	-3.218662292e-01	3.217926262e-14
3.002000000e-01	7.180783017e-01	-3.218469086e-01	1.828009128e-14
3.003000000e-01	7.180909438e-01	-3.218275926e-01	2.470128588e-14
3.004000000e-01	7.181035852e-01	-3.218082811e-01	3.064372971e-14
3.005000000e-01	7.181162260e-01	-3.217889742e-01	2.334470852e-14
3.006000000e-01	7.181288661e-01	-3.217696717e-01	3.434684461e-14
3.008000000e-01	7.181541444e-01	-3.217310802e-01	2.121613895e-14
3.009000000e-01	7.181667825e-01	-3.217117912e-01	1.070642240e-14
3.010000000e-01	7.181794200e-01	-3.216925067e-01	1.673816313e-14
3.011000000e-01	7.181920568e-01	-3.216732267e-01	4.896391372e-14
3.012000000e-01	7.182046930e-01	-3.216539511e-01	1.956668202e-14
3.013000000e-01	7.182173285e-01	-3.216346801e-01	4.127775264e-14
3.014000000e-01	7.182299633e-01	-3.216154135e-01	3.404513723e-14
3.015000000e-01	7.182425975e-01	-3.215961513e-01	1.988428345e-14
3.016000000e-01	7.182552311e-01	-3.215768937e-01	2.124700885e-14
3.017000000e-01	7.182678640e-01	-3.215576405e-01	5.695936089e-14
3.018000000e-01	7.182804962e-01	-3.215383917e-01	2.792709758e-14
3.019000000e-01	7.182931278e-01	-3.215191474e-01	1.399122414e-14
3.020000000e-01	7.183057587e-01	-3.214999076e-01	2.531380092e-14
3.021000000e-01	7.183183890e-01	-3.214806722e-01	1.598234546e-14
3.022000000e-01	7.183310187e-01	-3.214614412e-01	2.574012126e-14
3.023000000e-01	7.183436476e-01	-3.214422147e-01	2.192828390e-14
3.024000000e-01	7.183562760e-01	-3.214229926e-01	7.834381750e-14
3.025000000e-01	7.183689036e-01	-3.214037749e-01	2.802890245e-14
3.026000000e-01	7.183815307e-01	-3.213845617e-01	3.441300305e-14
3.027000000e-01	7.183941570e-01	-3.213653529e-01	2.536931651e-14
3.028000000e-01	7.184067828e-01	-3.213461485e-01	1.829999189e-14
3.029000000e-01	7.184194079e-01	-3.213269485e-01	5.383354135e-14
3.030000000e-01	7.184320323e-01	-3.213077529e-01	3.277214422e-14
3.031000000e-01	7.184446561e-01	-3.212885617e-01	2.990252859e-14
3.032000000e-01	7.184572792e-01	-3.212693749e-01	3.619724436e-14
3.033000000e-01	7.184699017e-01	-3.212501926e-01	2.330133434e-14
3.034000000e-01	7.184825235e-01	-3.212310146e-01	2.085198387e-14
3.035000000e-01	7.184951447e-01	-3.212118410e-01	4.389803583e-14
3.036000000e-01	7.185077653e-01	-3.211926718e-01	1.889761657e-14
3.037000000e-01	7.185203852e-01	-3.211735069e-01	3.885222645e-14
3.038000000e-01	7.185330045e-01	-3.211543465e-01	2.485077448e-14
3.039000000e-01	7.185456231e-01	-3.211351904e-01	4.402801839e-14
3.040000000e-01	7.185582411e-01	-3.211160387e-01	2.516605247e-14
3.041000000e-01	7.185708584e-01	-3.210968914e-01	2.354856737e-14
3.042000000e-01	7.185834751e-01	-3.210777484e-01	3.562660521e-14
3.043000000e-01	7.185960911e-01	-3.210586098e-01	3.531226151e-14
3.044000000e-01	7.186087065e-01	-3.210394755e-01	2.005851619e-14
3.045000000e-01	7.186213213e-01	-3.210203456e-01	2.101412837e-14
3.046000000e-01	7.186339354e-01	-3.210012200e-01	2.045393363e-14
3.047000000e-01	7.186465489e-01	-3.209820988e-01	5.199091686e-14
3.048000000e-01	7.186591618e-01	-3.209629819e-01	2.477726285e-14
3.049000000e-01	7.186717740e-01	-3.209438694e-01	5.361868228e-14
3.050000000e-01	7.186843855e-01	-3.209247612e-01	4.791300013e-14
3.051000000e-01	7.186969964e-01	-3.209056573e-01	2.887871051e-14
3.052000000e-01	7.187096067e-01	-3.208865577e-01	2.144189150e-14
3.053000000e-01	7.187222164e-01	-3.208674625e-01	2.896627350e-14
3.054000000e-01	7.187348254e-01	-3.208483715e-01	3.083122293e-14
3.055000000e-01	7.187474338e-01	-3.208292849e-01	2.413874893e-14
3.056000000e-01	7.187600415e-01	-3.208102026e-01	3.291693656e-14
3.057000000e-01	7.187726486e-01	-3.207911246e-01	3.201970618e-14
3.058000000e-01	7.187852551e-01	-3.207720509e-01	4.758147848e-14
3.059000000e-01	7.187978609e-01	-3.207529816e-01	2.788036173e-14
3.060000000e-01	7.188104661e-01	-3.207339164e-01	4.048656136e-14
3.061000000e-01	7.188230706e-01	-3.207148556e-01	2.914079350e-14
3.062000000e-01	7.188356746e-01	-3.206957991e-01	2.274551942e-14
3.063000000e-01	7.188482779e-01	-3.206767469e-01	3.785314447e-14
3.064000000e-01	7.188608805e-01	-3.206576989e-01	3.507250123e-14
3.065000000e-01	7.188734826e-01	-3.206386552e-01	1.992719723e-14
3.066000000e-01	7.188860839e-01	-3.206196158e-01	3.181381937e-14
3.067000000e-01	7.188986847e-01	-3.206005807e-01	1.740531902e-14
3.068000000e-01	7.189112848e-01	-3.205815498e-01	3.908470852e-14
3.069000000e-01	7.189238843e-01	-3.205625232e-01	2.176079387e-14
3.070000000e-01	7.189364832e-01	-3.205435008e-01	3.070796395e-14
3.071000000e-01	7.189490814e-01	-3.205244827e-01	2.458243213e-14
3.072000000e-01	7.189616790e-01	-3.205054689e-01	2.250912551e-14
3.073000000e-01	7.189742760e-01	-3.204864593e-01	5.224836132e-14
3.074000000e-01	7.189868724e-01	-3.204674539e-01	1.410071400e-14
3.075000000e-01	7.189994681e-01	-3.204484528e-01	3.838283970e-14
3.076000000e-01	7.190120632e-01	-3.204294559e-01	4.525836188e-14
3.077000000e-01	7.190246577e-01	-3.204104632e-01	1.435487707e-14
3.078000000e-01	7.190372515e-01	-3.203914748e-01	3.259657363e-14
3.079000000e-01	7.190498447e-01	-3.203724906e-01	3.347346702e-14
3.080000000e-01	7.190624373e-01	-3.203535106e-01	2.063212194e-14
3.081000000e-01	7.190750292e-01	-3.203345348e-01	1.619445492e-14
3.082000000e-01	7.190876206e-01	-3.203155633e-01	2.918873776e-14
3.083000000e-01	7.191002113e-01	-3.202965959e-01	2.463573638e-14
3.084000000e-01	7.191128014e-01	-3.202776328e-01	2.892012340e-14
3.085000000e-01	7.191253908e-01	-3.202586739e-01	3.316008833e-14
3.086000000e-01	7.191379797e-01	-3.202397192e-01	1.842121205e-14
3.087000000e-01	7.191505679e-01	-3.202207686e-01	1.414743131e-14
3.088000000e-01	7.191631554e-01	-3.202018223e-01	3.551900502e-14
3.089000000e-01	7.191757424e-01	-3.201828801e-01	2.499545571e-14
3.090000000e-01	7.191883288e-01	-3.201639422e-01	2.065932813e-14
3.091000000e-01	7.192009145e-01	-3.201450084e-01	6.352948100e-14
3.092000000e-01	7.192134996e-01	-3.201260788e-01	3.279090004e-14
3.093000000e-01	7.192260840e-01	-3.201071533e-01	3.048250354e-14
3.094000000e-01	7.192386679e-01	-3.200882321e-01	3.093725467e-14
3.095000000e-01	7.192512511e-01	-3.200693150e-01	2.780650020e-14
3.096000000e-01	7.192638338e-01	-3.200504020e-01	2.495444572e-14
3.097000000e-01	7.192764157e-01	-3.200314933e-01	4.066594920e-14
3.098000000e-01	7.192889971e-01	-3.200125887e-01	2.970120082e-14
3.099000000e-01	7.193015779e-01	-3.199936882e-01	4.650277118e-14
3.100000000e-01	7.193141580e-01	-3.199747919e-01	1.524454385e-14
3.101000000e-01	7.193267375e-01	-3.199558997e-01	3.490236264e-14
3.102000000e-01	7.193393165e-01	-3.199370117e-01	7.798652403e-14
3.103000000e-01	7.193518947e-01	-3.199181278e-01	2.185888960e-14
3.104000000e-01	7.193644724e-01	-3.198992481e-01	3.949119829e-14
3.105000000e-01	7.193770495e-01	-3.198803725e-01	2.647212715e-14
3.106000000e-01	7.193896259e-01	-3.198615010e-01	1.921343410e-14
3.107000000e-01	7.194022017e-01	-3.198426336e-01	2.623395073e-14
3.108000000e-01	7.194147769e-01	-3.198237704e-01	2.850164035e-14
3.109000000e-01	7.194273515e-01	-3.198049113e-01	2.864774014e-14
3.110000000e-01	7.194399255e-01	-3.197860563e-01	1.719977627e-14
3.111000000e-01	7.194524989e-01	-3.197672054e-01	3.531178432e-14
3.112000000e-01	7.194650716e-01	-3.197483586e-01	1.561247838e-14
3.113000000e-01	7.194776438e-01	-3.197295160e-01	2.021174916e-14
3.114000000e-01	7.194902153e-01	-3.197106774e-01	2.477173269e-14
3.115000000e-01	7.195027862e-01	-3.196918429e-01	2.748395526e-14
3.116000000e-01	7.195153565e-01	-3.196730125e-01	1.677462120e-14
3.117000000e-01	7.195279262e-01	-3.196541863e-01	6.593973851e-14
3.118000000e-01	7.195404953e-01	-3.196353641e-01	4.176686232e-14
3.119000000e-01	7.195530637e-01	-3.196165459e-01	3.553925202e-14
3.120000000e-01	7.195656316e-01	-3.195977319e-01	2.706780897e-14
3.121000000e-01	7.195781989e-01	-3.195789219e-01	2.889970412e-14
3.122000000e-01	7.195907655e-01	-3.195601161e-01	3.315602717e-14
3.123000000e-01	7.196033315e-01	-3.195413143e-01	1.055822428e-14
3.124000000e-01	7.196158969e-01	-3.195225165e-01	1.517216261e-14
3.125000000e-01	7.196284618e-01	-3.195037228e-01	2.405052885e-14
3.126000000e-01	7.196410260e-01	-3.194849332e-01	3.335288283e-14
3.127000000e-01	7.196535896e-01	-3.194661477e-01	4.724171140e-14
3.128000000e-01	7.196661526e-01	-3.194473661e-01	1.178407011e-14
3.129000000e-01	7.196787149e-01	-3.194285887e-01	3.619888044e-14
3.130000000e-01	7.196912767e-01	-3.194098153e-01	4.639477752e-14
3.131000000e-01	7.197038379e-01	-3.193910459e-01	2.182226450e-14
3.132000000e-01	7.197163985e-01	-3.193722806e-01	5.034417474e-14
3.133000000e-01	7.197289584e-01	-3.193535193e-01	4.808414531e-14
3.134000000e-01	7.197415178e-01	-3.193347621e-01	1.815329387e-14
3.135000000e-01	7.197540765e-01	-3.193160088e-01	2.006904105e-14
3.136000000e-01	7.197666347e-01	-3.192972596e-01	3.075939605e-14
3.137000000e-01	7.197791922e-01	-3.192785145e-01	1.878961387e-14
3.138000000e-01	7.197917492e-01	-3.192597733e-01	1.375240628e-14
3.139000000e-01	7.198043055e-01	-3.192410362e-01	2.592896545e-14
3.140000000e-01	7.198168612e-01	-3.192223031e-01	1.346743787e-14
3.141000000e-01	7.198294164e-01	-3.192035740e-01	2.459723591e-14
3.142000000e-01	7.198419709e-01	-3.191848489e-01	1.017943485e-14
3.143000000e-01	7.198545248e-01	-3.191661278e-01	2.786691800e-14
3.144000000e-01	7.198670782e-01	-3.191474107e-01	3.003519765e-14
3.145000000e-01	7.198796309e-01	-3.191286976e-01	1.547641694e-14
3.146000000e-01	7.198921830e-01	-3.191099885e-01	4.080608127e-14
3.147000000e-01	7.199047346e-01	-3.190912834e-01	2.231338277e-14
3.148000000e-01	7.199172855e-01	-3.190725822e-01	4.319934922e-14
3.149000000e-01	7.199298358e-01	-3.190538851e-01	2.000732595e-14
3.150000000e-01	7.199423856e-01	-3.190351919e-01	2.738388166e-14
3.151000000e-01	7.199549347e-01	-3.190165028e-01	5.877566146e-14
3.152000000e-01	7.199674832e-01	-3.189978175e-01	1.650827032e-14
3.153000000e-01	7.199800312e-01	-3.189791363e-01	9.384709711e-15
3.154000000e-01	7.199925785e-01	-3.189604590e-01	3.739922761e-14
3.155000000e-01	7.200051253e-01	-3.189417857e-01	2.893933182e-14
3.156000000e-01	7.200176714e-01	-3.189231164e-01	2.317501075e-14
3.157000000e-01	7.200302170e-01	-3.189044510e-01	2.733774470e-14
3.158000000e-01	7.200427619e-01	-3.188857896e-01	3.328777241e-14
3.159000000e-01	7.200553063e-01	-3.188671321e-01	3.212826207e-14
3.160000000e-01	7.200678501e-01	-3.188484786e-01	5.406349690e-14
3.161000000e-01	7.200803932e-01	-3.188298290e-01	2.481035186e-14
3.162000000e-01	7.200929358e-01	-3.188111834e-01	3.164255252e-14
3.163000000e-01	7.201054778e-01	-3.187925417e-01	2.342108322e-14
3.164000000e-01	7.201180192e-01	-3.187739040e-01	1.806444011e-14
3.165000000e-01	7.201305600e-01	-3.187552701e-01	2.794458484e-14
3.166000000e-01	7.201431002e-01	-3.187366402e-01	5.626565382e-15
3.167000000e-01	7.201556398e-01	-3.187180143e-01	2.083823830e-14
3.168000000e-01	7.201681788e-01	-3.186993922e-01	4.264682061e-14
3.169000000e-01	7.201807173e-01	-3.186807741e-01	2.671254319e-14
3.170000000e-01	7.201932551e-01	-3.186621599e-01	3.101490414e-14
3.171000000e-01	7.202057924e-01	-3.186435496e-01	2.984047550e-14
3.172000000e-01	7.202183290e-01	-3.186249432e-01	4.463206024e-14
3.173000000e-01	7.202308651e-01	-3.186063407e-01	4.392421856e-14
3.174000000e-01	7.202434006e-01	-3.185877422e-01	2.684688739e-14
3.175000000e-01	7.202559355e-01	-3.185691475e-01	6.822179089e-14
3.176000000e-01	7.202684698e-01	-3.185505567e-01	2.956513563e-14
3.177000000e-01	7.202810035e-01	-3.185319699e-01	2.908285074e-14
3.178000000e-01	7.202935366e-01	-3.185133869e-01	5.375997431e-14
3.179000000e-01	7.203060692e-01	-3.184948078e-01	1.039022050e-14
3.180000000e-01	7.203186011e-01	-3.184762326e-01	2.355176599e-14
3.181000000e-01	7.203311325e-01	-3.184576612e-01	2.683636876e-14
3.182000000e-01	7.203436633e-01	-3.184390938e-01	2.288569204e-14
3.183000000e-01	7.203561934e-01	-3.184205302e-01	3.611769296e-14
3.184000000e-01	7.203687231e-01	-3.184019705e-01	5.146169441e-14
3.185000000e-01	7.203812521e-01	-3.183834147e-01	2.101223897e-14
3.186000000e-01	7.203937805e-01	-3.183648628e-01	6.036903416e-14
3.187000000e-01	7.204063084e-01	-3.183463147e-01	2.092311611e-14
3.188000000e-01	7.204188356e-01	-3.183277704e-01	3.147058892e-14
3.189000000e-01	7.204313623e-01	-3.183092301e-01	2.261732904e-14
3.190000000e-01	7.204438884e-01	-3.182906935e-01	2.454300629e-14
3.191000000e-01	7.204564139e-01	-3.182721609e-01	2.828608200e-14
3.192000000e-01	7.204689389e-01	-3.182536321e-01	3.470943854e-14
3.193000000e-01	7.204814632e-01	-3.182351071e-01	3.099692274e-14
3.194000000e-01	7.204939870e-01	-3.182165860e-01	4.309199284e-14
3.195000000e-01	7.205065102e-01	-3.181980687e-01	5.212526547e-14
3.196000000e-01	7.205190328e-01	-3.181795552e-01	3.049758217e-14
3.197000000e-01	7.205315548e-01	-3.181610456e-01	3.820208925e-14
3.198000000e-01	7.205440762e-01	-3.181425398e-01	2.946727451e-14
3.199000000e-01	7.205565971e-01	-3.181240378e-01	2.321039372e-14
3.200000000e-01	7.205691174e-01	-3.181055397e-01	4.244307151e-14
3.201000000e-01	7.205816371e-01	-3.180870454e-01	4.351975046e-14
3.202000000e-01	7.205941562e-01	-3.180685549e-01	3.063906821e-14
3.203000000e-01	7.206066747e-01	-3.180500682e-01	1.321672261e-14
3.204000000e-01	7.206191927e-01	-3.180315853e-01	2.162002449e-14
3.205000000e-01	7.206317101e-01	-3.180131063e-01	2.034292018e-14
3.206000000e-01	7.206442269e-01	-3.179946310e-01	3.878997632e-14
3.207000000e-01	7.206567431e-01	-3.179761596e-01	2.082247062e-14
3.208000000e-01	7.206692588e-01	-3.179576919e-01	3.264379393e-14
3.209000000e-01	7.206817739e-01	-3.179392281e-01	3.373668965e-14
3.210000000e-01	7.206942884e-01	-3.179207680e-01	3.194640624e-14
3.211000000e-01	7.207068023e-01	-3.179023118e-01	2.701746559e-14
3.212000000e-01	7.207193156e-01	-3.178838593e-01	2.792402318e-14
3.213000000e-01	7.207318284e-01	-3.178654106e-01	2.424473982e-14
3.214000000e-01	7.207443406e-01	-3.178469657e-01	3.281939074e-14
3.215000000e-01	7.207568522e-01	-3.178285245e-01	2.580450566e-14
3.216000000e-01	7.207693633e-01	-3.178100872e-01	2.409432281e-14
3.217000000e-01	7.207818738e-01	-3.177916536e-01	2.028821633e-14
3.218000000e-01	7.207943837e-01	-3.177732238e-01	1.272958976e-14
3.219000000e-01	7.208068930e-01	-3.177547978e-01	3.284894248e-14
3.220000000e-01	7.208194018e-01	-3.177363755e-01	3.049930400e-14
3.221000000e-01	7.208319099e-01	-3.177179570e-01	2.679489416e-14
3.222000000e-01	7.208444175e-01	-3.176995422e-01	3.150199916e-14
3.223000000e-01	7.208569246e-01	-3.176811312e-01	3.102769181e-14
3.224000000e-01	7.208694311e-01	-3.176627240e-01	2.021550610e-14
3.225000000e-01	7.208819369e-01	-3.176443205e-01	2.710153985e-14
3.226000000e-01	7.208944423e-01	-3.176259207e-01	2.785069970e-14
3.227000000e-01	7.209069470e-01	-3.176075247e-01	2.434014569e-14
3.228000000e-01	7.209194512e-01	-3.175891325e-01	3.282360876e-14
3.229000000e-01	7.209319548e-01	-3.175707440e-01	1.919113708e-14
3.230000000e-01	7.209444579e-01	-3.175523592e-01	1.851133614e-14
3.231000000e-01	7.209569603e-01	-3.175339781e-01	3.190400624e-14
3.232000000e-01	7.209694623e-01	-3.175156008e-01	1.991828834e-14
3.233000000e-01	7.209819636e-01	-3.174972272e-01	4.337280357e-14
3.234000000e-01	7.209944644e-01	-3.174788573e-01	1.771155116e-14
3.235000000e-01	7.210069646e-01	-3.174604912e-01	2.097959311e-14
3.236000000e-01	7.210194642e-01	-3.174421287e-01	3.243728066e-14
3.237000000e-01	7.210319633e-01	-3.174237700e-01	4.420660793e-14
3.238000000e-01	7.210444618e-01	-3.174054150e-01	3.783727772e-14
3.239000000e-01	7.210569597e-01	-3.173870637e-01	2.529119006e-14
3.240000000e-01	7.210694571e-01	-3.173687161e-01	1.320196956e-14
3.241000000e-01	7.210819539e-01	-3.173503722e-01	3.761889175e-14
3.242000000e-01	7.210944501e-01	-3.173320321e-01	3.626076695e-14
3.243000000e-01	7.211069458e-01	-3.173136956e-01	2.896914543e-14
3.244000000e-01	7.211194409e-01	-3.172953628e-01	2.478135395e-14
3.245000000e-01	7.211319354e-01	-3.172770337e-01	3.421561236e-14
3.246000000e-01	7.211444294e-01	-3.172587083e-01	3.212735636e-14
3.247000000e-01	7.211569228e-01	-3.172403866e-01	6.942515050e-14
3.248000000e-01	7.211694157e-01	-3.172220685e-01	4.518512289e-14
3.249000000e-01	7.211819080e-01	-3.172037542e-01	2.642804937e-14
3.250000000e-01	7.211943997e-01	-3.171854435e-01	2.906507851e-14
3.251000000e-01	7.212068909e-01	-3.171671365e-01	3.443099941e-14
3.252000000e-01	7.212193815e-01	-3.171488332e-01	2.943396371e-14
3.253000000e-01	7.212318715e-01	-3.171305335e-01	2.473640907e-14
3.254000000e-01	7.212443610e-01	-3.171122375e-01	3.639675978e-14
3.255000000e-01	7.212568499e-01	-3.170939452e-01	1.601390560e-14
3.256000000e-01	7.212693383e-01	-3.170756565e-01	2.461586502e-14
3.257000000e-01	7.212818261e-01	-3.170573715e-01	2.220614308e-14
3.258000000e-01	7.212943133e-01	-3.170390902e-01	3.331109280e-14
3.259000000e-01	7.213068000e-01	-3.170208125e-01	2.536382592e-14
3.260000000e-01	7.213192861e-01	-3.170025384e-01	1.032650229e-14
3.261000000e-01	7.213317717e-01	-3.169842681e-01	1.721984093e-14
3.262000000e-01	7.213442567e-01	-3.169660013e-01	2.888108732e-14
3.263000000e-01	7.213567411e-01	-3.169477382e-01	2.333377209e-14
3.264000000e-01	7.213692250e-01	-3.169294787e-01	2.940518710e-14
3.265000000e-01	7.213817083e-01	-3.169112229e-01	7.039974674e-15
3.266000000e-01	7.213941911e-01	-3.168929707e-01	1.691301359e-14
3.267000000e-01	7.214066733e-01	-3.168747221e-01	1.918725513e-14
3.268000000e-01	7.214191550e-01	-3.168564772e-01	2.741511575e-14
3.269000000e-01	7.214316361e-01	-3.168382359e-01	2.700672471e-14
3.270000000e-01	7.214441166e-01	-3.168199982e-01	3.404887668e-14
3.271000000e-01	7.214565966e-01	-3.168017641e-01	1.510307156e-14
3.272000000e-01	7.214690760e-01	-3.167835337e-01	1.688567184e-14
3.273000000e-01	7.214815549e-01	-3.167653068e-01	5.425342712e-14
3.274000000e-01	7.214940332e-01	-3.167470836e-01	1.278354678e-14
3.275000000e-01	7.215065110e-01	-3.167288640e-01	8.035137098e-15
3.276000000e-01	7.215189882e-01	-3.167106480e-01	5.107454042e-14
3.277000000e-01	7.215314649e-01	-3.166924356e-01	2.024615250e-14
3.278000000e-01	7.215439410e-01	-3.166742268e-01	6.869230947e-14
3.279000000e-01	7.215564165e-01	-3.166560216e-01	2.928671272e-14
3.280000000e-01	7.215688915e-01	-3.166378200e-01	2.340632606e-14
3.281000000e-01	7.215813660e-01	-3.166196219e-01	3.003304196e-14
3.282000000e-01	7.215938399e-01	-3.166014275e-01	3.237578261e-14
3.283000000e-01	7.216063132e-01	-3.165832367e-01	2.948136301e-14
3.284000000e-01	7.216187860e-01	-3.165650494e-01	3.195384074e-14
3.285000000e-01	7.216312583e-01	-3.165468658e-01	1.517157756e-14
3.286000000e-01	7.216437300e-01	-3.165286857e-01	1.732494780e-14
3.287000000e-01	7.216562011e-01	-3.165105092e-01	4.268458929e-14
3.288000000e-01	7.216686717e-01	-3.164923362e-01	3.499756704e-14
3.289000000e-01	7.216811417e-01	-3.164741669e-01	2.874350931e-14
3.290000000e-01	7.216936112e-01	-3.164560011e-01	4.205744649e-14
3.291000000e-01	7.217060802e-01	-3.164378388e-01	1.826933811e-14
3.292000000e-01	7.217185486e-01	-3.164196802e-01	2.063840928e-14
3.293000000e-01	7.217310164e-01	-3.164015250e-01	3.545135453e-14
3.294000000e-01	7.217434837e-01	-3.163833735e-01	2.927728636e-14
3.295000000e-01	7.217559505e-01	-3.163652255e-01	3.159453086e-14
3.296000000e-01	7.217684167e-01	-3.163470811e-01	7.783575135e-15
3.297000000e-01	7.217808823e-01	-3.163289402e-01	4.987315996e-14
3.298000000e-01	7.217933474e-01	-3.163108028e-01	5.065396210e-14
3.299000000e-01	7.218058120e-01	-3.162926690e-01	1.828186584e-14
3.300000000e-01	7.218182760e-01	-3.162745388e-01	2.599234004e-14
3.301000000e-01	7.218307395e-01	-3.162564121e-01	1.977992916e-14
3.302000000e-01	7.218432024e-01	-3.162382889e-01	2.729527250e-14
3.303000000e-01	7.218556648e-01	-3.162201693e-01	3.047659343e-14
3.304000000e-01	7.218681266e-01	-3.162020531e-01	1.341785498e-14
