# mu [eV]     Im(epsi1)     Im(omega/c)      Re(omega/c), R = 0.1 $\mu$m, $E_p$ = 0.600 eV, modo = 1, $\epsilon_\infty$ = 3.9, $\gamma_{DL}$ = 0.01 eV, critical_values_vs_mu.py
3.00000000000e-01	-1.88036644125e-01	-5.42101086243e-19	1.41936676770e+00
3.01000000000e-01	-1.87847890211e-01	-1.40607469244e-18	1.41962933848e+00
3.02000000000e-01	-1.87660546185e-01	-5.48877349821e-19	1.41989146505e+00
3.03000000000e-01	-1.87474588502e-01	8.13151629364e-19	1.42015315443e+00
3.04000000000e-01	-1.87289994934e-01	1.89735380185e-18	1.42041441124e+00
3.05000000000e-01	-1.87106743739e-01	1.16551733542e-18	1.42067524004e+00
3.06000000000e-01	-1.86924815322e-01	-1.13333008343e-18	1.42093564281e+00
3.07000000000e-01	-1.86744189558e-01	2.84603070277e-19	1.42119562269e+00
3.08000000000e-01	-1.86564843727e-01	9.48676900925e-19	1.42145518902e+00
3.09000000000e-01	-1.86386757914e-01	-1.00288700955e-18	1.42171434601e+00
3.10000000000e-01	-1.86209912628e-01	-1.88380127469e-18	1.42197309818e+00
3.11000000000e-01	-1.86034288796e-01	-1.02999206386e-18	1.42223144967e+00
3.12000000000e-01	-1.85859870858e-01	5.42101086243e-19	1.42248939933e+00
3.13000000000e-01	-1.85686638167e-01	-5.14996031931e-19	1.42274695573e+00
3.14000000000e-01	-1.85514572067e-01	-1.49077798717e-19	1.42300412425e+00
3.15000000000e-01	-1.85343655036e-01	6.50521303491e-19	1.42326090910e+00
3.16000000000e-01	-1.85173869917e-01	1.53143556864e-18	1.42351731453e+00
3.17000000000e-01	-1.85005199961e-01	-2.16840434497e-19	1.42377334395e+00
3.18000000000e-01	-1.84837632138e-01	-1.40268656065e-18	1.42402899539e+00
3.19000000000e-01	-1.84671146993e-01	-9.14795583035e-19	1.42428427831e+00
3.20000000000e-01	-1.84505728556e-01	2.98155597434e-19	1.42453919754e+00
3.21000000000e-01	-1.84341361349e-01	2.71050543121e-19	1.42479375628e+00
3.22000000000e-01	-1.84178030207e-01	7.86046575052e-19	1.42504795839e+00
3.23000000000e-01	-1.84015720266e-01	0.00000000000e+00	1.42530180740e+00
3.24000000000e-01	-1.83854420186e-01	1.04354459102e-18	1.42555530099e+00
3.25000000000e-01	-1.83694112793e-01	1.09097843606e-18	1.42580844795e+00
3.26000000000e-01	-1.83534783743e-01	-1.26038502551e-18	1.42606125234e+00
3.27000000000e-01	-1.83376419313e-01	1.42301535139e-18	1.42631371795e+00
3.28000000000e-01	-1.83219006047e-01	9.48676900925e-19	1.42656584800e+00
3.29000000000e-01	-1.83062530752e-01	1.51788304148e-18	1.42681764554e+00
3.30000000000e-01	-1.82906982548e-01	1.34170018845e-18	1.42706910996e+00
3.31000000000e-01	-1.82752348054e-01	1.89735380185e-19	1.42732024610e+00
3.32000000000e-01	-1.82598613439e-01	-1.62630325873e-18	1.42757105951e+00
3.33000000000e-01	-1.82445766495e-01	-1.89735380185e-18	1.42782155346e+00
3.34000000000e-01	-1.82293795241e-01	-1.23327997120e-18	1.42807173088e+00
3.35000000000e-01	-1.82142687926e-01	1.04354459102e-18	1.42832159475e+00
3.36000000000e-01	-1.81992433183e-01	1.87422768481e-16	1.42857114788e+00
3.37000000000e-01	-1.81843022666e-01	-8.63973606199e-19	1.42882038767e+00
3.38000000000e-01	-1.81694442118e-01	-1.05032085460e-18	1.42906932297e+00
3.39000000000e-01	-1.81546680638e-01	-1.84314369323e-18	1.42931795639e+00
3.40000000000e-01	-1.81399727526e-01	-8.67361737988e-19	1.42956629109e+00
3.41000000000e-01	-1.81253572279e-01	-1.76182853029e-18	1.42981432969e+00
3.42000000000e-01	-1.81108204584e-01	-7.58941520740e-19	1.43006207494e+00
3.43000000000e-01	-1.80963615119e-01	1.58141051252e-18	1.43030952806e+00
3.44000000000e-01	-1.80819795512e-01	-1.56192875474e-18	1.43055668866e+00
3.45000000000e-01	-1.80676733615e-01	1.87024874754e-18	1.43080356389e+00
3.46000000000e-01	-1.80534419840e-01	1.59919820442e-18	1.43105015642e+00
3.47000000000e-01	-1.80392844771e-01	2.84603070277e-19	1.43129646891e+00
3.48000000000e-01	-1.80251999158e-01	1.49077798717e-19	1.43154250368e+00
3.49000000000e-01	-1.80111873913e-01	3.79470760370e-19	1.43178826340e+00
3.50000000000e-01	-1.79972460718e-01	1.51025974495e-18	1.43203374956e+00
3.51000000000e-01	-1.79833752646e-01	1.48400172359e-18	1.43227896036e+00
3.52000000000e-01	-1.79695738617e-01	-1.76182853029e-19	1.43252390347e+00
3.53000000000e-01	-1.79558410165e-01	-7.45388993584e-19	1.43276858125e+00
3.54000000000e-01	-1.79421758968e-01	6.23416249179e-19	1.43301299586e+00
3.55000000000e-01	-1.79285776848e-01	1.66696084020e-18	1.43325714933e+00
3.56000000000e-01	-1.79150455767e-01	1.13841228111e-18	1.43350104454e+00
3.57000000000e-01	-1.79015787825e-01	5.42101086243e-20	1.43374468351e+00
3.58000000000e-01	-1.78881767852e-01	-4.94667241197e-19	1.43398806320e+00
3.59000000000e-01	-1.78748385951e-01	1.05709711817e-18	1.43423119006e+00
3.60000000000e-01	-1.78615634269e-01	-9.48676900925e-20	1.43447406748e+00
3.61000000000e-01	-1.78483505424e-01	-1.91090632901e-18	1.43471669732e+00
3.62000000000e-01	-1.78351992158e-01	-6.36968776335e-19	1.43495908127e+00
3.63000000000e-01	-1.78221087334e-01	1.09775469964e-18	1.43520122198e+00
3.64000000000e-01	-1.78090783934e-01	1.27393755267e-18	1.43544312101e+00
3.65000000000e-01	-1.77961075905e-01	-5.48030316874e-19	1.43568477909e+00
3.66000000000e-01	-1.77831957584e-01	-1.38913403350e-18	1.43592619612e+00
3.67000000000e-01	-1.77703420302e-01	6.50521303491e-19	1.43616737732e+00
3.68000000000e-01	-1.77575457490e-01	1.14518854469e-18	1.43640832523e+00
3.69000000000e-01	-1.77448062681e-01	-8.94466792301e-19	1.43664904136e+00
3.70000000000e-01	-1.77321229517e-01	1.55854062295e-18	1.43688952785e+00
3.71000000000e-01	-1.77194951740e-01	1.89735380185e-18	1.43712978639e+00
3.72000000000e-01	-1.77069223192e-01	-1.81603863891e-18	1.43736981891e+00
3.73000000000e-01	-1.76944039035e-01	1.21295118047e-18	1.43760962494e+00
3.74000000000e-01	-1.76819393587e-01	-9.41900637347e-19	1.43784920568e+00
3.75000000000e-01	-1.76695279467e-01	-5.69206140555e-19	1.43808856588e+00
3.76000000000e-01	-1.76571690896e-01	-9.48676900925e-20	1.43832770708e+00
3.77000000000e-01	-1.76448622189e-01	-1.54498809579e-18	1.43856663112e+00
3.78000000000e-01	-1.76326067748e-01	9.48676900925e-19	1.43880533986e+00
3.79000000000e-01	-1.76204022061e-01	4.06575814682e-20	1.43904383480e+00
3.80000000000e-01	-1.76082479705e-01	2.16840434497e-19	1.43928211781e+00
3.81000000000e-01	-1.75961436177e-01	1.76098149734e-18	1.43952018855e+00
3.82000000000e-01	-1.75840887165e-01	5.89534931289e-19	1.43975804715e+00
3.83000000000e-01	-1.75720825695e-01	1.41623908781e-18	1.43999569838e+00
3.84000000000e-01	-1.75601246664e-01	-1.01643953671e-18	1.44023314438e+00
3.85000000000e-01	-1.75482145050e-01	1.09775469964e-18	1.44047038589e+00
3.86000000000e-01	-1.75363515907e-01	5.55653613399e-19	1.44070742537e+00
3.87000000000e-01	-1.75245354361e-01	-1.89735380185e-19	1.44094426389e+00
3.88000000000e-01	-1.75127655613e-01	1.27393755267e-18	1.44118090265e+00
3.89000000000e-01	-1.75010414935e-01	-6.50521303491e-19	1.44141734384e+00
3.90000000000e-01	-1.74893629981e-01	-1.82620303428e-18	1.44165358406e+00
3.91000000000e-01	-1.74777294070e-01	8.80914265144e-19	1.44188962866e+00
3.92000000000e-01	-1.74661402454e-01	6.77626357803e-20	1.44212547979e+00
3.93000000000e-01	-1.74545950680e-01	-7.45388993584e-19	1.44236113877e+00
3.94000000000e-01	-1.74430934357e-01	1.08420217249e-18	1.44259660732e+00
3.95000000000e-01	-1.74316349162e-01	-8.53809210832e-19	1.44283188625e+00
3.96000000000e-01	-1.74202190832e-01	8.67361737988e-19	1.44306697774e+00
3.97000000000e-01	-1.74088455166e-01	7.04731412116e-19	1.44330188211e+00
3.98000000000e-01	-1.73975138564e-01	1.07615535949e-18	1.44353660066e+00
3.99000000000e-01	-1.73862238312e-01	-1.00966327313e-18	1.44377113148e+00
4.00000000000e-01	-1.73749748476e-01	-8.80914265144e-20	1.44400547957e+00
4.01000000000e-01	-1.73637665090e-01	7.92822838630e-19	1.44423964639e+00
4.02000000000e-01	-1.73525984246e-01	-3.11708124590e-19	1.44447363326e+00
4.03000000000e-01	-1.73414702092e-01	6.09863722023e-19	1.44470744174e+00
4.04000000000e-01	-1.73303814829e-01	5.14996031931e-19	1.44494107252e+00
4.05000000000e-01	-1.73193318711e-01	7.18283939272e-19	1.44517452727e+00
4.06000000000e-01	-1.73083210045e-01	1.46367293286e-18	1.44540780685e+00
4.07000000000e-01	-1.72973485763e-01	1.49924831664e-19	1.44564091174e+00
4.08000000000e-01	-1.72864143488e-01	-1.75166413492e-18	1.44587384041e+00
4.09000000000e-01	-1.72755177886e-01	7.72494047896e-19	1.44610659766e+00
4.10000000000e-01	-1.72646585464e-01	1.62630325873e-19	1.44633918484e+00
4.11000000000e-01	-1.72538362779e-01	-5.01443504775e-19	1.44657160297e+00
4.12000000000e-01	-1.72430506433e-01	1.04354459102e-18	1.44680385328e+00
4.13000000000e-01	-1.72323013074e-01	7.45388993584e-19	1.44703593702e+00
4.14000000000e-01	-1.72215879399e-01	-4.74338450462e-19	1.44726785497e+00
4.15000000000e-01	-1.72109102146e-01	-1.89735380185e-18	1.44749960844e+00
4.16000000000e-01	-1.72002678128e-01	9.75781955237e-19	1.44773119845e+00
4.17000000000e-01	-1.71896606307e-01	-9.63923493975e-19	1.44796262184e+00
4.18000000000e-01	-1.71790881468e-01	-1.77876918923e-18	1.44819388373e+00
4.19000000000e-01	-1.71685500436e-01	4.94667241197e-19	1.44842498566e+00
4.20000000000e-01	-1.71580460163e-01	1.53821183221e-18	1.44865592833e+00
4.21000000000e-01	-1.71475757641e-01	-2.16840434497e-19	1.44888671298e+00
4.22000000000e-01	-1.71371389903e-01	1.30104260698e-18	1.44911734056e+00
4.23000000000e-01	-1.71267354019e-01	9.08019319457e-19	1.44934781223e+00
4.24000000000e-01	-1.71163647100e-01	1.35525271561e-19	1.44957812884e+00
4.25000000000e-01	-1.71060266293e-01	2.16840434497e-19	1.44980829155e+00
4.26000000000e-01	-1.70957209698e-01	4.84502845829e-19	1.45003829937e+00
4.27000000000e-01	-1.70854474904e-01	2.71050543121e-20	1.45026815238e+00
4.28000000000e-01	-1.70752057878e-01	-5.62429876977e-19	1.45049785438e+00
4.29000000000e-01	-1.70649955914e-01	5.75982404133e-19	1.45072740653e+00
4.30000000000e-01	-1.70548166338e-01	-1.26038502551e-18	1.45095680934e+00
4.31000000000e-01	-1.70446686512e-01	-1.49077798717e-19	1.45118606385e+00
4.32000000000e-01	-1.70345513829e-01	1.04354459102e-18	1.45141517102e+00
4.33000000000e-01	-1.70244645719e-01	4.60785923306e-19	1.45164413192e+00
4.34000000000e-01	-1.70144079642e-01	1.76182853029e-18	1.45187294749e+00
4.35000000000e-01	-1.70043813091e-01	-2.16840434497e-19	1.45210161838e+00
4.36000000000e-01	-1.69943844786e-01	-1.50433051432e-18	1.45233014293e+00
4.37000000000e-01	-1.69844172014e-01	-1.01643953671e-18	1.45255852319e+00
4.38000000000e-01	-1.69744791428e-01	5.48877349821e-19	1.45278676127e+00
4.39000000000e-01	-1.69645700643e-01	-7.45388993584e-20	1.45301485835e+00
4.40000000000e-01	-1.69546897305e-01	-3.11708124590e-19	1.45324281510e+00
4.41000000000e-01	-1.69448379087e-01	7.86046575052e-19	1.45347063260e+00
4.42000000000e-01	-1.69350143694e-01	-9.48676900925e-20	1.45369831149e+00
4.43000000000e-01	-1.69252188856e-01	1.62630325873e-19	1.45392585281e+00
4.44000000000e-01	-1.69154512332e-01	-7.58941520740e-19	1.45415325709e+00
4.45000000000e-01	-1.69057111910e-01	-1.00288700955e-18	1.45438052553e+00
4.46000000000e-01	-1.68959986250e-01	6.26804380968e-20	1.45460765691e+00
4.47000000000e-01	-1.68863133552e-01	-6.36968776335e-19	1.45483465135e+00
4.48000000000e-01	-1.68766550468e-01	7.25060202850e-19	1.45506151188e+00
4.49000000000e-01	-1.68670234892e-01	5.42101086243e-20	1.45528823969e+00
4.50000000000e-01	-1.68574184739e-01	1.49077798717e-18	1.45551483547e+00
4.51000000000e-01	-1.68478397951e-01	-6.77626357803e-19	1.45574129982e+00
4.52000000000e-01	-1.68382872495e-01	1.50433051432e-18	1.45596763352e+00
4.53000000000e-01	-1.68287606361e-01	1.92445885616e-18	1.45619383748e+00
4.54000000000e-01	-1.68192597564e-01	6.50521303491e-19	1.45641991234e+00
4.55000000000e-01	-1.68097844140e-01	-1.62630325873e-18	1.45664585879e+00
4.56000000000e-01	-1.68003344152e-01	7.58941520740e-19	1.45687167761e+00
4.57000000000e-01	-1.67909097603e-01	1.58733974315e-18	1.45709736532e+00
4.58000000000e-01	-1.67815100744e-01	1.99560962373e-18	1.45732292702e+00
4.59000000000e-01	-1.67721351633e-01	-1.42301535139e-19	1.45754836304e+00
4.60000000000e-01	-1.67627848419e-01	-2.77826806699e-19	1.45777367426e+00
4.61000000000e-01	-1.67534589275e-01	1.35525271561e-19	1.45799886157e+00
4.62000000000e-01	-1.67441572391e-01	9.62229428081e-19	1.45822392516e+00
4.63000000000e-01	-1.67348795982e-01	1.91090632901e-18	1.45844886626e+00
4.64000000000e-01	-1.67256258280e-01	5.42101086243e-20	1.45867368540e+00
4.65000000000e-01	-1.67163957540e-01	-2.01932654625e-18	1.45889838285e+00
4.66000000000e-01	-1.67071892034e-01	1.70761842166e-18	1.45912295968e+00
4.67000000000e-01	-1.66980060475e-01	-1.66865490609e-19	1.45934741567e+00
4.68000000000e-01	-1.66888462264e-01	1.91090632901e-18	1.45957174909e+00
4.69000000000e-01	-1.66797094221e-01	-1.61952699515e-18	1.45979596391e+00
4.70000000000e-01	-1.66705954696e-01	-3.65918233214e-19	1.46002006019e+00
4.71000000000e-01	-1.66615042058e-01	5.62429876977e-19	1.46024403917e+00
4.72000000000e-01	-1.66524354695e-01	-1.34170018845e-18	1.46046790135e+00
4.73000000000e-01	-1.66433891010e-01	6.09863722023e-19	1.46069164718e+00
4.74000000000e-01	-1.66343649428e-01	-1.20617491689e-18	1.46091527756e+00
4.75000000000e-01	-1.66253628387e-01	4.87890977618e-19	1.46113879269e+00
4.76000000000e-01	-1.66163826346e-01	-1.13841228111e-18	1.46136219353e+00
4.77000000000e-01	-1.66074241778e-01	-1.05709711817e-18	1.46158548048e+00
4.78000000000e-01	-1.65984873492e-01	-6.61956248279e-19	1.46180865352e+00
4.79000000000e-01	-1.65895721228e-01	1.79401578228e-18	1.46203171061e+00
4.80000000000e-01	-1.65806781956e-01	-1.26377315730e-18	1.46225465558e+00
4.81000000000e-01	-1.65718054216e-01	7.52165257162e-19	1.46247748931e+00
4.82000000000e-01	-1.65629536565e-01	-1.26716128909e-18	1.46270021191e+00
4.83000000000e-01	-1.65541227574e-01	-6.77626357803e-19	1.46292282415e+00
4.84000000000e-01	-1.65453125829e-01	-2.03287907341e-19	1.46314532667e+00
4.85000000000e-01	-1.65365229932e-01	-1.92445885616e-18	1.46336771983e+00
4.86000000000e-01	-1.65277538500e-01	1.95156391047e-18	1.46359000439e+00
4.87000000000e-01	-1.65190050165e-01	-9.62229428081e-19	1.46381218107e+00
4.88000000000e-01	-1.65102763573e-01	4.60785923306e-19	1.46403424976e+00
4.89000000000e-01	-1.65015677548e-01	1.02999206386e-18	1.46425621102e+00
4.90000000000e-01	-1.64928791756e-01	-2.94767465644e-19	1.46447806362e+00
4.91000000000e-01	-1.64842104217e-01	-3.21872519957e-19	1.46469980889e+00
4.92000000000e-01	-1.64755613144e-01	-1.19262238973e-18	1.46492144902e+00
4.93000000000e-01	-1.64669317252e-01	-1.36880524276e-18	1.46514298404e+00
4.94000000000e-01	-1.64583215272e-01	1.42301535139e-18	1.46536441444e+00
4.95000000000e-01	-1.64497305946e-01	-1.59919820442e-18	1.46558574115e+00
4.96000000000e-01	-1.64411588030e-01	6.99174875982e-17	1.46580696404e+00
4.97000000000e-01	-1.64326060292e-01	7.10016897706e-17	1.46602808437e+00
4.98000000000e-01	-1.64240721514e-01	7.30481213712e-17	1.46624910211e+00
4.99000000000e-01	-1.64155570489e-01	7.35089072945e-17	1.46647001796e+00
5.00000000000e-01	-1.64070606025e-01	7.38612730006e-17	1.46669083227e+00
5.01000000000e-01	-1.63985827232e-01	6.55772907764e-17	1.46691154499e+00
5.02000000000e-01	-1.63901234106e-01	6.55925373695e-17	1.46713215419e+00
5.03000000000e-01	-1.63816824028e-01	6.57534736295e-17	1.46735266324e+00
5.04000000000e-01	-1.63732595853e-01	6.76338867724e-17	1.46757307269e+00
5.05000000000e-01	-1.63648548445e-01	6.50114727677e-17	1.46779338312e+00
5.06000000000e-01	-1.63564680683e-01	6.51198929849e-17	1.46801359496e+00
5.07000000000e-01	-1.63480991454e-01	6.79252661062e-17	1.46823370855e+00
5.08000000000e-01	-1.63397479659e-01	6.79930287420e-17	1.46845372449e+00
5.09000000000e-01	-1.63314144207e-01	7.00394603426e-17	1.46867364320e+00
5.10000000000e-01	-1.63230984021e-01	6.92669662947e-17	1.46889346509e+00
5.11000000000e-01	-1.63147998033e-01	7.01749856141e-17	1.46911319043e+00
5.12000000000e-01	-1.63065185185e-01	6.88468379528e-17	1.46933282003e+00
5.13000000000e-01	-1.62982544790e-01	6.36494437885e-17	1.46955235341e+00
5.14000000000e-01	-1.62900076791e-01	6.43880565185e-17	1.46977178871e+00
5.15000000000e-01	-1.62817778820e-01	6.31039545704e-17	1.46999112939e+00
5.16000000000e-01	-1.62735649861e-01	6.36087862070e-17	1.47021037569e+00
5.17000000000e-01	-1.62653688906e-01	6.39543756495e-17	1.47042952853e+00
5.18000000000e-01	-1.62571894961e-01	6.47946323332e-17	1.47064858781e+00
5.19000000000e-01	-1.62490267037e-01	6.61363325216e-17	1.47086755429e+00
5.20000000000e-01	-1.62408804159e-01	6.64615931734e-17	1.47108642817e+00
5.21000000000e-01	-1.62327505357e-01	6.76000054545e-17	1.47130520989e+00
5.22000000000e-01	-1.62246369673e-01	6.73967175471e-17	1.47152389969e+00
5.23000000000e-01	-1.62165396158e-01	6.47810798060e-17	1.47174249851e+00
5.24000000000e-01	-1.62084583872e-01	6.80878964321e-17	1.47196100623e+00
5.25000000000e-01	-1.62003931883e-01	6.71121144769e-17	1.47217942310e+00
5.26000000000e-01	-1.61923440838e-01	6.08999748417e-17	1.47239774696e+00
5.27000000000e-01	-1.61843108331e-01	5.94955942151e-17	1.47261598062e+00
5.28000000000e-01	-1.61762933378e-01	5.96988821225e-17	1.47283412493e+00
5.29000000000e-01	-1.61682915082e-01	5.97463159675e-17	1.47305218024e+00
5.30000000000e-01	-1.61603052555e-01	5.94752654244e-17	1.47327014703e+00
5.31000000000e-01	-1.61523344917e-01	6.17046561416e-17	1.47348802564e+00
5.32000000000e-01	-1.61443791298e-01	6.00512478285e-17	1.47370581628e+00
5.33000000000e-01	-1.61364390833e-01	6.14471581256e-17	1.47392351940e+00
5.34000000000e-01	-1.61285142668e-01	6.15149207614e-17	1.47414113558e+00
5.35000000000e-01	-1.61206045955e-01	6.45913444258e-17	1.47435866473e+00
5.36000000000e-01	-1.61127099855e-01	6.48623949689e-17	1.47457610779e+00
5.37000000000e-01	-1.61048303535e-01	6.27482007326e-17	1.47479346466e+00
5.38000000000e-01	-1.60969656790e-01	5.77939050241e-17	1.47501073458e+00
5.39000000000e-01	-1.60891159166e-01	5.45929675164e-17	1.47522791699e+00
5.40000000000e-01	-1.60812808870e-01	5.61244030851e-17	1.47544501430e+00
5.41000000000e-01	-1.60734605101e-01	5.76117929404e-17	1.47566202711e+00
5.42000000000e-01	-1.60656547065e-01	5.83368531433e-17	1.47587895555e+00
5.43000000000e-01	-1.60578633974e-01	5.77744232663e-17	1.47609580022e+00
5.44000000000e-01	-1.60500865048e-01	5.89941507104e-17	1.47631256118e+00
5.45000000000e-01	-1.60423239515e-01	5.79777111737e-17	1.47652923893e+00
5.46000000000e-01	-1.60345756608e-01	6.13658429627e-17	1.47674583383e+00
5.47000000000e-01	-1.60268415569e-01	5.91296759819e-17	1.47696234596e+00
5.48000000000e-01	-1.60191215644e-01	6.22332047007e-17	1.47717877591e+00
5.49000000000e-01	-1.60114156089e-01	6.10947924196e-17	1.47739512371e+00
5.50000000000e-01	-1.60037236163e-01	6.26668855697e-17	1.47761139030e+00
5.51000000000e-01	-1.59960455936e-01	5.40457842325e-17	1.47782757348e+00
5.52000000000e-01	-1.59883814632e-01	5.39255055540e-17	1.47804367427e+00
5.53000000000e-01	-1.59807310777e-01	5.41491222521e-17	1.47825969429e+00
5.54000000000e-01	-1.59730943660e-01	5.57212154022e-17	1.47847563412e+00
5.55000000000e-01	-1.59654712572e-01	5.66089059309e-17	1.47869149366e+00
5.56000000000e-01	-1.59578616813e-01	5.43185288415e-17	1.47890727353e+00
5.57000000000e-01	-1.59502655689e-01	5.51587855252e-17	1.47912297414e+00
5.58000000000e-01	-1.59426828510e-01	5.50910228894e-17	1.47933859573e+00
5.59000000000e-01	-1.59351134595e-01	5.56602290300e-17	1.47955413829e+00
5.60000000000e-01	-1.59275573267e-01	5.55789138670e-17	1.47976960243e+00
5.61000000000e-01	-1.59200143855e-01	5.80590263366e-17	1.47998498840e+00
5.62000000000e-01	-1.59124845693e-01	5.52401006881e-17	1.48020029657e+00
5.63000000000e-01	-1.59049678124e-01	5.78421859021e-17	1.48041552686e+00
5.64000000000e-01	-1.58974641002e-01	4.91994852248e-17	1.48063067874e+00
5.65000000000e-01	-1.58899734168e-01	5.14962150613e-17	1.48084575139e+00
5.66000000000e-01	-1.58824955978e-01	4.96937289495e-17	1.48106074757e+00
5.67000000000e-01	-1.58750305796e-01	5.02188893768e-17	1.48127566695e+00
5.68000000000e-01	-1.58675782991e-01	5.11472374870e-17	1.48149051043e+00
5.69000000000e-01	-1.58601386937e-01	5.27735407457e-17	1.48170527793e+00
