# R [micrones]     Omega/c [1/micrones]    Im(epsi1)     Eq(det)$\mu$ = 0.3 eV, $E_p$ = 0.600 eV, modo = 1, $\epsilon_\infty$ = 3.9, $\gamma_{DL}$ = 0.01 eV, solve_det_sinkz_vs_R.py
5.000000000e-01	1.374037628e+00	-9.433836358e-01	5.481271413e-12
5.010000000e-01	1.374296548e+00	-9.454236094e-01	3.222577168e-12
5.020000000e-01	1.374557274e+00	-9.474558927e-01	1.574209843e-12
5.030000000e-01	1.374819803e+00	-9.494804036e-01	2.070527327e-12
5.040000000e-01	1.375084134e+00	-9.514970598e-01	1.743510093e-12
5.050000000e-01	1.375350261e+00	-9.535057796e-01	2.797542270e-12
5.060000000e-01	1.375618182e+00	-9.555064815e-01	1.391359381e-12
5.070000000e-01	1.375887894e+00	-9.574990843e-01	2.195108502e-12
5.080000000e-01	1.376159391e+00	-9.594835071e-01	1.241871217e-12
5.090000000e-01	1.376432672e+00	-9.614596695e-01	3.227093398e-12
5.100000000e-01	1.376707732e+00	-9.634274911e-01	1.568370469e-12
5.110000000e-01	1.376984567e+00	-9.653868922e-01	2.818635302e-12
5.120000000e-01	1.377263172e+00	-9.673377931e-01	2.844405060e-12
5.130000000e-01	1.377543544e+00	-9.692801148e-01	6.155774806e-12
5.140000000e-01	1.377825678e+00	-9.712137785e-01	2.528069737e-12
5.150000000e-01	1.378109571e+00	-9.731387058e-01	2.724959549e-12
5.160000000e-01	1.378395216e+00	-9.750548188e-01	1.817586164e-12
5.170000000e-01	1.378682609e+00	-9.769620398e-01	2.359993799e-12
5.180000000e-01	1.378971747e+00	-9.788602918e-01	3.130023304e-12
5.190000000e-01	1.379262623e+00	-9.807494980e-01	2.237090676e-12
5.200000000e-01	1.379555232e+00	-9.826295822e-01	1.490009364e-12
5.210000000e-01	1.379849570e+00	-9.845004684e-01	1.441473198e-12
5.220000000e-01	1.380145630e+00	-9.863620815e-01	7.642620994e-13
5.230000000e-01	1.380443409e+00	-9.882143465e-01	5.442293929e-12
5.240000000e-01	1.380742899e+00	-9.900571890e-01	2.039159792e-12
5.250000000e-01	1.381044096e+00	-9.918905351e-01	3.392758856e-12
5.260000000e-01	1.381346993e+00	-9.937143114e-01	3.068308042e-12
5.270000000e-01	1.381651584e+00	-9.955284451e-01	2.074070434e-12
5.280000000e-01	1.381957864e+00	-9.973328638e-01	2.625071410e-12
5.290000000e-01	1.382265826e+00	-9.991274958e-01	1.943751431e-12
5.300000000e-01	1.382575465e+00	-1.000912270e+00	2.223395068e-12
5.310000000e-01	1.382886772e+00	-1.002687115e+00	3.194438710e-12
5.320000000e-01	1.383199743e+00	-1.004451961e+00	7.984483210e-13
5.330000000e-01	1.383514369e+00	-1.006206739e+00	1.932598638e-12
5.340000000e-01	1.383830645e+00	-1.007951380e+00	2.388552181e-12
5.350000000e-01	1.384148564e+00	-1.009685815e+00	1.910138876e-12
5.360000000e-01	1.384468117e+00	-1.011409977e+00	2.694032047e-12
5.370000000e-01	1.384789299e+00	-1.013123798e+00	3.827318449e-12
5.380000000e-01	1.385112102e+00	-1.014827212e+00	2.006274205e-12
5.390000000e-01	1.385436518e+00	-1.016520154e+00	6.611816887e-12
5.400000000e-01	1.385762540e+00	-1.018202557e+00	1.909570118e-12
5.410000000e-01	1.386090160e+00	-1.019874359e+00	1.570860914e-12
5.420000000e-01	1.386419371e+00	-1.021535494e+00	1.575690496e-12
5.430000000e-01	1.386750163e+00	-1.023185899e+00	1.990599128e-12
5.440000000e-01	1.387082530e+00	-1.024825513e+00	2.271170976e-12
5.450000000e-01	1.387416464e+00	-1.026454273e+00	1.659990191e-12
5.460000000e-01	1.387751955e+00	-1.028072119e+00	1.699900065e-12
5.470000000e-01	1.388088995e+00	-1.029678990e+00	3.921120112e-12
5.480000000e-01	1.388427576e+00	-1.031274827e+00	2.669343045e-12
5.490000000e-01	1.388767689e+00	-1.032859570e+00	2.312262172e-12
5.500000000e-01	1.389109326e+00	-1.034433162e+00	2.268020196e-12
5.510000000e-01	1.389452477e+00	-1.035995546e+00	4.457578807e-12
5.520000000e-01	1.389797133e+00	-1.037546665e+00	3.181963117e-12
5.530000000e-01	1.390143285e+00	-1.039086463e+00	1.078481247e-12
5.540000000e-01	1.390490924e+00	-1.040614885e+00	2.911574003e-12
5.550000000e-01	1.390840041e+00	-1.042131877e+00	2.800620616e-12
5.560000000e-01	1.391190626e+00	-1.043637387e+00	1.389110634e-12
5.570000000e-01	1.391542669e+00	-1.045131360e+00	1.791101195e-12
5.580000000e-01	1.391896160e+00	-1.046613747e+00	2.298895362e-12
5.590000000e-01	1.392251090e+00	-1.048084495e+00	2.874133157e-12
5.600000000e-01	1.392607449e+00	-1.049543555e+00	3.482462622e-12
5.610000000e-01	1.392965227e+00	-1.050990878e+00	2.217417956e-12
5.620000000e-01	1.393324412e+00	-1.052426415e+00	1.411471537e-12
5.630000000e-01	1.393684996e+00	-1.053850120e+00	9.843244364e-13
5.640000000e-01	1.394046967e+00	-1.055261945e+00	1.538576383e-12
5.650000000e-01	1.394410315e+00	-1.056661844e+00	1.580271801e-12
5.660000000e-01	1.394775030e+00	-1.058049774e+00	1.775941089e-12
5.670000000e-01	1.395141100e+00	-1.059425691e+00	3.305626703e-12
5.680000000e-01	1.395508514e+00	-1.060789550e+00	1.868500837e-12
5.690000000e-01	1.395877262e+00	-1.062141311e+00	2.353671281e-12
5.700000000e-01	1.396247333e+00	-1.063480933e+00	2.953653232e-12
5.710000000e-01	1.396618715e+00	-1.064808374e+00	2.325547796e-12
5.720000000e-01	1.396991397e+00	-1.066123596e+00	3.699214093e-12
5.730000000e-01	1.397365367e+00	-1.067426561e+00	2.052498634e-12
5.740000000e-01	1.397740614e+00	-1.068717231e+00	2.086512770e-12
5.750000000e-01	1.398117126e+00	-1.069995569e+00	1.901135889e-12
5.760000000e-01	1.398494892e+00	-1.071261541e+00	2.644471433e-12
5.770000000e-01	1.398873900e+00	-1.072515112e+00	2.280915612e-12
5.780000000e-01	1.399254137e+00	-1.073756249e+00	1.912444165e-12
5.790000000e-01	1.399635593e+00	-1.074984918e+00	1.593023219e-12
5.800000000e-01	1.400018253e+00	-1.076201088e+00	3.076820906e-12
5.810000000e-01	1.400402107e+00	-1.077404730e+00	2.493882272e-12
5.820000000e-01	1.400787142e+00	-1.078595812e+00	2.517283416e-12
5.830000000e-01	1.401173346e+00	-1.079774307e+00	1.283220797e-12
5.840000000e-01	1.401560706e+00	-1.080940188e+00	2.279916981e-12
5.850000000e-01	1.401949209e+00	-1.082093427e+00	1.201454973e-12
5.860000000e-01	1.402338843e+00	-1.083233999e+00	5.207490567e-12
5.870000000e-01	1.402729595e+00	-1.084361879e+00	1.688366395e-12
5.880000000e-01	1.403121452e+00	-1.085477045e+00	2.653281968e-12
5.890000000e-01	1.403514401e+00	-1.086579472e+00	1.669275109e-12
5.900000000e-01	1.403908429e+00	-1.087669141e+00	5.436423135e-12
5.910000000e-01	1.404303524e+00	-1.088746030e+00	4.079310082e-12
5.920000000e-01	1.404699671e+00	-1.089810121e+00	1.601255908e-12
5.930000000e-01	1.405096858e+00	-1.090861394e+00	1.191050619e-12
5.940000000e-01	1.405495071e+00	-1.091899832e+00	1.501858656e-12
5.950000000e-01	1.405894297e+00	-1.092925420e+00	1.149189844e-12
5.960000000e-01	1.406294522e+00	-1.093938141e+00	2.037707161e-12
5.970000000e-01	1.406695733e+00	-1.094937981e+00	2.354984036e-12
5.980000000e-01	1.407097916e+00	-1.095924928e+00	1.836578754e-12
5.990000000e-01	1.407501057e+00	-1.096898968e+00	2.588935117e-12
6.000000000e-01	1.407905143e+00	-1.097860092e+00	1.640374308e-12
6.010000000e-01	1.408310159e+00	-1.098808288e+00	1.374180814e-12
6.020000000e-01	1.408716093e+00	-1.099743548e+00	2.112265065e-12
6.030000000e-01	1.409122929e+00	-1.100665864e+00	2.052023263e-12
6.040000000e-01	1.409530655e+00	-1.101575229e+00	2.174547344e-12
6.050000000e-01	1.409939255e+00	-1.102471636e+00	1.512137741e-12
6.060000000e-01	1.410348716e+00	-1.103355081e+00	3.169041793e-12
6.070000000e-01	1.410759023e+00	-1.104225560e+00	2.192390107e-12
6.080000000e-01	1.411170163e+00	-1.105083070e+00	3.325077442e-12
6.090000000e-01	1.411582120e+00	-1.105927610e+00	3.798224288e-12
6.100000000e-01	1.411994881e+00	-1.106759179e+00	1.480175008e-12
6.110000000e-01	1.412408431e+00	-1.107577776e+00	1.762133535e-12
6.120000000e-01	1.412822757e+00	-1.108383403e+00	1.765697855e-12
6.130000000e-01	1.413237842e+00	-1.109176064e+00	1.600540825e-12
6.140000000e-01	1.413653673e+00	-1.109955760e+00	1.969226072e-12
6.150000000e-01	1.414070236e+00	-1.110722496e+00	2.590958202e-12
6.160000000e-01	1.414487515e+00	-1.111476279e+00	1.788555094e-12
6.170000000e-01	1.414905497e+00	-1.112217113e+00	2.083759567e-12
6.180000000e-01	1.415324165e+00	-1.112945007e+00	9.774814611e-13
6.190000000e-01	1.415743507e+00	-1.113659969e+00	2.709454574e-12
6.200000000e-01	1.416163506e+00	-1.114362009e+00	1.483260521e-12
6.210000000e-01	1.416584149e+00	-1.115051137e+00	1.741552322e-12
6.220000000e-01	1.417005421e+00	-1.115727364e+00	3.750424759e-12
6.230000000e-01	1.417427306e+00	-1.116390703e+00	3.233812136e-12
6.240000000e-01	1.417849790e+00	-1.117041168e+00	2.828920146e-12
6.250000000e-01	1.418272858e+00	-1.117678772e+00	5.544912656e-12
6.260000000e-01	1.418696496e+00	-1.118303532e+00	1.839511684e-12
6.270000000e-01	1.419120687e+00	-1.118915463e+00	1.191107977e-12
6.280000000e-01	1.419545419e+00	-1.119514583e+00	1.631392400e-12
6.290000000e-01	1.419970675e+00	-1.120100910e+00	5.647586969e-13
6.300000000e-01	1.420396441e+00	-1.120674464e+00	1.850650817e-12
6.310000000e-01	1.420822702e+00	-1.121235265e+00	2.365316252e-12
6.320000000e-01	1.421249443e+00	-1.121783334e+00	1.133885277e-12
6.330000000e-01	1.421676649e+00	-1.122318692e+00	2.554083153e-12
6.340000000e-01	1.422104306e+00	-1.122841364e+00	1.785739519e-12
6.350000000e-01	1.422532397e+00	-1.123351372e+00	1.922678325e-12
6.360000000e-01	1.422960910e+00	-1.123848743e+00	1.933415992e-12
6.370000000e-01	1.423389828e+00	-1.124333501e+00	2.702636883e-12
6.380000000e-01	1.423819136e+00	-1.124805673e+00	1.620762736e-12
6.390000000e-01	1.424248821e+00	-1.125265287e+00	6.731187678e-12
6.400000000e-01	1.424678866e+00	-1.125712372e+00	1.570842006e-12
6.410000000e-01	1.425109258e+00	-1.126146956e+00	1.625847988e-12
6.420000000e-01	1.425539981e+00	-1.126569070e+00	1.902752877e-12
6.430000000e-01	1.425971021e+00	-1.126978744e+00	1.554069221e-12
6.440000000e-01	1.426402362e+00	-1.127376012e+00	3.502958490e-13
6.450000000e-01	1.426833991e+00	-1.127760905e+00	1.892168467e-12
6.460000000e-01	1.427265891e+00	-1.128133457e+00	1.767012486e-12
6.470000000e-01	1.427698050e+00	-1.128493703e+00	2.135808582e-12
6.480000000e-01	1.428130451e+00	-1.128841678e+00	3.616564321e-13
6.490000000e-01	1.428563081e+00	-1.129177417e+00	2.111389801e-12
6.500000000e-01	1.428995924e+00	-1.129500959e+00	2.477698092e-12
6.510000000e-01	1.429428967e+00	-1.129812339e+00	1.562974809e-12
6.520000000e-01	1.429862194e+00	-1.130111597e+00	2.058447054e-12
6.530000000e-01	1.430295591e+00	-1.130398772e+00	3.672371755e-12
6.540000000e-01	1.430729144e+00	-1.130673904e+00	1.691513353e-12
6.550000000e-01	1.431162838e+00	-1.130937033e+00	2.305305133e-12
6.560000000e-01	1.431596658e+00	-1.131188201e+00	2.217102604e-12
6.570000000e-01	1.432030592e+00	-1.131427450e+00	1.944465458e-12
6.580000000e-01	1.432464623e+00	-1.131654823e+00	3.383215471e-12
6.590000000e-01	1.432898738e+00	-1.131870363e+00	1.721950400e-12
6.600000000e-01	1.433332923e+00	-1.132074115e+00	1.495824058e-12
6.610000000e-01	1.433767163e+00	-1.132266124e+00	2.284608744e-12
6.620000000e-01	1.434201445e+00	-1.132446434e+00	2.113161897e-12
6.630000000e-01	1.434635755e+00	-1.132615094e+00	1.991212878e-12
6.640000000e-01	1.435070078e+00	-1.132772149e+00	1.458009193e-12
6.650000000e-01	1.435504401e+00	-1.132917646e+00	1.976698600e-12
6.660000000e-01	1.435938709e+00	-1.133051636e+00	1.790383230e-12
6.670000000e-01	1.436372989e+00	-1.133174165e+00	2.012839646e-12
6.680000000e-01	1.436807228e+00	-1.133285283e+00	2.114159882e-12
6.690000000e-01	1.437241411e+00	-1.133385042e+00	2.992991701e-12
6.700000000e-01	1.437675525e+00	-1.133473490e+00	1.975786724e-12
6.710000000e-01	1.438109556e+00	-1.133550680e+00	3.598820193e-12
6.720000000e-01	1.438543492e+00	-1.133616663e+00	1.367861075e-12
6.730000000e-01	1.438977318e+00	-1.133671491e+00	1.704952444e-12
6.740000000e-01	1.439411021e+00	-1.133715218e+00	1.627441005e-12
6.750000000e-01	1.439844589e+00	-1.133747896e+00	1.351570004e-12
6.760000000e-01	1.440278007e+00	-1.133769580e+00	1.892660800e-12
6.770000000e-01	1.440711263e+00	-1.133780323e+00	1.511169389e-12
6.780000000e-01	1.441144344e+00	-1.133780182e+00	1.654092981e-12
6.790000000e-01	1.441577237e+00	-1.133769211e+00	1.681218185e-12
6.800000000e-01	1.442009928e+00	-1.133747466e+00	2.135786615e-12
6.810000000e-01	1.442442406e+00	-1.133715003e+00	2.358760530e-12
6.820000000e-01	1.442874657e+00	-1.133671879e+00	1.438151297e-12
6.830000000e-01	1.443306670e+00	-1.133618152e+00	3.090691086e-12
6.840000000e-01	1.443738431e+00	-1.133553879e+00	4.060187573e-12
6.850000000e-01	1.444169927e+00	-1.133479117e+00	1.629682107e-12
6.860000000e-01	1.444601148e+00	-1.133393926e+00	1.378705745e-12
6.870000000e-01	1.445032080e+00	-1.133298365e+00	2.321616055e-12
6.880000000e-01	1.445462711e+00	-1.133192491e+00	2.960373689e-12
6.890000000e-01	1.445893029e+00	-1.133076366e+00	1.240236740e-12
6.900000000e-01	1.446323022e+00	-1.132950048e+00	2.521557755e-12
6.910000000e-01	1.446752679e+00	-1.132813599e+00	1.331064657e-12
6.920000000e-01	1.447181987e+00	-1.132667078e+00	2.018112548e-12
6.930000000e-01	1.447610934e+00	-1.132510547e+00	1.786089396e-12
6.940000000e-01	1.448039510e+00	-1.132344067e+00	1.073918926e-12
6.950000000e-01	1.448467703e+00	-1.132167699e+00	1.526942534e-12
6.960000000e-01	1.448895501e+00	-1.131981506e+00	1.627828586e-12
6.970000000e-01	1.449322893e+00	-1.131785549e+00	1.809181519e-12
6.980000000e-01	1.449749867e+00	-1.131579890e+00	1.558699057e-12
6.990000000e-01	1.450176413e+00	-1.131364593e+00	3.197106530e-12
7.000000000e-01	1.450602520e+00	-1.131139720e+00	8.988826109e-13
7.010000000e-01	1.451028176e+00	-1.130905334e+00	1.276515235e-12
7.020000000e-01	1.451453371e+00	-1.130661498e+00	1.627210605e-12
7.030000000e-01	1.451878094e+00	-1.130408277e+00	2.090153196e-12
7.040000000e-01	1.452302335e+00	-1.130145733e+00	2.097183317e-12
7.050000000e-01	1.452726083e+00	-1.129873930e+00	7.924130130e-13
7.060000000e-01	1.453149327e+00	-1.129592934e+00	1.685317861e-12
7.070000000e-01	1.453572058e+00	-1.129302807e+00	1.045773874e-12
7.080000000e-01	1.453994264e+00	-1.129003615e+00	3.093556040e-12
7.090000000e-01	1.454415937e+00	-1.128695421e+00	2.142832993e-12
7.100000000e-01	1.454837065e+00	-1.128378291e+00	2.765717296e-12
7.110000000e-01	1.455257640e+00	-1.128052290e+00	2.891923174e-12
7.120000000e-01	1.455677651e+00	-1.127717482e+00	1.658774202e-12
7.130000000e-01	1.456097089e+00	-1.127373932e+00	1.486666682e-12
7.140000000e-01	1.456515944e+00	-1.127021705e+00	1.479567392e-12
7.150000000e-01	1.456934206e+00	-1.126660867e+00	1.857333999e-12
7.160000000e-01	1.457351867e+00	-1.126291483e+00	1.591772996e-12
7.170000000e-01	1.457768917e+00	-1.125913619e+00	1.151614981e-12
7.180000000e-01	1.458185347e+00	-1.125527339e+00	1.606442571e-12
7.190000000e-01	1.458601147e+00	-1.125132709e+00	1.245413150e-12
7.200000000e-01	1.459016310e+00	-1.124729795e+00	1.757201838e-12
7.210000000e-01	1.459430826e+00	-1.124318663e+00	1.808942436e-12
7.220000000e-01	1.459844686e+00	-1.123899377e+00	4.729282891e-13
7.230000000e-01	1.460257882e+00	-1.123472004e+00	1.678415505e-12
7.240000000e-01	1.460670406e+00	-1.123036608e+00	2.708020386e-12
7.250000000e-01	1.461082248e+00	-1.122593256e+00	2.512333967e-12
7.260000000e-01	1.461493402e+00	-1.122142013e+00	1.538244771e-12
7.270000000e-01	1.461903858e+00	-1.121682945e+00	2.734764493e-12
7.280000000e-01	1.462313608e+00	-1.121216117e+00	1.821852753e-12
7.290000000e-01	1.462722645e+00	-1.120741595e+00	2.460911014e-12
7.300000000e-01	1.463130961e+00	-1.120259444e+00	2.087026234e-12
7.310000000e-01	1.463538549e+00	-1.119769729e+00	2.493465150e-12
7.320000000e-01	1.463945399e+00	-1.119272515e+00	1.142113163e-12
7.330000000e-01	1.464351505e+00	-1.118767869e+00	2.133957824e-12
7.340000000e-01	1.464756860e+00	-1.118255855e+00	1.625705527e-12
7.350000000e-01	1.465161457e+00	-1.117736538e+00	2.375330817e-12
7.360000000e-01	1.465565287e+00	-1.117209983e+00	2.295478770e-12
7.370000000e-01	1.465968345e+00	-1.116676255e+00	2.587268972e-12
7.380000000e-01	1.466370622e+00	-1.116135419e+00	1.592437157e-12
7.390000000e-01	1.466772113e+00	-1.115587539e+00	1.442506495e-12
7.400000000e-01	1.467172810e+00	-1.115032680e+00	1.786619618e-12
7.410000000e-01	1.467572706e+00	-1.114470907e+00	2.531964189e-12
7.420000000e-01	1.467971796e+00	-1.113902283e+00	1.642441604e-12
7.430000000e-01	1.468370073e+00	-1.113326873e+00	1.915758655e-12
7.440000000e-01	1.468767531e+00	-1.112744741e+00	1.509815851e-12
7.450000000e-01	1.469164162e+00	-1.112155950e+00	1.725926001e-12
7.460000000e-01	1.469559962e+00	-1.111560565e+00	1.994755706e-12
7.470000000e-01	1.469954924e+00	-1.110958648e+00	2.571617345e-12
7.480000000e-01	1.470349042e+00	-1.110350264e+00	2.295326143e-12
7.490000000e-01	1.470742310e+00	-1.109735474e+00	9.677595884e-13
7.500000000e-01	1.471134724e+00	-1.109114343e+00	1.081820652e-12
7.510000000e-01	1.471526276e+00	-1.108486933e+00	8.784031842e-13
7.520000000e-01	1.471916962e+00	-1.107853306e+00	2.586913867e-12
7.530000000e-01	1.472306776e+00	-1.107213526e+00	1.768055796e-12
7.540000000e-01	1.472695713e+00	-1.106567653e+00	1.645124844e-12
7.550000000e-01	1.473083768e+00	-1.105915750e+00	2.458561621e-12
7.560000000e-01	1.473470935e+00	-1.105257880e+00	1.266522427e-12
7.570000000e-01	1.473857210e+00	-1.104594102e+00	2.178577636e-12
7.580000000e-01	1.474242588e+00	-1.103924479e+00	1.211473809e-12
7.590000000e-01	1.474627063e+00	-1.103249072e+00	9.480432900e-13
7.600000000e-01	1.475010632e+00	-1.102567942e+00	9.647886265e-13
7.610000000e-01	1.475393290e+00	-1.101881149e+00	1.243585313e-12
7.620000000e-01	1.475775031e+00	-1.101188753e+00	9.039069618e-13
7.630000000e-01	1.476155853e+00	-1.100490815e+00	2.182665147e-12
7.640000000e-01	1.476535750e+00	-1.099787394e+00	2.918655165e-12
7.650000000e-01	1.476914718e+00	-1.099078551e+00	2.561984636e-12
7.660000000e-01	1.477292753e+00	-1.098364344e+00	2.551629805e-12
7.670000000e-01	1.477669851e+00	-1.097644832e+00	1.128756440e-12
7.680000000e-01	1.478046008e+00	-1.096920075e+00	3.493206735e-12
7.690000000e-01	1.478421220e+00	-1.096190131e+00	1.489453543e-12
7.700000000e-01	1.478795484e+00	-1.095455058e+00	2.434258390e-12
7.710000000e-01	1.479168796e+00	-1.094714914e+00	1.982802589e-12
7.720000000e-01	1.479541152e+00	-1.093969757e+00	2.520868792e-12
7.730000000e-01	1.479912549e+00	-1.093219645e+00	1.238383020e-12
7.740000000e-01	1.480282984e+00	-1.092464634e+00	1.412291699e-12
7.750000000e-01	1.480652452e+00	-1.091704781e+00	1.851175395e-12
7.760000000e-01	1.481020951e+00	-1.090940144e+00	1.382539914e-12
7.770000000e-01	1.481388478e+00	-1.090170777e+00	1.656651482e-12
7.780000000e-01	1.481755030e+00	-1.089396738e+00	1.205522996e-12
7.790000000e-01	1.482120604e+00	-1.088618082e+00	2.070591111e-12
7.800000000e-01	1.482485197e+00	-1.087834864e+00	1.822922927e-12
7.810000000e-01	1.482848805e+00	-1.087047139e+00	1.445213889e-12
7.820000000e-01	1.483211427e+00	-1.086254963e+00	5.588694644e-12
7.830000000e-01	1.483573060e+00	-1.085458389e+00	9.814140065e-13
7.840000000e-01	1.483933702e+00	-1.084657472e+00	1.807666172e-12
7.850000000e-01	1.484293349e+00	-1.083852266e+00	7.179690599e-13
7.860000000e-01	1.484651999e+00	-1.083042823e+00	2.709666531e-12
7.870000000e-01	1.485009651e+00	-1.082229198e+00	2.928390760e-12
7.880000000e-01	1.485366301e+00	-1.081411444e+00	2.020873262e-12
7.890000000e-01	1.485721949e+00	-1.080589612e+00	3.902121469e-12
7.900000000e-01	1.486076591e+00	-1.079763755e+00	1.282635319e-12
7.910000000e-01	1.486430226e+00	-1.078933925e+00	1.442515141e-12
7.920000000e-01	1.486782852e+00	-1.078100174e+00	8.889715264e-13
7.930000000e-01	1.487134467e+00	-1.077262553e+00	2.474954005e-12
7.940000000e-01	1.487485069e+00	-1.076421113e+00	2.422515165e-12
7.950000000e-01	1.487834656e+00	-1.075575904e+00	1.207864551e-12
7.960000000e-01	1.488183228e+00	-1.074726978e+00	2.060749187e-12
7.970000000e-01	1.488530782e+00	-1.073874383e+00	2.256976886e-12
7.980000000e-01	1.488877317e+00	-1.073018169e+00	2.901352374e-12
7.990000000e-01	1.489222832e+00	-1.072158387e+00	1.654244590e-12
8.000000000e-01	1.489567325e+00	-1.071295084e+00	2.120502635e-12
8.010000000e-01	1.489910795e+00	-1.070428309e+00	2.989361326e-12
8.020000000e-01	1.490253241e+00	-1.069558112e+00	1.159743718e-12
8.030000000e-01	1.490594661e+00	-1.068684539e+00	1.682495485e-12
