# Ep [eV]     Omega/c [1/micrones]    Im(epsi1)     Eq(det).Opt det SIN kz nano,R = 0.5 $\mu$m, $\mu_c$ = 0.3 eV, modo = 3, $\epsilon_\infty$ = 1.0, $\gamma_{DL}$ = 0.01 eV, solve_det_sinkz_vs_Ep.py
0.000000000e+00	3.618188955e-01	-1.464569493e-02	9.036560720e-16
1.000000000e-04	3.618190666e-01	-1.464595504e-02	1.326545208e-15
2.000000000e-04	3.618195800e-01	-1.464673536e-02	6.479604370e-16
3.000000000e-04	3.618204355e-01	-1.464803588e-02	4.613190424e-16
4.000000000e-04	3.618216333e-01	-1.464985657e-02	4.742874840e-16
5.000000000e-04	3.618231733e-01	-1.465219742e-02	2.280057609e-15
6.000000000e-04	3.618250555e-01	-1.465505836e-02	8.882868333e-16
7.000000000e-04	3.618272799e-01	-1.465843937e-02	1.483366092e-15
8.000000000e-04	3.618298465e-01	-1.466234037e-02	9.192921514e-16
9.000000000e-04	3.618327553e-01	-1.466676131e-02	1.526556659e-16
1.000000000e-03	3.618360063e-01	-1.467170210e-02	1.682134440e-15
1.100000000e-03	3.618395995e-01	-1.467716267e-02	5.900916318e-16
1.200000000e-03	3.618435349e-01	-1.468314293e-02	6.183017823e-16
1.300000000e-03	3.618478124e-01	-1.468964276e-02	1.917345842e-15
1.400000000e-03	3.618524320e-01	-1.469666206e-02	8.604228441e-16
1.500000000e-03	3.618573938e-01	-1.470420071e-02	4.793364605e-16
1.600000000e-03	3.618626977e-01	-1.471225858e-02	1.933400483e-15
1.700000000e-03	3.618683437e-01	-1.472083554e-02	6.894341958e-16
1.800000000e-03	3.618743318e-01	-1.472993144e-02	9.751059499e-16
1.900000000e-03	3.618806620e-01	-1.473954612e-02	5.551115123e-17
2.000000000e-03	3.618873343e-01	-1.474967942e-02	2.446430031e-15
2.100000000e-03	3.618943485e-01	-1.476033117e-02	4.475452091e-16
2.200000000e-03	3.619017049e-01	-1.477150119e-02	1.785494844e-15
2.300000000e-03	3.619094032e-01	-1.478318929e-02	1.430691562e-15
2.400000000e-03	3.619174435e-01	-1.479539527e-02	1.226987953e-15
2.500000000e-03	3.619258257e-01	-1.480811892e-02	1.217454593e-15
2.600000000e-03	3.619345499e-01	-1.482136003e-02	5.828670879e-16
2.700000000e-03	3.619436161e-01	-1.483511838e-02	1.454190867e-15
2.800000000e-03	3.619530241e-01	-1.484939372e-02	7.216449660e-16
2.900000000e-03	3.619627740e-01	-1.486418581e-02	1.332339908e-15
3.000000000e-03	3.619728657e-01	-1.487949442e-02	4.577566799e-16
3.100000000e-03	3.619832993e-01	-1.489531926e-02	7.550332864e-16
3.200000000e-03	3.619940746e-01	-1.491166009e-02	4.965068306e-16
3.300000000e-03	3.620051917e-01	-1.492851662e-02	5.164700352e-16
3.400000000e-03	3.620166505e-01	-1.494588856e-02	6.938893904e-17
3.500000000e-03	3.620284511e-01	-1.496377562e-02	1.336885555e-15
3.600000000e-03	3.620405933e-01	-1.498217750e-02	1.878377933e-15
3.700000000e-03	3.620530771e-01	-1.500109389e-02	3.191891196e-16
3.800000000e-03	3.620659026e-01	-1.502052446e-02	9.305364598e-16
3.900000000e-03	3.620790696e-01	-1.504046889e-02	5.164700352e-16
4.000000000e-03	3.620925781e-01	-1.506092683e-02	8.950904183e-16
4.100000000e-03	3.621064282e-01	-1.508189795e-02	6.684427777e-16
4.200000000e-03	3.621206197e-01	-1.510338188e-02	1.326545208e-15
4.300000000e-03	3.621351526e-01	-1.512537827e-02	2.006528482e-15
4.400000000e-03	3.621500270e-01	-1.514788674e-02	9.012017851e-16
4.500000000e-03	3.621652427e-01	-1.517090691e-02	3.191891196e-16
4.600000000e-03	3.621807997e-01	-1.519443840e-02	8.711006819e-16
4.700000000e-03	3.621966979e-01	-1.521848079e-02	1.797910125e-15
4.800000000e-03	3.622129374e-01	-1.524303370e-02	1.042959842e-15
4.900000000e-03	3.622295181e-01	-1.526809670e-02	9.347697127e-16
5.000000000e-03	3.622464399e-01	-1.529366937e-02	1.226987953e-15
5.100000000e-03	3.622637028e-01	-1.531975127e-02	7.776515946e-16
5.200000000e-03	3.622813068e-01	-1.534634198e-02	1.495778331e-15
5.300000000e-03	3.622992517e-01	-1.537344103e-02	1.802403570e-15
5.400000000e-03	3.623175376e-01	-1.540104798e-02	4.443059974e-16
5.500000000e-03	3.623361645e-01	-1.542916235e-02	5.468975410e-16
5.600000000e-03	3.623551322e-01	-1.545778368e-02	8.049116929e-16
5.700000000e-03	3.623744406e-01	-1.548691148e-02	9.485749681e-16
5.800000000e-03	3.623940899e-01	-1.551654525e-02	9.298117831e-16
5.900000000e-03	3.624140799e-01	-1.554668451e-02	4.449557262e-16
6.000000000e-03	3.624344105e-01	-1.557732875e-02	8.881784197e-16
6.100000000e-03	3.624550817e-01	-1.560847744e-02	1.391174684e-15
6.200000000e-03	3.624760934e-01	-1.564013006e-02	4.460365044e-16
6.300000000e-03	3.624974457e-01	-1.567228608e-02	5.028663855e-16
6.400000000e-03	3.625191384e-01	-1.570494497e-02	5.967448757e-16
6.500000000e-03	3.625411715e-01	-1.573810617e-02	4.443059974e-16
6.600000000e-03	3.625635448e-01	-1.577176912e-02	3.191891196e-16
6.700000000e-03	3.625862585e-01	-1.580593327e-02	7.494005416e-16
6.800000000e-03	3.626093123e-01	-1.584059803e-02	2.220446049e-16
6.900000000e-03	3.626327063e-01	-1.587576282e-02	4.024558464e-16
7.000000000e-03	3.626564404e-01	-1.591142707e-02	8.473409487e-16
7.100000000e-03	3.626805145e-01	-1.594759015e-02	8.950904183e-16
7.200000000e-03	3.627049285e-01	-1.598425148e-02	1.521818241e-15
7.300000000e-03	3.627296825e-01	-1.602141044e-02	1.373270040e-15
7.400000000e-03	3.627547762e-01	-1.605906640e-02	5.236911533e-16
7.500000000e-03	3.627802097e-01	-1.609721874e-02	4.793364605e-16
7.600000000e-03	3.628059829e-01	-1.613586681e-02	3.273863975e-15
7.700000000e-03	3.628320958e-01	-1.617500998e-02	9.091804728e-16
7.800000000e-03	3.628585482e-01	-1.621464758e-02	8.238311189e-16
7.900000000e-03	3.628853401e-01	-1.625477895e-02	1.566715582e-15
8.000000000e-03	3.629124714e-01	-1.629540343e-02	9.714451465e-17
8.100000000e-03	3.629399420e-01	-1.633652034e-02	6.684427777e-16
8.200000000e-03	3.629677519e-01	-1.637812898e-02	1.555303189e-15
8.300000000e-03	3.629959010e-01	-1.642022867e-02	1.837955691e-15
8.400000000e-03	3.630243893e-01	-1.646281870e-02	5.635475560e-16
8.500000000e-03	3.630532166e-01	-1.650589837e-02	5.164700352e-16
8.600000000e-03	3.630823829e-01	-1.654946696e-02	1.387778781e-17
8.700000000e-03	3.631118880e-01	-1.659352374e-02	5.236911533e-16
8.800000000e-03	3.631417321e-01	-1.663806798e-02	1.351784869e-15
8.900000000e-03	3.631719148e-01	-1.668309894e-02	9.682678849e-16
9.000000000e-03	3.632024362e-01	-1.672861587e-02	8.934752162e-16
9.100000000e-03	3.632332962e-01	-1.677461801e-02	6.788777767e-16
9.200000000e-03	3.632644948e-01	-1.682110461e-02	8.005932085e-16
9.300000000e-03	3.632960317e-01	-1.686807488e-02	1.861072920e-15
9.400000000e-03	3.633279070e-01	-1.691552806e-02	1.443289932e-15
9.500000000e-03	3.633601205e-01	-1.696346335e-02	9.226380847e-16
9.600000000e-03	3.633926723e-01	-1.701187996e-02	2.220446049e-16
9.700000000e-03	3.634255621e-01	-1.706077710e-02	2.355792802e-15
9.800000000e-03	3.634587899e-01	-1.711015394e-02	1.568190022e-15
9.900000000e-03	3.634923556e-01	-1.716000968e-02	5.273559367e-16
1.000000000e-02	3.635262592e-01	-1.721034348e-02	9.226380847e-16
1.010000000e-02	3.635605005e-01	-1.726115453e-02	9.751059499e-16
1.020000000e-02	3.635950795e-01	-1.731244198e-02	2.026157020e-15
1.030000000e-02	3.636299961e-01	-1.736420498e-02	4.965068306e-16
1.040000000e-02	3.636652501e-01	-1.741644268e-02	9.391889664e-16
1.050000000e-02	3.637008415e-01	-1.746915422e-02	9.063162369e-16
1.060000000e-02	3.637367701e-01	-1.752233874e-02	2.775557562e-16
1.070000000e-02	3.637730360e-01	-1.757599535e-02	8.969174643e-16
1.080000000e-02	3.638096390e-01	-1.763012318e-02	4.847302891e-16
1.090000000e-02	3.638465790e-01	-1.768472133e-02	4.904575925e-16
1.100000000e-02	3.638838559e-01	-1.773978891e-02	2.775557562e-17
1.110000000e-02	3.639214696e-01	-1.779532502e-02	1.917345842e-15
1.120000000e-02	3.639594201e-01	-1.785132874e-02	6.383782392e-16
1.130000000e-02	3.639977071e-01	-1.790779915e-02	2.498001805e-16
1.140000000e-02	3.640363307e-01	-1.796473534e-02	4.163336342e-17
1.150000000e-02	3.640752907e-01	-1.802213636e-02	4.443059974e-16
1.160000000e-02	3.641145870e-01	-1.808000128e-02	1.831867991e-15
1.170000000e-02	3.641542195e-01	-1.813832916e-02	9.930136613e-16
1.180000000e-02	3.641941881e-01	-1.819711904e-02	1.862934717e-15
1.190000000e-02	3.642344928e-01	-1.825636996e-02	1.942890293e-16
1.200000000e-02	3.642751333e-01	-1.831608095e-02	1.118863023e-15
1.210000000e-02	3.643161097e-01	-1.837625105e-02	9.485749681e-16
1.220000000e-02	3.643574217e-01	-1.843687926e-02	1.054803171e-15
1.230000000e-02	3.643990694e-01	-1.849796461e-02	1.110223025e-15
1.240000000e-02	3.644410525e-01	-1.855950610e-02	4.847302891e-16
1.250000000e-02	3.644833710e-01	-1.862150272e-02	1.110223025e-16
1.260000000e-02	3.645260247e-01	-1.868395348e-02	8.005932085e-16
1.270000000e-02	3.645690136e-01	-1.874685736e-02	1.153193230e-15
1.280000000e-02	3.646123376e-01	-1.881021334e-02	3.148514985e-15
1.290000000e-02	3.646559964e-01	-1.887402038e-02	5.389157964e-16
1.300000000e-02	3.646999901e-01	-1.893827747e-02	4.163336342e-17
1.310000000e-02	3.647443185e-01	-1.900298355e-02	4.742874840e-16
1.320000000e-02	3.647889815e-01	-1.906813759e-02	3.053113318e-16
1.330000000e-02	3.648339790e-01	-1.913373853e-02	1.526556659e-16
1.340000000e-02	3.648793108e-01	-1.919978530e-02	9.155133597e-16
1.350000000e-02	3.649249769e-01	-1.926627685e-02	4.965068306e-16
1.360000000e-02	3.649709770e-01	-1.933321210e-02	1.208005430e-15
1.370000000e-02	3.650173112e-01	-1.940058998e-02	4.695944832e-16
1.380000000e-02	3.650639793e-01	-1.946840939e-02	1.780742444e-15
1.390000000e-02	3.651109812e-01	-1.953666926e-02	1.387778781e-16
1.400000000e-02	3.651583167e-01	-1.960536848e-02	9.809151850e-16
1.410000000e-02	3.652059857e-01	-1.967450595e-02	4.443059974e-16
1.420000000e-02	3.652539881e-01	-1.974408055e-02	8.899114524e-16
1.430000000e-02	3.653023238e-01	-1.981409119e-02	9.226380847e-16
1.440000000e-02	3.653509927e-01	-1.988453673e-02	1.260436278e-15
1.450000000e-02	3.653999946e-01	-1.995541604e-02	8.049116929e-16
1.460000000e-02	3.654493294e-01	-2.002672800e-02	8.934752162e-16
1.470000000e-02	3.654989970e-01	-2.009847147e-02	1.332267630e-15
1.480000000e-02	3.655489972e-01	-2.017064529e-02	1.526556659e-16
1.490000000e-02	3.655993300e-01	-2.024324832e-02	8.355534722e-16
1.500000000e-02	3.656499951e-01	-2.031627941e-02	2.224778631e-15
1.510000000e-02	3.657009926e-01	-2.038973738e-02	1.366803587e-15
1.520000000e-02	3.657523221e-01	-2.046362108e-02	1.110223025e-16
1.530000000e-02	3.658039837e-01	-2.053792932e-02	4.302114220e-16
1.540000000e-02	3.658559771e-01	-2.061266094e-02	1.358110124e-15
1.550000000e-02	3.659083023e-01	-2.068781473e-02	2.010890974e-15
1.560000000e-02	3.659609591e-01	-2.076338952e-02	4.577566799e-16
1.570000000e-02	3.660139474e-01	-2.083938410e-02	1.333423610e-15
1.580000000e-02	3.660672670e-01	-2.091579728e-02	4.613190424e-16
1.590000000e-02	3.661209178e-01	-2.099262784e-02	9.809151850e-16
1.600000000e-02	3.661748997e-01	-2.106987457e-02	8.899114524e-16
1.610000000e-02	3.662292125e-01	-2.114753626e-02	9.559569858e-16
1.620000000e-02	3.662838561e-01	-2.122561168e-02	1.471372778e-15
1.630000000e-02	3.663388303e-01	-2.130409960e-02	2.203904562e-15
1.640000000e-02	3.663941351e-01	-2.138299879e-02	8.950904183e-16
1.650000000e-02	3.664497702e-01	-2.146230801e-02	1.378868392e-15
1.660000000e-02	3.665057356e-01	-2.154202601e-02	3.469446952e-16
1.670000000e-02	3.665620311e-01	-2.162215154e-02	8.005932085e-16
1.680000000e-02	3.666186565e-01	-2.170268335e-02	4.475452091e-16
1.690000000e-02	3.666756117e-01	-2.178362017e-02	1.019049276e-15
1.700000000e-02	3.667328965e-01	-2.186496075e-02	1.665334537e-16
1.710000000e-02	3.667905109e-01	-2.194670381e-02	6.087272963e-16
1.720000000e-02	3.668484547e-01	-2.202884808e-02	4.545902364e-16
1.730000000e-02	3.669067277e-01	-2.211139227e-02	1.777711576e-15
1.740000000e-02	3.669653297e-01	-2.219433510e-02	1.432642154e-15
1.750000000e-02	3.670242607e-01	-2.227767528e-02	8.989550627e-16
1.760000000e-02	3.670835205e-01	-2.236141152e-02	5.389157964e-16
1.770000000e-02	3.671431088e-01	-2.244554251e-02	2.483193489e-15
1.780000000e-02	3.672030257e-01	-2.253006695e-02	4.577566799e-16
1.790000000e-02	3.672632709e-01	-2.261498354e-02	5.273559367e-16
1.800000000e-02	3.673238443e-01	-2.270029095e-02	5.095246378e-16
1.810000000e-02	3.673847457e-01	-2.278598787e-02	1.082467449e-15
1.820000000e-02	3.674459750e-01	-2.287207297e-02	6.788777767e-16
1.830000000e-02	3.675075319e-01	-2.295854493e-02	6.383782392e-16
1.840000000e-02	3.675694165e-01	-2.304540242e-02	1.635990478e-15
1.850000000e-02	3.676316284e-01	-2.313264410e-02	1.776411049e-15
1.860000000e-02	3.676941677e-01	-2.322026862e-02	1.665334537e-16
1.870000000e-02	3.677570340e-01	-2.330827464e-02	1.062353495e-15
1.880000000e-02	3.678202272e-01	-2.339666082e-02	8.326672685e-17
1.890000000e-02	3.678837472e-01	-2.348542579e-02	1.465536446e-15
1.900000000e-02	3.679475938e-01	-2.357456821e-02	3.885780586e-16
1.910000000e-02	3.680117669e-01	-2.366408670e-02	1.013078510e-15
1.920000000e-02	3.680762663e-01	-2.375397989e-02	1.118604794e-15
1.930000000e-02	3.681410919e-01	-2.384424643e-02	1.077831593e-15
1.940000000e-02	3.682062434e-01	-2.393488492e-02	1.068589661e-15
1.950000000e-02	3.682717207e-01	-2.402589400e-02	1.334867179e-15
1.960000000e-02	3.683375237e-01	-2.411727228e-02	5.389157964e-16
1.970000000e-02	3.684036521e-01	-2.420901837e-02	1.342635627e-15
1.980000000e-02	3.684701059e-01	-2.430113089e-02	1.340985007e-15
1.990000000e-02	3.685368848e-01	-2.439360842e-02	4.449557262e-16
2.000000000e-02	3.686039888e-01	-2.448644959e-02	6.894341958e-16
2.010000000e-02	3.686714175e-01	-2.457965297e-02	4.440892099e-16
2.020000000e-02	3.687391709e-01	-2.467321718e-02	8.920730088e-16
2.030000000e-02	3.688072488e-01	-2.476714079e-02	1.249000903e-16
2.040000000e-02	3.688756510e-01	-2.486142239e-02	1.563208212e-15
2.050000000e-02	3.689443774e-01	-2.495606056e-02	9.020562075e-16
2.060000000e-02	3.690134277e-01	-2.505105389e-02	8.950904183e-16
2.070000000e-02	3.690828018e-01	-2.514640094e-02	7.327682229e-16
2.080000000e-02	3.691524996e-01	-2.524210029e-02	2.220836328e-15
2.090000000e-02	3.692225208e-01	-2.533815051e-02	4.460365044e-16
2.100000000e-02	3.692928654e-01	-2.543455016e-02	9.305364598e-16
2.110000000e-02	3.693635330e-01	-2.553129780e-02	5.551115123e-17
2.120000000e-02	3.694345236e-01	-2.562839199e-02	1.549907229e-15
2.130000000e-02	3.695058369e-01	-2.572583128e-02	1.339476142e-15
2.140000000e-02	3.695774728e-01	-2.582361423e-02	1.275851084e-15
2.150000000e-02	3.696494312e-01	-2.592173938e-02	4.847302891e-16
2.160000000e-02	3.697217118e-01	-2.602020527e-02	6.087272963e-16
2.170000000e-02	3.697943144e-01	-2.611901046e-02	4.577566799e-16
2.180000000e-02	3.698672389e-01	-2.621815346e-02	2.775557562e-16
2.190000000e-02	3.699404851e-01	-2.631763283e-02	9.391889664e-16
2.200000000e-02	3.700140529e-01	-2.641744710e-02	3.330669074e-16
2.210000000e-02	3.700879419e-01	-2.651759478e-02	7.550332864e-16
2.220000000e-02	3.701621521e-01	-2.661807441e-02	5.967448757e-16
2.230000000e-02	3.702366834e-01	-2.671888451e-02	1.346360005e-15
2.240000000e-02	3.703115353e-01	-2.682002361e-02	8.005932085e-16
2.250000000e-02	3.703867079e-01	-2.692149021e-02	9.012017851e-16
2.260000000e-02	3.704622010e-01	-2.702328283e-02	6.379255421e-16
2.270000000e-02	3.705380142e-01	-2.712539999e-02	1.391728330e-15
2.280000000e-02	3.706141476e-01	-2.722784020e-02	4.443059974e-16
2.290000000e-02	3.706906008e-01	-2.733060195e-02	9.192921514e-16
2.300000000e-02	3.707673736e-01	-2.743368376e-02	5.900916318e-16
2.310000000e-02	3.708444660e-01	-2.753708413e-02	0.000000000e+00
2.320000000e-02	3.709218777e-01	-2.764080154e-02	5.236911533e-16
2.330000000e-02	3.709996085e-01	-2.774483451e-02	5.551115123e-16
2.340000000e-02	3.710776582e-01	-2.784918152e-02	6.788777767e-16
2.350000000e-02	3.711560267e-01	-2.795384107e-02	8.920730088e-16
2.360000000e-02	3.712347137e-01	-2.805881164e-02	2.878562314e-15
2.370000000e-02	3.713137191e-01	-2.816409172e-02	6.479604370e-16
2.380000000e-02	3.713930426e-01	-2.826967980e-02	6.788777767e-16
2.390000000e-02	3.714726841e-01	-2.837557435e-02	4.695944832e-16
2.400000000e-02	3.715526434e-01	-2.848177386e-02	7.776515946e-16
2.410000000e-02	3.716329203e-01	-2.858827680e-02	5.164700352e-16
2.420000000e-02	3.717135146e-01	-2.869508165e-02	9.436895709e-16
2.430000000e-02	3.717944260e-01	-2.880218688e-02	9.091804728e-16
2.440000000e-02	3.718756545e-01	-2.890959096e-02	1.030419904e-15
2.450000000e-02	3.719571998e-01	-2.901729237e-02	4.460365044e-16
2.460000000e-02	3.720390617e-01	-2.912528957e-02	4.695944832e-16
2.470000000e-02	3.721212400e-01	-2.923358102e-02	8.934752162e-16
2.480000000e-02	3.722037345e-01	-2.934216519e-02	8.005932085e-16
2.490000000e-02	3.722865450e-01	-2.945104054e-02	4.695944832e-16
2.500000000e-02	3.723696714e-01	-2.956020553e-02	3.469446952e-16
2.510000000e-02	3.724531133e-01	-2.966965861e-02	1.824493715e-15
2.520000000e-02	3.725368707e-01	-2.977939825e-02	1.025924322e-15
2.530000000e-02	3.726209433e-01	-2.988942290e-02	1.093795082e-15
2.540000000e-02	3.727053309e-01	-2.999973101e-02	5.551115123e-17
2.550000000e-02	3.727900333e-01	-3.011032103e-02	1.110223025e-15
2.560000000e-02	3.728750504e-01	-3.022119141e-02	1.535425298e-15
2.570000000e-02	3.729603818e-01	-3.033234060e-02	1.162093833e-15
2.580000000e-02	3.730460274e-01	-3.044376704e-02	9.868853899e-16
2.590000000e-02	3.731319870e-01	-3.055546919e-02	8.920730088e-16
2.600000000e-02	3.732182605e-01	-3.066744548e-02	1.342635627e-15
2.610000000e-02	3.733048475e-01	-3.077969436e-02	1.387778781e-16
2.620000000e-02	3.733917478e-01	-3.089221427e-02	2.221529987e-15
2.630000000e-02	3.734789614e-01	-3.100500364e-02	5.028663855e-16
2.640000000e-02	3.735664879e-01	-3.111806092e-02	4.742874840e-16
2.650000000e-02	3.736543272e-01	-3.123138455e-02	9.347697127e-16
2.660000000e-02	3.737424790e-01	-3.134497295e-02	2.239489712e-15
2.670000000e-02	3.738309431e-01	-3.145882457e-02	5.635475560e-16
2.680000000e-02	3.739197194e-01	-3.157293784e-02	7.494005416e-16
2.690000000e-02	3.740088076e-01	-3.168731119e-02	4.793364605e-16
2.700000000e-02	3.740982075e-01	-3.180194305e-02	1.387778781e-16
2.710000000e-02	3.741879189e-01	-3.191683185e-02	3.330669074e-16
2.720000000e-02	3.742779416e-01	-3.203197603e-02	4.847302891e-16
2.730000000e-02	3.743682754e-01	-3.214737401e-02	1.110223025e-16
2.740000000e-02	3.744589200e-01	-3.226302422e-02	4.494775313e-16
2.750000000e-02	3.745498752e-01	-3.237892509e-02	1.256073967e-15
2.760000000e-02	3.746411409e-01	-3.249507505e-02	1.135691544e-15
2.770000000e-02	3.747327168e-01	-3.261147251e-02	3.053113318e-16
2.780000000e-02	3.748246027e-01	-3.272811591e-02	4.443059974e-16
2.790000000e-02	3.749167984e-01	-3.284500366e-02	6.106226635e-16
2.800000000e-02	3.750093036e-01	-3.296213420e-02	2.775557562e-15
2.810000000e-02	3.751021182e-01	-3.307950595e-02	1.776844663e-15
2.820000000e-02	3.751952419e-01	-3.319711732e-02	7.910339050e-16
2.830000000e-02	3.752886745e-01	-3.331496675e-02	8.881784197e-16
2.840000000e-02	3.753824158e-01	-3.343305264e-02	5.095246378e-16
2.850000000e-02	3.754764656e-01	-3.355137343e-02	9.586729210e-16
2.860000000e-02	3.755708237e-01	-3.366992754e-02	4.965068306e-16
2.870000000e-02	3.756654897e-01	-3.378871337e-02	5.551115123e-17
2.880000000e-02	3.757604636e-01	-3.390772937e-02	7.890837414e-16
2.890000000e-02	3.758557451e-01	-3.402697393e-02	8.899114524e-16
2.900000000e-02	3.759513340e-01	-3.414644549e-02	1.804112415e-16
2.910000000e-02	3.760472300e-01	-3.426614246e-02	1.576519138e-15
2.920000000e-02	3.761434329e-01	-3.438606327e-02	4.857225733e-16
2.930000000e-02	3.762399425e-01	-3.450620632e-02	5.635475560e-16
2.940000000e-02	3.763367586e-01	-3.462657005e-02	5.028663855e-16
2.950000000e-02	3.764338810e-01	-3.474715286e-02	2.775557562e-17
2.960000000e-02	3.765313093e-01	-3.486795318e-02	7.217783939e-16
2.970000000e-02	3.766290435e-01	-3.498896943e-02	4.449557262e-16
2.980000000e-02	3.767270833e-01	-3.511020002e-02	8.899114524e-16
2.990000000e-02	3.768254284e-01	-3.523164338e-02	9.159339953e-16
3.000000000e-02	3.769240786e-01	-3.535329792e-02	6.087272963e-16
3.010000000e-02	3.770230337e-01	-3.547516206e-02	5.311767473e-16
3.020000000e-02	3.771222935e-01	-3.559723422e-02	4.857225733e-16
3.030000000e-02	3.772218577e-01	-3.571951282e-02	5.389157964e-16
