# Ep [eV]     Omega/c [1/micrones]    Im(epsi1)     Eq(det).Opt det SIN kz nano,R = 0.5 $\mu$m, $\mu_c$ = 0.3 eV, modo = 4, $\epsilon_\infty$ = 3.9, $\gamma_{DL}$ = 0.01 eV, solve_det_sinkz_vs_Ep.py
0.000000000e+00	2.678461165e-01	-2.985471497e-02	4.311326371e-14
1.000000000e-04	2.678462102e-01	-2.985535130e-02	3.051316246e-14
2.000000000e-04	2.678464911e-01	-2.985726027e-02	1.289427379e-13
3.000000000e-04	2.678469594e-01	-2.986044186e-02	6.335551674e-14
4.000000000e-04	2.678476149e-01	-2.986489603e-02	4.574118861e-14
5.000000000e-04	2.678484577e-01	-2.987062273e-02	4.440892099e-16
6.000000000e-04	2.678494878e-01	-2.987762189e-02	8.700635874e-14
7.000000000e-04	2.678507052e-01	-2.988589341e-02	1.623551524e-13
8.000000000e-04	2.678521099e-01	-2.989543720e-02	8.532177711e-14
9.000000000e-04	2.678537018e-01	-2.990625314e-02	1.776356839e-15
1.000000000e-03	2.678554810e-01	-2.991834109e-02	4.311326371e-14
1.100000000e-03	2.678574476e-01	-2.993170090e-02	8.556067555e-14
1.200000000e-03	2.678596013e-01	-2.994633241e-02	8.038873388e-14
1.300000000e-03	2.678619424e-01	-2.996223544e-02	3.552713679e-15
1.400000000e-03	2.678644707e-01	-2.997940979e-02	7.240833371e-14
1.500000000e-03	2.678671863e-01	-2.999785525e-02	5.685035733e-14
1.600000000e-03	2.678700891e-01	-3.001757158e-02	8.556067555e-14
1.700000000e-03	2.678731792e-01	-3.003855855e-02	5.151434834e-14
1.800000000e-03	2.678764565e-01	-3.006081590e-02	2.919189944e-14
1.900000000e-03	2.678799210e-01	-3.008434334e-02	3.005404692e-14
2.000000000e-03	2.678835728e-01	-3.010914060e-02	1.664149878e-13
2.100000000e-03	2.678874118e-01	-3.013520735e-02	7.611564690e-14
2.200000000e-03	2.678914381e-01	-3.016254328e-02	2.847716648e-14
2.300000000e-03	2.678956515e-01	-3.019114805e-02	5.240252676e-14
2.400000000e-03	2.679000522e-01	-3.022102130e-02	1.518713678e-13
2.500000000e-03	2.679046400e-01	-3.025216268e-02	6.661338148e-14
2.600000000e-03	2.679094150e-01	-3.028457178e-02	5.883469769e-14
2.700000000e-03	2.679143772e-01	-3.031824821e-02	3.424097721e-14
2.800000000e-03	2.679195266e-01	-3.035319155e-02	2.909377513e-14
2.900000000e-03	2.679248632e-01	-3.038940137e-02	7.860379014e-14
3.000000000e-03	2.679303868e-01	-3.042687723e-02	4.412378853e-14
3.100000000e-03	2.679360977e-01	-3.046561865e-02	2.664535259e-15
3.200000000e-03	2.679419956e-01	-3.050562516e-02	1.243449788e-14
3.300000000e-03	2.679480807e-01	-3.054689627e-02	3.952393968e-14
3.400000000e-03	2.679543529e-01	-3.058943146e-02	8.528363000e-14
3.500000000e-03	2.679608121e-01	-3.063323021e-02	3.399531183e-14
3.600000000e-03	2.679674585e-01	-3.067829197e-02	1.582908629e-13
3.700000000e-03	2.679742920e-01	-3.072461620e-02	2.919189944e-14
3.800000000e-03	2.679813124e-01	-3.077220231e-02	1.421924830e-13
3.900000000e-03	2.679885200e-01	-3.082104972e-02	7.993605777e-14
4.000000000e-03	2.679959146e-01	-3.087115783e-02	1.422084321e-13
4.100000000e-03	2.680034962e-01	-3.092252601e-02	1.159208949e-13
4.200000000e-03	2.680112648e-01	-3.097515364e-02	3.177643716e-14
4.300000000e-03	2.680192204e-01	-3.102904006e-02	9.871175159e-14
4.400000000e-03	2.680273630e-01	-3.108418461e-02	1.865174681e-14
4.500000000e-03	2.680356925e-01	-3.114058660e-02	2.850831366e-14
4.600000000e-03	2.680442090e-01	-3.119824535e-02	6.823528616e-14
4.700000000e-03	2.680529125e-01	-3.125716013e-02	1.065814104e-14
4.800000000e-03	2.680618028e-01	-3.131733023e-02	2.847716648e-14
4.900000000e-03	2.680708801e-01	-3.137875490e-02	5.728578677e-14
5.000000000e-03	2.680801442e-01	-3.144143338e-02	1.137007147e-13
5.100000000e-03	2.680895952e-01	-3.150536490e-02	1.598721155e-14
5.200000000e-03	2.680992331e-01	-3.157054867e-02	2.843558383e-14
5.300000000e-03	2.681090578e-01	-3.163698389e-02	7.160723346e-14
5.400000000e-03	2.681190693e-01	-3.170466974e-02	1.151356412e-13
5.500000000e-03	2.681292676e-01	-3.177360539e-02	4.440892099e-16
5.600000000e-03	2.681396527e-01	-3.184378998e-02	8.543149943e-14
5.700000000e-03	2.681502246e-01	-3.191522266e-02	1.909583602e-14
5.800000000e-03	2.681609832e-01	-3.198790254e-02	1.776356839e-15
5.900000000e-03	2.681719285e-01	-3.206182873e-02	2.842170943e-14
6.000000000e-03	2.681830605e-01	-3.213700032e-02	1.706002094e-13
6.100000000e-03	2.681943792e-01	-3.221341639e-02	9.090821777e-14
6.200000000e-03	2.682058846e-01	-3.229107599e-02	5.687116766e-14
6.300000000e-03	2.682175766e-01	-3.236997817e-02	1.776356839e-14
6.400000000e-03	2.682294552e-01	-3.245012196e-02	3.952393968e-14
6.500000000e-03	2.682415205e-01	-3.253150638e-02	5.417888360e-14
6.600000000e-03	2.682537723e-01	-3.261413042e-02	1.462025044e-13
6.700000000e-03	2.682662107e-01	-3.269799308e-02	2.220446049e-15
6.800000000e-03	2.682788356e-01	-3.278309331e-02	1.281141569e-13
6.900000000e-03	2.682916470e-01	-3.286943009e-02	4.278033777e-14
7.000000000e-03	2.683046449e-01	-3.295700234e-02	1.206558592e-13
7.100000000e-03	2.683178293e-01	-3.304580899e-02	5.050135945e-14
7.200000000e-03	2.683312001e-01	-3.313584896e-02	2.842170943e-14
7.300000000e-03	2.683447573e-01	-3.322712114e-02	4.840572387e-14
7.400000000e-03	2.683585009e-01	-3.331962441e-02	2.850831366e-14
7.500000000e-03	2.683724309e-01	-3.341335764e-02	4.689716627e-14
7.600000000e-03	2.683865472e-01	-3.350831967e-02	3.138928592e-14
7.700000000e-03	2.684008499e-01	-3.360450936e-02	5.687116766e-14
7.800000000e-03	2.684153388e-01	-3.370192551e-02	1.054503832e-13
7.900000000e-03	2.684300140e-01	-3.380056694e-02	1.504800727e-13
8.000000000e-03	2.684448754e-01	-3.390043244e-02	6.415974921e-14
8.100000000e-03	2.684599231e-01	-3.400152080e-02	8.728132539e-14
8.200000000e-03	2.684751569e-01	-3.410383076e-02	7.815970093e-14
8.300000000e-03	2.684905769e-01	-3.420736109e-02	8.927076834e-14
8.400000000e-03	2.685061830e-01	-3.431211051e-02	3.718700266e-14
8.500000000e-03	2.685219753e-01	-3.441807776e-02	1.243449788e-14
8.600000000e-03	2.685379536e-01	-3.452526153e-02	9.324710244e-14
8.700000000e-03	2.685541179e-01	-3.463366052e-02	5.848673440e-14
8.800000000e-03	2.685704683e-01	-3.474327340e-02	2.264854970e-14
8.900000000e-03	2.685870046e-01	-3.485409884e-02	2.883845712e-14
9.000000000e-03	2.686037269e-01	-3.496613549e-02	5.701662732e-14
9.100000000e-03	2.686206351e-01	-3.507938198e-02	9.664426066e-14
9.200000000e-03	2.686377292e-01	-3.519383693e-02	7.119984124e-14
9.300000000e-03	2.686550092e-01	-3.530949895e-02	4.050960254e-14
9.400000000e-03	2.686724750e-01	-3.542636663e-02	1.668505276e-13
9.500000000e-03	2.686901267e-01	-3.554443855e-02	2.847716648e-14
9.600000000e-03	2.687079641e-01	-3.566371328e-02	3.328299755e-14
9.700000000e-03	2.687259872e-01	-3.578418935e-02	1.137007147e-13
9.800000000e-03	2.687441960e-01	-3.590586532e-02	5.848673440e-14
9.900000000e-03	2.687625905e-01	-3.602873969e-02	1.524047916e-13
1.000000000e-02	2.687811707e-01	-3.615281098e-02	4.082723469e-14
1.010000000e-02	2.687999365e-01	-3.627807769e-02	2.850831366e-14
1.020000000e-02	2.688188878e-01	-3.640453829e-02	6.661338148e-15
1.030000000e-02	2.688380247e-01	-3.653219124e-02	4.796369059e-14
1.040000000e-02	2.688573470e-01	-3.666103501e-02	5.906386491e-14
1.050000000e-02	2.688768549e-01	-3.679106803e-02	4.440892099e-16
1.060000000e-02	2.688965482e-01	-3.692228873e-02	5.329070518e-15
1.070000000e-02	2.689164269e-01	-3.705469551e-02	1.172942087e-13
1.080000000e-02	2.689364909e-01	-3.718828677e-02	2.664535259e-15
1.090000000e-02	2.689567403e-01	-3.732306091e-02	2.220446049e-15
1.100000000e-02	2.689771750e-01	-3.745901628e-02	3.552713679e-14
1.110000000e-02	2.689977949e-01	-3.759615125e-02	1.179782142e-13
1.120000000e-02	2.690186001e-01	-3.773446416e-02	8.833692362e-14
1.130000000e-02	2.690395904e-01	-3.787395334e-02	2.845291732e-14
1.140000000e-02	2.690607659e-01	-3.801461711e-02	1.015013469e-13
1.150000000e-02	2.690821264e-01	-3.815645376e-02	2.842517867e-14
1.160000000e-02	2.691036721e-01	-3.829946160e-02	6.543801807e-14
1.170000000e-02	2.691254028e-01	-3.844363889e-02	5.950795412e-14
1.180000000e-02	2.691473184e-01	-3.858898391e-02	4.515101100e-14
1.190000000e-02	2.691694191e-01	-3.873549489e-02	9.493542986e-14
1.200000000e-02	2.691917046e-01	-3.888317008e-02	3.865617376e-14
1.210000000e-02	2.692141750e-01	-3.903200771e-02	5.685902923e-14
1.220000000e-02	2.692368303e-01	-3.918200597e-02	8.529403545e-14
1.230000000e-02	2.692596703e-01	-3.933316308e-02	5.690063594e-14
1.240000000e-02	2.692826951e-01	-3.948547721e-02	4.976970205e-14
1.250000000e-02	2.693059046e-01	-3.963894654e-02	8.530675150e-14
1.260000000e-02	2.693292987e-01	-3.979356923e-02	5.760335218e-14
1.270000000e-02	2.693528775e-01	-3.994934341e-02	6.236410408e-14
1.280000000e-02	2.693766409e-01	-4.010626724e-02	1.015013469e-13
1.290000000e-02	2.694005888e-01	-4.026433882e-02	1.206558592e-13
1.300000000e-02	2.694247212e-01	-4.042355626e-02	2.843558383e-14
1.310000000e-02	2.694490381e-01	-4.058391767e-02	1.150696758e-13
1.320000000e-02	2.694735394e-01	-4.074542112e-02	1.065814104e-14
1.330000000e-02	2.694982251e-01	-4.090806468e-02	7.993605777e-15
1.340000000e-02	2.695230950e-01	-4.107184641e-02	3.328299755e-14
1.350000000e-02	2.695481493e-01	-4.123676435e-02	4.440892099e-15
1.360000000e-02	2.695733878e-01	-4.140281654e-02	2.859120692e-14
1.370000000e-02	2.695988105e-01	-4.157000100e-02	5.723240073e-14
1.380000000e-02	2.696244173e-01	-4.173831573e-02	2.264854970e-14
1.390000000e-02	2.696502083e-01	-4.190775874e-02	1.441922856e-13
1.400000000e-02	2.696761833e-01	-4.207832800e-02	5.922392084e-14
1.410000000e-02	2.697023423e-01	-4.225002148e-02	1.244496129e-13
1.420000000e-02	2.697286852e-01	-4.242283714e-02	2.708944180e-14
1.430000000e-02	2.697552121e-01	-4.259677294e-02	2.842517867e-14
1.440000000e-02	2.697819229e-01	-4.277182680e-02	5.688677042e-14
1.450000000e-02	2.698088175e-01	-4.294799665e-02	2.876656200e-14
1.460000000e-02	2.698358958e-01	-4.312528039e-02	5.240252676e-14
1.470000000e-02	2.698631579e-01	-4.330367593e-02	3.158033248e-14
1.480000000e-02	2.698906036e-01	-4.348318116e-02	2.876656200e-14
1.490000000e-02	2.699182330e-01	-4.366379394e-02	5.684341886e-14
1.500000000e-02	2.699460460e-01	-4.384551215e-02	4.440892099e-16
1.510000000e-02	2.699740424e-01	-4.402833362e-02	3.108624469e-14
1.520000000e-02	2.700022224e-01	-4.421225621e-02	5.688677042e-14
1.530000000e-02	2.700305858e-01	-4.439727775e-02	7.883427825e-14
1.540000000e-02	2.700591326e-01	-4.458339603e-02	3.108624469e-14
1.550000000e-02	2.700878627e-01	-4.477060888e-02	0.000000000e+00
1.560000000e-02	2.701167761e-01	-4.495891409e-02	1.021405183e-14
1.570000000e-02	2.701458727e-01	-4.514830944e-02	1.042323827e-13
1.580000000e-02	2.701751525e-01	-4.533879269e-02	2.486899575e-14
1.590000000e-02	2.702046154e-01	-4.553036161e-02	3.835655861e-14
1.600000000e-02	2.702342614e-01	-4.572301395e-02	1.137180585e-13
1.610000000e-02	2.702640904e-01	-4.591674745e-02	8.526975410e-14
1.620000000e-02	2.702941024e-01	-4.611155982e-02	8.526628477e-14
1.630000000e-02	2.703242972e-01	-4.630744879e-02	2.039718710e-13
1.640000000e-02	2.703546750e-01	-4.650441205e-02	1.243449788e-14
1.650000000e-02	2.703852355e-01	-4.670244731e-02	5.107025913e-14
1.660000000e-02	2.704159788e-01	-4.690155224e-02	2.042810365e-14
1.670000000e-02	2.704469049e-01	-4.710172451e-02	3.305408226e-14
1.680000000e-02	2.704780135e-01	-4.730296179e-02	2.220446049e-14
1.690000000e-02	2.705093047e-01	-4.750526171e-02	9.016214077e-14
1.700000000e-02	2.705407785e-01	-4.770862193e-02	2.952441871e-14
1.710000000e-02	2.705724348e-01	-4.791304007e-02	5.684515356e-14
1.720000000e-02	2.706042734e-01	-4.811851375e-02	2.842517867e-14
1.730000000e-02	2.706362945e-01	-4.832504056e-02	7.408840256e-14
1.740000000e-02	2.706684978e-01	-4.853261812e-02	1.332267630e-15
1.750000000e-02	2.707008834e-01	-4.874124400e-02	4.515101100e-14
1.760000000e-02	2.707334512e-01	-4.895091578e-02	6.236410408e-14
1.770000000e-02	2.707662012e-01	-4.916163102e-02	5.767178506e-14
1.780000000e-02	2.707991332e-01	-4.937338729e-02	2.929642751e-14
1.790000000e-02	2.708322472e-01	-4.958618212e-02	3.005404692e-14
1.800000000e-02	2.708655432e-01	-4.980001304e-02	7.105427358e-15
1.810000000e-02	2.708990212e-01	-5.001487759e-02	2.876656200e-14
1.820000000e-02	2.709326809e-01	-5.023077327e-02	7.727152251e-14
1.830000000e-02	2.709665225e-01	-5.044769759e-02	5.904883742e-14
1.840000000e-02	2.710005458e-01	-5.066564804e-02	2.850831366e-14
1.850000000e-02	2.710347507e-01	-5.088462212e-02	1.057874190e-13
1.860000000e-02	2.710691373e-01	-5.110461728e-02	1.217322969e-13
1.870000000e-02	2.711037054e-01	-5.132563100e-02	6.315598113e-14
1.880000000e-02	2.711384550e-01	-5.154766073e-02	8.526975410e-14
1.890000000e-02	2.711733860e-01	-5.177070392e-02	3.020133146e-14
1.900000000e-02	2.712084984e-01	-5.199475800e-02	2.859120692e-14
1.910000000e-02	2.712437921e-01	-5.221982040e-02	2.952441871e-14
1.920000000e-02	2.712792671e-01	-5.244588853e-02	1.643130076e-14
1.930000000e-02	2.713149232e-01	-5.267295980e-02	8.526512829e-14
1.940000000e-02	2.713507605e-01	-5.290103161e-02	1.136868377e-13
1.950000000e-02	2.713867788e-01	-5.313010135e-02	9.122007478e-14
1.960000000e-02	2.714229781e-01	-5.336016639e-02	8.881784197e-16
1.970000000e-02	2.714593583e-01	-5.359122411e-02	8.737730286e-14
1.980000000e-02	2.714959194e-01	-5.382327186e-02	2.842170943e-14
1.990000000e-02	2.715326613e-01	-5.405630700e-02	4.515101100e-14
2.000000000e-02	2.715695839e-01	-5.429032687e-02	3.776586444e-14
2.010000000e-02	2.716066872e-01	-5.452532880e-02	6.375271444e-14
2.020000000e-02	2.716439712e-01	-5.476131012e-02	0.000000000e+00
2.030000000e-02	2.716814356e-01	-5.499826815e-02	8.881784197e-16
2.040000000e-02	2.717190806e-01	-5.523620019e-02	5.688677042e-14
2.050000000e-02	2.717569059e-01	-5.547510353e-02	1.423858324e-13
2.060000000e-02	2.717949116e-01	-5.571497547e-02	7.380436674e-14
2.070000000e-02	2.718330976e-01	-5.595581329e-02	4.440892099e-16
2.080000000e-02	2.718714638e-01	-5.619761427e-02	2.845291732e-14
2.090000000e-02	2.719100102e-01	-5.644037566e-02	3.399531183e-14
2.100000000e-02	2.719487366e-01	-5.668409472e-02	1.136877051e-13
2.110000000e-02	2.719876431e-01	-5.692876870e-02	1.137007147e-13
2.120000000e-02	2.720267295e-01	-5.717439483e-02	3.685940442e-14
2.130000000e-02	2.720659958e-01	-5.742097035e-02	5.651634989e-14
2.140000000e-02	2.721054419e-01	-5.766849248e-02	4.440892099e-16
2.150000000e-02	2.721450677e-01	-5.791695844e-02	4.114720790e-14
2.160000000e-02	2.721848732e-01	-5.816636542e-02	6.848195442e-14
2.170000000e-02	2.722248583e-01	-5.841671063e-02	8.526628477e-14
2.180000000e-02	2.722650229e-01	-5.866799126e-02	4.725117540e-14
2.190000000e-02	2.723053671e-01	-5.892020449e-02	3.138928592e-14
2.200000000e-02	2.723458906e-01	-5.917334750e-02	0.000000000e+00
2.210000000e-02	2.723865934e-01	-5.942741744e-02	1.065814104e-14
2.220000000e-02	2.724274755e-01	-5.968241149e-02	1.472669726e-13
2.230000000e-02	2.724685367e-01	-5.993832678e-02	2.883845712e-14
2.240000000e-02	2.725097771e-01	-6.019516047e-02	2.886579864e-14
2.250000000e-02	2.725511966e-01	-6.045290969e-02	4.440892099e-16
2.260000000e-02	2.725927949e-01	-6.071157157e-02	5.575044364e-14
2.270000000e-02	2.726345722e-01	-6.097114324e-02	8.437694987e-15
2.280000000e-02	2.726765284e-01	-6.123162179e-02	9.342775774e-14
2.290000000e-02	2.727186632e-01	-6.149300435e-02	7.549516567e-15
2.300000000e-02	2.727609768e-01	-6.175528801e-02	5.690583464e-14
2.310000000e-02	2.728034690e-01	-6.201846986e-02	2.220446049e-15
2.320000000e-02	2.728461397e-01	-6.228254699e-02	4.440892099e-16
2.330000000e-02	2.728889888e-01	-6.254751648e-02	4.378503414e-14
2.340000000e-02	2.729320164e-01	-6.281337539e-02	6.436689735e-14
2.350000000e-02	2.729752223e-01	-6.308012080e-02	5.718241384e-14
2.360000000e-02	2.730186064e-01	-6.334774976e-02	0.000000000e+00
2.370000000e-02	2.730621686e-01	-6.361625931e-02	4.654470175e-14
2.380000000e-02	2.731059090e-01	-6.388564651e-02	3.996802889e-15
2.390000000e-02	2.731498274e-01	-6.415590839e-02	2.220446049e-14
2.400000000e-02	2.731939237e-01	-6.442704199e-02	7.105427358e-15
2.410000000e-02	2.732381979e-01	-6.469904432e-02	1.165681307e-13
2.420000000e-02	2.732826499e-01	-6.497191240e-02	6.898122194e-14
2.430000000e-02	2.733272795e-01	-6.524564325e-02	8.538069820e-14
2.440000000e-02	2.733720869e-01	-6.552023387e-02	8.526975410e-14
2.450000000e-02	2.734170717e-01	-6.579568126e-02	1.998401444e-14
2.460000000e-02	2.734622341e-01	-6.607198241e-02	2.575717417e-14
2.470000000e-02	2.735075739e-01	-6.634913431e-02	1.776356839e-15
2.480000000e-02	2.735530909e-01	-6.662713393e-02	6.275972036e-14
2.490000000e-02	2.735987853e-01	-6.690597826e-02	6.217248938e-15
2.500000000e-02	2.736446568e-01	-6.718566425e-02	1.107065501e-13
2.510000000e-02	2.736907054e-01	-6.746618888e-02	5.551115123e-14
2.520000000e-02	2.737369310e-01	-6.774754910e-02	3.552713679e-15
2.530000000e-02	2.737833336e-01	-6.802974186e-02	8.881784197e-16
2.540000000e-02	2.738299130e-01	-6.831276410e-02	9.398023149e-14
2.550000000e-02	2.738766692e-01	-6.859661277e-02	5.690583464e-14
2.560000000e-02	2.739236020e-01	-6.888128479e-02	8.533911106e-14
2.570000000e-02	2.739707115e-01	-6.916677710e-02	2.220446049e-15
2.580000000e-02	2.740179976e-01	-6.945308662e-02	8.728132539e-14
2.590000000e-02	2.740654601e-01	-6.974021026e-02	9.435720106e-14
2.600000000e-02	2.741130989e-01	-7.002814494e-02	0.000000000e+00
2.610000000e-02	2.741609141e-01	-7.031688756e-02	5.690583464e-14
2.620000000e-02	2.742089055e-01	-7.060643503e-02	2.883845712e-14
2.630000000e-02	2.742570730e-01	-7.089678424e-02	2.074481356e-13
2.640000000e-02	2.743054165e-01	-7.118793209e-02	1.731947918e-14
2.650000000e-02	2.743539361e-01	-7.147987545e-02	5.195843755e-14
2.660000000e-02	2.744026315e-01	-7.177261122e-02	1.776356839e-15
2.670000000e-02	2.744515027e-01	-7.206613626e-02	3.685940442e-14
2.680000000e-02	2.745005496e-01	-7.236044745e-02	5.968829922e-14
2.690000000e-02	2.745497722e-01	-7.265554165e-02	1.228779677e-13
2.700000000e-02	2.745991703e-01	-7.295141573e-02	5.575044364e-14
2.710000000e-02	2.746487439e-01	-7.324806655e-02	7.159070681e-14
2.720000000e-02	2.746984929e-01	-7.354549095e-02	8.528363000e-14
2.730000000e-02	2.747484172e-01	-7.384368579e-02	5.800423916e-14
2.740000000e-02	2.747985167e-01	-7.414264791e-02	3.449061097e-14
2.750000000e-02	2.748487913e-01	-7.444237414e-02	2.843558383e-14
2.760000000e-02	2.748992410e-01	-7.474286133e-02	8.535875196e-14
2.770000000e-02	2.749498656e-01	-7.504410631e-02	3.108624469e-15
2.780000000e-02	2.750006652e-01	-7.534610589e-02	3.218344867e-14
2.790000000e-02	2.750516395e-01	-7.564885691e-02	6.528111385e-14
2.800000000e-02	2.751027885e-01	-7.595235618e-02	5.284661597e-14
2.810000000e-02	2.751541122e-01	-7.625660052e-02	9.634279748e-14
2.820000000e-02	2.752056103e-01	-7.656158673e-02	4.440892099e-16
2.830000000e-02	2.752572830e-01	-7.686731162e-02	7.268425883e-14
2.840000000e-02	2.753091300e-01	-7.717377200e-02	1.137293305e-13
2.850000000e-02	2.753611512e-01	-7.748096466e-02	5.838379888e-14
2.860000000e-02	2.754133467e-01	-7.778888641e-02	3.907985047e-14
2.870000000e-02	2.754657162e-01	-7.809753402e-02	5.688677042e-14
2.880000000e-02	2.755182598e-01	-7.840690429e-02	1.137735408e-13
2.890000000e-02	2.755709773e-01	-7.871699400e-02	8.038873388e-14
2.900000000e-02	2.756238686e-01	-7.902779994e-02	9.324710244e-14
2.910000000e-02	2.756769336e-01	-7.933931888e-02	1.043307241e-13
2.920000000e-02	2.757301724e-01	-7.965154759e-02	4.440892099e-16
2.930000000e-02	2.757835847e-01	-7.996448285e-02	8.616704033e-14
2.940000000e-02	2.758371704e-01	-8.027812142e-02	1.953992523e-14
2.950000000e-02	2.758909296e-01	-8.059246007e-02	2.398081733e-14
2.960000000e-02	2.759448620e-01	-8.090749556e-02	1.162810093e-13
2.970000000e-02	2.759989677e-01	-8.122322465e-02	5.968829922e-14
2.980000000e-02	2.760532465e-01	-8.153964409e-02	8.066792180e-14
2.990000000e-02	2.761076983e-01	-8.185675063e-02	5.385211141e-14
3.000000000e-02	2.761623231e-01	-8.217454104e-02	3.819167205e-14
3.010000000e-02	2.762171207e-01	-8.249301204e-02	6.948825513e-14
3.020000000e-02	2.762720910e-01	-8.281216039e-02	5.838379888e-14
3.030000000e-02	2.763272341e-01	-8.313198283e-02	8.616704033e-14
