# kz [eV]     Omega/c [1/micrones]    Im(epsi1)     Eq(det).Opt det con kz, R=0.5 \mum, Re(epsi1)=3.90, $\mu_c$ = 0.300 eV, solve_det_conkz_vs_kz.py
0.000000000e+00	1.896417113e-01	-2.718569244e-02	1.151890652e-13
5.000000000e-04	1.896417121e-01	-2.718569251e-02	3.999462636e-13
1.000000000e-03	1.896417144e-01	-2.718569270e-02	8.237649838e-14
1.500000000e-03	1.896417184e-01	-2.718569303e-02	6.616070992e-13
2.000000000e-03	1.896417238e-01	-2.718569350e-02	2.773891817e-13
2.500000000e-03	1.896417309e-01	-2.718569409e-02	1.864465075e-13
3.000000000e-03	1.896417395e-01	-2.718569482e-02	2.614916953e-13
3.500000000e-03	1.896417497e-01	-2.718569567e-02	3.374883386e-13
4.000000000e-03	1.896417615e-01	-2.718569666e-02	3.106031485e-14
4.500000000e-03	1.896417748e-01	-2.718569778e-02	3.874220160e-13
5.000000000e-03	1.896417897e-01	-2.718569904e-02	2.583956604e-14
5.500000000e-03	1.896418062e-01	-2.718570042e-02	2.212148963e-13
6.000000000e-03	1.896418242e-01	-2.718570194e-02	1.068039841e-13
6.500000000e-03	1.896418438e-01	-2.718570358e-02	7.030541184e-14
7.000000000e-03	1.896418650e-01	-2.718570536e-02	3.217440523e-13
7.500000000e-03	1.896418877e-01	-2.718570726e-02	3.256961134e-13
8.000000000e-03	1.896419120e-01	-2.718570930e-02	1.661780240e-13
8.500000000e-03	1.896419379e-01	-2.718571146e-02	3.533409920e-14
9.000000000e-03	1.896419653e-01	-2.718571376e-02	1.151750006e-13
9.500000000e-03	1.896419943e-01	-2.718571618e-02	2.574891091e-13
1.000000000e-02	1.896420249e-01	-2.718571874e-02	1.174796742e-13
1.050000000e-02	1.896420571e-01	-2.718572142e-02	8.985520863e-13
1.100000000e-02	1.896420908e-01	-2.718572423e-02	3.620542636e-14
1.150000000e-02	1.896421260e-01	-2.718572717e-02	1.427817306e-13
1.200000000e-02	1.896421629e-01	-2.718573023e-02	1.899558140e-13
1.250000000e-02	1.896422013e-01	-2.718573342e-02	8.881780446e-14
1.300000000e-02	1.896422413e-01	-2.718573674e-02	1.587618134e-13
1.350000000e-02	1.896422829e-01	-2.718574019e-02	8.451140603e-14
1.400000000e-02	1.896423260e-01	-2.718574376e-02	1.167610059e-13
1.450000000e-02	1.896423707e-01	-2.718574745e-02	1.389375867e-13
1.500000000e-02	1.896424169e-01	-2.718575127e-02	1.981470290e-13
1.550000000e-02	1.896424648e-01	-2.718575521e-02	8.043885229e-14
1.600000000e-02	1.896425141e-01	-2.718575928e-02	3.410445261e-13
1.650000000e-02	1.896425651e-01	-2.718576347e-02	2.574605033e-12
1.700000000e-02	1.896426176e-01	-2.718576778e-02	7.704192437e-15
1.750000000e-02	1.896426717e-01	-2.718577221e-02	6.624066339e-14
1.800000000e-02	1.896427274e-01	-2.718577676e-02	4.481096098e-13
1.850000000e-02	1.896427846e-01	-2.718578144e-02	3.145191269e-13
1.900000000e-02	1.896428434e-01	-2.718578623e-02	3.109460101e-13
1.950000000e-02	1.896429038e-01	-2.718579114e-02	4.427964616e-13
2.000000000e-02	1.896429658e-01	-2.718579617e-02	1.421768384e-13
2.050000000e-02	1.896430293e-01	-2.718580132e-02	1.845008629e-13
2.100000000e-02	1.896430943e-01	-2.718580659e-02	2.604620639e-13
2.150000000e-02	1.896431610e-01	-2.718581197e-02	3.521646209e-14
2.200000000e-02	1.896432292e-01	-2.718581746e-02	3.306802427e-13
2.250000000e-02	1.896432990e-01	-2.718582307e-02	5.692409037e-14
2.300000000e-02	1.896433703e-01	-2.718582880e-02	5.716291749e-13
2.350000000e-02	1.896434433e-01	-2.718583464e-02	8.353316179e-14
2.400000000e-02	1.896435177e-01	-2.718584058e-02	1.364318899e-13
2.450000000e-02	1.896435938e-01	-2.718584664e-02	2.075210872e-13
2.500000000e-02	1.896436714e-01	-2.718585281e-02	2.849290319e-13
2.550000000e-02	1.896437506e-01	-2.718585909e-02	2.056343663e-13
2.600000000e-02	1.896438314e-01	-2.718586548e-02	7.527308476e-13
2.650000000e-02	1.896439137e-01	-2.718587198e-02	1.131591050e-13
2.700000000e-02	1.896439976e-01	-2.718587858e-02	1.642516514e-13
2.750000000e-02	1.896440831e-01	-2.718588528e-02	8.573993971e-14
2.800000000e-02	1.896441701e-01	-2.718589210e-02	4.184563645e-13
2.850000000e-02	1.896442587e-01	-2.718589901e-02	1.345444371e-13
2.900000000e-02	1.896443489e-01	-2.718590603e-02	1.122302389e-13
2.950000000e-02	1.896444406e-01	-2.718591315e-02	2.770756641e-13
3.000000000e-02	1.896445339e-01	-2.718592037e-02	2.818476848e-13
3.050000000e-02	1.896446288e-01	-2.718592768e-02	1.106115555e-13
3.100000000e-02	1.896447253e-01	-2.718593510e-02	1.739862187e-13
3.150000000e-02	1.896448233e-01	-2.718594261e-02	1.878990606e-13
3.200000000e-02	1.896449229e-01	-2.718595022e-02	7.648173626e-14
3.250000000e-02	1.896450240e-01	-2.718595793e-02	8.511821770e-14
3.300000000e-02	1.896451267e-01	-2.718596573e-02	4.639008957e-14
3.350000000e-02	1.896452310e-01	-2.718597362e-02	1.304537582e-13
3.450000000e-02	1.896454443e-01	-2.718598967e-02	5.724657293e-14
3.500000000e-02	1.896455533e-01	-2.718599783e-02	1.235717636e-13
3.550000000e-02	1.896456639e-01	-2.718600607e-02	6.772438484e-14
3.600000000e-02	1.896457760e-01	-2.718601441e-02	2.228488651e-13
3.650000000e-02	1.896458897e-01	-2.718602283e-02	3.510665124e-13
3.700000000e-02	1.896460050e-01	-2.718603133e-02	1.304088559e-13
3.750000000e-02	1.896461218e-01	-2.718603991e-02	2.046199330e-13
3.850000000e-02	1.896463602e-01	-2.718605732e-02	7.417083262e-14
3.900000000e-02	1.896464818e-01	-2.718606614e-02	3.310391629e-13
3.950000000e-02	1.896466049e-01	-2.718607504e-02	1.672599880e-13
4.000000000e-02	1.896467296e-01	-2.718608401e-02	5.899880094e-14
4.050000000e-02	1.896468558e-01	-2.718609306e-02	1.635981855e-13
4.100000000e-02	1.896469837e-01	-2.718610218e-02	1.032838635e-13
4.150000000e-02	1.896471131e-01	-2.718611137e-02	9.812566491e-14
4.200000000e-02	1.896472440e-01	-2.718612062e-02	1.085894884e-12
4.250000000e-02	1.896473766e-01	-2.718612995e-02	4.695423921e-14
4.300000000e-02	1.896475107e-01	-2.718613934e-02	1.620931706e-13
4.350000000e-02	1.896476463e-01	-2.718614880e-02	3.021173593e-13
4.400000000e-02	1.896477836e-01	-2.718615832e-02	1.201453895e-13
4.450000000e-02	1.896479224e-01	-2.718616790e-02	2.253287162e-13
4.500000000e-02	1.896480628e-01	-2.718617754e-02	1.863216891e-13
4.550000000e-02	1.896482047e-01	-2.718618724e-02	2.338076655e-13
4.600000000e-02	1.896483482e-01	-2.718619700e-02	2.749412031e-13
4.650000000e-02	1.896484933e-01	-2.718620681e-02	2.667165647e-13
4.700000000e-02	1.896486400e-01	-2.718621667e-02	4.231034387e-14
4.750000000e-02	1.896487882e-01	-2.718622659e-02	1.519406082e-13
4.800000000e-02	1.896489380e-01	-2.718623655e-02	3.178628174e-14
4.850000000e-02	1.896490894e-01	-2.718624657e-02	1.677642114e-13
4.900000000e-02	1.896492423e-01	-2.718625663e-02	3.126932737e-13
4.950000000e-02	1.896493968e-01	-2.718626673e-02	1.668299180e-12
5.000000000e-02	1.896495529e-01	-2.718627688e-02	2.874137095e-13
5.050000000e-02	1.896497105e-01	-2.718628706e-02	1.649629360e-13
5.100000000e-02	1.896498697e-01	-2.718629729e-02	1.529814242e-13
5.150000000e-02	1.896500305e-01	-2.718630755e-02	3.496903088e-14
5.200000000e-02	1.896501929e-01	-2.718631785e-02	2.910941148e-14
5.250000000e-02	1.896503568e-01	-2.718632818e-02	4.209220671e-13
5.300000000e-02	1.896505223e-01	-2.718633854e-02	1.319102555e-13
5.350000000e-02	1.896506894e-01	-2.718634894e-02	2.733221214e-13
5.400000000e-02	1.896508580e-01	-2.718635935e-02	6.482725170e-13
5.450000000e-02	1.896510282e-01	-2.718636980e-02	2.240219476e-13
5.500000000e-02	1.896512000e-01	-2.718638027e-02	1.328882533e-13
5.550000000e-02	1.896513733e-01	-2.718639076e-02	8.997147478e-14
5.600000000e-02	1.896515482e-01	-2.718640127e-02	5.752482153e-14
5.650000000e-02	1.896517247e-01	-2.718641180e-02	2.812270066e-13
5.700000000e-02	1.896519028e-01	-2.718642234e-02	5.549819362e-13
5.750000000e-02	1.896520824e-01	-2.718643290e-02	7.901321851e-14
5.800000000e-02	1.896522636e-01	-2.718644346e-02	1.061732738e-13
5.850000000e-02	1.896524464e-01	-2.718645404e-02	9.622664893e-14
5.900000000e-02	1.896526307e-01	-2.718646462e-02	1.285332830e-12
5.950000000e-02	1.896528166e-01	-2.718647521e-02	1.385116077e-13
6.000000000e-02	1.896530041e-01	-2.718648580e-02	1.688156830e-13
6.050000000e-02	1.896531931e-01	-2.718649639e-02	1.986235531e-13
6.100000000e-02	1.896533837e-01	-2.718650698e-02	1.552867773e-13
6.150000000e-02	1.896535759e-01	-2.718651757e-02	8.033669528e-14
6.200000000e-02	1.896537697e-01	-2.718652815e-02	3.726473012e-14
6.250000000e-02	1.896539650e-01	-2.718653872e-02	7.227586521e-14
6.300000000e-02	1.896541619e-01	-2.718654928e-02	9.598748157e-14
6.350000000e-02	1.896543604e-01	-2.718655983e-02	5.469636414e-14
6.400000000e-02	1.896545604e-01	-2.718657036e-02	1.311369244e-13
6.450000000e-02	1.896547621e-01	-2.718658088e-02	1.326510916e-13
6.500000000e-02	1.896549652e-01	-2.718659137e-02	8.498665594e-14
6.550000000e-02	1.896551700e-01	-2.718660185e-02	2.550445164e-13
6.600000000e-02	1.896553763e-01	-2.718661230e-02	2.597156309e-13
6.650000000e-02	1.896555842e-01	-2.718662272e-02	1.653524334e-13
6.700000000e-02	1.896557937e-01	-2.718663311e-02	2.060258390e-13
6.750000000e-02	1.896560047e-01	-2.718664347e-02	3.540411288e-14
6.800000000e-02	1.896562173e-01	-2.718665379e-02	6.663076408e-14
6.850000000e-02	1.896564315e-01	-2.718666408e-02	2.049677245e-13
6.900000000e-02	1.896566473e-01	-2.718667433e-02	3.501950882e-14
6.950000000e-02	1.896568646e-01	-2.718668453e-02	1.007512879e-13
7.000000000e-02	1.896570835e-01	-2.718669470e-02	2.024906045e-13
7.050000000e-02	1.896573040e-01	-2.718670481e-02	1.051586247e-13
7.100000000e-02	1.896575260e-01	-2.718671488e-02	2.748784603e-13
7.150000000e-02	1.896577496e-01	-2.718672489e-02	1.491907286e-13
7.200000000e-02	1.896579748e-01	-2.718673485e-02	1.742424500e-13
7.250000000e-02	1.896582016e-01	-2.718674475e-02	8.296607691e-14
7.300000000e-02	1.896584299e-01	-2.718675459e-02	1.636620461e-13
7.400000000e-02	1.896588913e-01	-2.718677408e-02	1.733876797e-13
7.450000000e-02	1.896591243e-01	-2.718678372e-02	1.995148530e-14
7.500000000e-02	1.896593589e-01	-2.718679329e-02	1.772343143e-13
7.550000000e-02	1.896595951e-01	-2.718680279e-02	2.731416497e-13
7.600000000e-02	1.896598329e-01	-2.718681222e-02	5.386099838e-14
7.650000000e-02	1.896600722e-01	-2.718682156e-02	2.819703470e-13
7.700000000e-02	1.896603131e-01	-2.718683082e-02	2.723194042e-13
7.750000000e-02	1.896605556e-01	-2.718684000e-02	2.078082040e-13
7.800000000e-02	1.896607996e-01	-2.718684909e-02	1.053879962e-13
7.850000000e-02	1.896610453e-01	-2.718685809e-02	3.251368894e-13
7.900000000e-02	1.896612925e-01	-2.718686699e-02	2.004149997e-13
7.950000000e-02	1.896615412e-01	-2.718687580e-02	2.518375410e-13
8.000000000e-02	1.896617916e-01	-2.718688451e-02	7.642017737e-14
8.100000000e-02	1.896622970e-01	-2.718690163e-02	1.791298631e-13
8.150000000e-02	1.896625520e-01	-2.718691002e-02	4.754575554e-14
8.250000000e-02	1.896630668e-01	-2.718692648e-02	1.209530661e-13
8.300000000e-02	1.896633266e-01	-2.718693453e-02	1.404612153e-13
8.350000000e-02	1.896635880e-01	-2.718694246e-02	5.137877495e-13
8.400000000e-02	1.896638509e-01	-2.718695027e-02	1.947671604e-13
8.450000000e-02	1.896641154e-01	-2.718695796e-02	4.490290289e-14
8.500000000e-02	1.896643815e-01	-2.718696551e-02	1.719261999e-13
8.550000000e-02	1.896646491e-01	-2.718697294e-02	7.873402988e-14
8.600000000e-02	1.896649183e-01	-2.718698022e-02	1.130190560e-13
8.650000000e-02	1.896651891e-01	-2.718698737e-02	3.389732666e-13
8.700000000e-02	1.896654615e-01	-2.718699438e-02	1.250517771e-13
8.750000000e-02	1.896657354e-01	-2.718700124e-02	2.331598882e-13
8.800000000e-02	1.896660109e-01	-2.718700796e-02	3.176578307e-13
8.900000000e-02	1.896665667e-01	-2.718702093e-02	2.877783583e-13
8.950000000e-02	1.896668469e-01	-2.718702718e-02	9.856388737e-13
9.000000000e-02	1.896671287e-01	-2.718703327e-02	1.567986362e-13
9.050000000e-02	1.896674121e-01	-2.718703919e-02	1.036981294e-13
9.100000000e-02	1.896676971e-01	-2.718704495e-02	1.895213628e-13
9.150000000e-02	1.896679836e-01	-2.718705054e-02	3.420996866e-13
9.200000000e-02	1.896682717e-01	-2.718705595e-02	3.401571170e-13
9.250000000e-02	1.896685614e-01	-2.718706118e-02	4.245672989e-13
9.300000000e-02	1.896688526e-01	-2.718706623e-02	3.452570454e-13
9.350000000e-02	1.896691455e-01	-2.718707110e-02	2.586236943e-13
9.400000000e-02	1.896694399e-01	-2.718707578e-02	1.726109318e-13
9.450000000e-02	1.896697358e-01	-2.718708027e-02	1.404944506e-12
9.500000000e-02	1.896700334e-01	-2.718708456e-02	2.412685658e-13
9.600000000e-02	1.896706332e-01	-2.718709255e-02	9.997049877e-14
9.650000000e-02	1.896709355e-01	-2.718709624e-02	2.712853648e-13
9.700000000e-02	1.896712394e-01	-2.718709972e-02	3.862046809e-13
9.750000000e-02	1.896715448e-01	-2.718710298e-02	4.477850870e-13
9.800000000e-02	1.896718518e-01	-2.718710603e-02	1.562180887e-13
9.850000000e-02	1.896721604e-01	-2.718710886e-02	5.557329392e-14
9.900000000e-02	1.896724705e-01	-2.718711147e-02	3.599579990e-13
1.000000000e-01	1.896730956e-01	-2.718711600e-02	3.637365383e-13
1.005000000e-01	1.896734104e-01	-2.718711792e-02	3.433675373e-13
1.010000000e-01	1.896737269e-01	-2.718711959e-02	1.840000143e-13
1.015000000e-01	1.896740449e-01	-2.718712103e-02	3.128918368e-13
1.020000000e-01	1.896743646e-01	-2.718712222e-02	2.725730743e-14
1.025000000e-01	1.896746857e-01	-2.718712316e-02	8.676911333e-14
1.030000000e-01	1.896750085e-01	-2.718712385e-02	1.023761856e-13
1.045000000e-01	1.896759863e-01	-2.718712436e-02	8.921305482e-14
1.050000000e-01	1.896763153e-01	-2.718712400e-02	6.604427296e-14
1.055000000e-01	1.896766460e-01	-2.718712337e-02	3.057141883e-13
1.060000000e-01	1.896769782e-01	-2.718712246e-02	1.323288807e-12
1.065000000e-01	1.896773120e-01	-2.718712127e-02	1.029204923e-13
1.070000000e-01	1.896776474e-01	-2.718711980e-02	3.128228830e-13
1.075000000e-01	1.896779843e-01	-2.718711804e-02	8.669307027e-13
1.080000000e-01	1.896783229e-01	-2.718711599e-02	3.840002117e-13
1.085000000e-01	1.896786630e-01	-2.718711364e-02	1.104769303e-13
1.100000000e-01	1.896796928e-01	-2.718710479e-02	1.013788815e-13
1.105000000e-01	1.896800392e-01	-2.718710122e-02	3.948270628e-13
1.115000000e-01	1.896807368e-01	-2.718709313e-02	6.470181831e-13
1.125000000e-01	1.896814407e-01	-2.718708375e-02	4.905867080e-14
1.130000000e-01	1.896817950e-01	-2.718707856e-02	3.669188523e-13
1.135000000e-01	1.896821509e-01	-2.718707303e-02	6.188664787e-13
1.145000000e-01	1.896828674e-01	-2.718706096e-02	6.894625844e-13
1.150000000e-01	1.896832281e-01	-2.718705440e-02	2.821732711e-13
1.155000000e-01	1.896835903e-01	-2.718704749e-02	4.289676765e-13
1.160000000e-01	1.896839541e-01	-2.718704022e-02	1.181307740e-13
1.165000000e-01	1.896843194e-01	-2.718703259e-02	1.766386981e-13
1.170000000e-01	1.896846864e-01	-2.718702460e-02	2.134954160e-13
1.175000000e-01	1.896850549e-01	-2.718701623e-02	2.770656823e-13
1.185000000e-01	1.896857967e-01	-2.718699837e-02	4.955420859e-13
1.190000000e-01	1.896861700e-01	-2.718698887e-02	2.832283394e-13
1.195000000e-01	1.896865448e-01	-2.718697898e-02	1.878057205e-13
1.200000000e-01	1.896869213e-01	-2.718696870e-02	1.461745709e-13
1.210000000e-01	1.896876789e-01	-2.718694694e-02	4.848379043e-14
1.215000000e-01	1.896880601e-01	-2.718693546e-02	3.166923455e-13
1.220000000e-01	1.896884428e-01	-2.718692357e-02	2.936852881e-13
1.230000000e-01	1.896892131e-01	-2.718689853e-02	1.722274252e-13
1.235000000e-01	1.896896006e-01	-2.718688538e-02	5.210266653e-13
1.240000000e-01	1.896899896e-01	-2.718687180e-02	7.923576929e-14
1.245000000e-01	1.896903803e-01	-2.718685779e-02	1.737477668e-13
1.250000000e-01	1.896907725e-01	-2.718684335e-02	5.670212105e-13
1.255000000e-01	1.896911664e-01	-2.718682846e-02	1.741425072e-13
1.260000000e-01	1.896915618e-01	-2.718681312e-02	4.221711116e-13
1.265000000e-01	1.896919588e-01	-2.718679733e-02	7.123933346e-13
1.270000000e-01	1.896923573e-01	-2.718678109e-02	3.657434772e-13
1.285000000e-01	1.896935626e-01	-2.718672959e-02	8.604931262e-14
1.295000000e-01	1.896943740e-01	-2.718669288e-02	3.548193345e-13
1.300000000e-01	1.896947820e-01	-2.718667381e-02	1.903150317e-13
1.310000000e-01	1.896956029e-01	-2.718663419e-02	5.256236236e-13
1.315000000e-01	1.896960158e-01	-2.718661363e-02	7.237241571e-13
1.320000000e-01	1.896964302e-01	-2.718659257e-02	3.087125885e-13
1.325000000e-01	1.896968462e-01	-2.718657101e-02	2.961749133e-13
1.335000000e-01	1.896976829e-01	-2.718652633e-02	1.215932464e-13
1.345000000e-01	1.896985260e-01	-2.718647956e-02	8.990056189e-13
1.350000000e-01	1.896989499e-01	-2.718645538e-02	8.321092874e-13
1.355000000e-01	1.896993754e-01	-2.718643065e-02	3.374061756e-13
1.360000000e-01	1.896998025e-01	-2.718640539e-02	1.160868323e-12
1.370000000e-01	1.897006615e-01	-2.718635322e-02	3.506798107e-13
1.375000000e-01	1.897010933e-01	-2.718632629e-02	7.957459293e-13
1.385000000e-01	1.897019618e-01	-2.718627076e-02	8.116268460e-13
1.400000000e-01	1.897032764e-01	-2.718618313e-02	7.787935886e-13
1.405000000e-01	1.897037178e-01	-2.718615275e-02	5.361184187e-13
1.410000000e-01	1.897041607e-01	-2.718612178e-02	3.831053987e-13
1.415000000e-01	1.897046053e-01	-2.718609021e-02	2.957302342e-12
1.420000000e-01	1.897050514e-01	-2.718605803e-02	2.789092960e-12
1.435000000e-01	1.897063994e-01	-2.718595782e-02	8.602120533e-14
1.440000000e-01	1.897068519e-01	-2.718592317e-02	4.350500545e-14
1.445000000e-01	1.897073060e-01	-2.718588789e-02	1.438648426e-12
1.455000000e-01	1.897082189e-01	-2.718581542e-02	3.268352562e-13
1.460000000e-01	1.897086778e-01	-2.718577821e-02	2.193647257e-13
1.465000000e-01	1.897091382e-01	-2.718574036e-02	1.905614330e-12
1.470000000e-01	1.897096003e-01	-2.718570184e-02	3.372028586e-13
1.490000000e-01	1.897114644e-01	-2.718554108e-02	1.416275470e-12
1.495000000e-01	1.897119344e-01	-2.718549919e-02	2.840053543e-12
1.500000000e-01	1.897124060e-01	-2.718545661e-02	1.123175518e-12
1.505000000e-01	1.897128792e-01	-2.718541333e-02	2.616176764e-12
1.510000000e-01	1.897133539e-01	-2.718536935e-02	2.752379815e-12
1.520000000e-01	1.897143083e-01	-2.718527926e-02	1.376976151e-12
1.530000000e-01	1.897152690e-01	-2.718518628e-02	9.489602904e-13
1.540000000e-01	1.897162361e-01	-2.718509039e-02	7.799061897e-13
1.555000000e-01	1.897176988e-01	-2.718494096e-02	8.966948243e-13
1.560000000e-01	1.897181895e-01	-2.718488964e-02	6.168526240e-12
1.565000000e-01	1.897186819e-01	-2.718483756e-02	4.005043503e-12
1.570000000e-01	1.897191758e-01	-2.718478470e-02	4.632659375e-13
1.575000000e-01	1.897196714e-01	-2.718473106e-02	2.943946216e-13
1.580000000e-01	1.897201685e-01	-2.718467664e-02	1.627554815e-12
1.585000000e-01	1.897206672e-01	-2.718462144e-02	1.159468721e-12
1.590000000e-01	1.897211676e-01	-2.718456543e-02	2.218624517e-12
1.605000000e-01	1.897226782e-01	-2.718439259e-02	2.185788208e-12
1.610000000e-01	1.897231849e-01	-2.718433335e-02	2.651070431e-12
1.615000000e-01	1.897236933e-01	-2.718427328e-02	5.685890622e-12
1.620000000e-01	1.897242032e-01	-2.718421238e-02	2.346043223e-12
1.630000000e-01	1.897252279e-01	-2.718408806e-02	2.129457071e-12
1.635000000e-01	1.897257427e-01	-2.718402462e-02	3.314655694e-12
1.645000000e-01	1.897267770e-01	-2.718389519e-02	2.593886167e-12
1.650000000e-01	1.897272966e-01	-2.718382917e-02	1.208281275e-12
1.655000000e-01	1.897278178e-01	-2.718376228e-02	4.339177230e-12
1.660000000e-01	1.897283406e-01	-2.718369450e-02	3.946318614e-12
1.665000000e-01	1.897288650e-01	-2.718362584e-02	2.702371287e-12
1.670000000e-01	1.897293910e-01	-2.718355628e-02	7.317811260e-12
1.675000000e-01	1.897299187e-01	-2.718348583e-02	4.410032485e-12
1.685000000e-01	1.897309787e-01	-2.718334219e-02	2.957326262e-12
1.695000000e-01	1.897320453e-01	-2.718319488e-02	2.560268208e-11
1.700000000e-01	1.897325810e-01	-2.718311983e-02	8.154466520e-12
1.705000000e-01	1.897331183e-01	-2.718304384e-02	5.043313457e-12
1.710000000e-01	1.897336572e-01	-2.718296691e-02	1.515411664e-11
1.715000000e-01	1.897341977e-01	-2.718288902e-02	1.420655345e-11
1.720000000e-01	1.897347399e-01	-2.718281018e-02	9.445373709e-12
1.730000000e-01	1.897358291e-01	-2.718264959e-02	4.620357130e-12
1.735000000e-01	1.897363761e-01	-2.718256783e-02	3.746115423e-12
1.740000000e-01	1.897369247e-01	-2.718248508e-02	1.004135516e-11
1.745000000e-01	1.897374750e-01	-2.718240135e-02	7.722353796e-12
1.750000000e-01	1.897380269e-01	-2.718231661e-02	1.987447090e-11
