# Re(epsi1)     Omega/c [1/micrones]    Im(epsi1)     Eq(det).Opt det SIN kz, mu = 0.9 eV, R = 0.25 micrones, solve_det_sinkz_vs_re_epsi1.py
1.000000000e+00	8.878149032e-01	-4.287542280e-03	4.818822171e-14
1.010000000e+00	8.856291290e-01	-4.302886784e-03	6.369571190e-14
1.020000000e+00	8.834593527e-01	-4.318236781e-03	7.814619775e-14
1.030000000e+00	8.813053807e-01	-4.333592322e-03	1.270014317e-13
1.040000000e+00	8.791670229e-01	-4.348953455e-03	5.649739127e-14
1.050000000e+00	8.770440925e-01	-4.364320227e-03	5.238022237e-14
1.060000000e+00	8.749364055e-01	-4.379692685e-03	6.406534839e-14
1.070000000e+00	8.728437810e-01	-4.395070877e-03	7.999043761e-14
1.080000000e+00	8.707660414e-01	-4.410454849e-03	2.570137827e-14
1.090000000e+00	8.687030115e-01	-4.425844645e-03	7.737698081e-14
1.100000000e+00	8.666545195e-01	-4.441240312e-03	9.378839924e-14
1.110000000e+00	8.646203959e-01	-4.456641893e-03	4.659683285e-14
1.120000000e+00	8.626004742e-01	-4.472049431e-03	4.516049134e-14
1.130000000e+00	8.605945906e-01	-4.487462971e-03	5.832739657e-14
1.140000000e+00	8.586025838e-01	-4.502882556e-03	9.191366044e-14
1.150000000e+00	8.566242952e-01	-4.518308226e-03	1.038506825e-13
1.160000000e+00	8.546595685e-01	-4.533740025e-03	3.478767245e-14
1.170000000e+00	8.527082502e-01	-4.549177993e-03	4.332594734e-14
1.180000000e+00	8.507701889e-01	-4.564622170e-03	6.633415485e-14
1.190000000e+00	8.488452358e-01	-4.580072597e-03	5.940192664e-14
1.200000000e+00	8.469332443e-01	-4.595529314e-03	7.964326431e-14
1.210000000e+00	8.450340700e-01	-4.610992359e-03	1.015747421e-13
1.220000000e+00	8.431475710e-01	-4.626461772e-03	8.975134174e-14
1.230000000e+00	8.412736072e-01	-4.641937589e-03	1.003326868e-13
1.240000000e+00	8.394120411e-01	-4.657419850e-03	8.671026648e-14
1.250000000e+00	8.375627370e-01	-4.672908591e-03	5.433402055e-14
1.260000000e+00	8.357255612e-01	-4.688403848e-03	6.703172205e-14
1.270000000e+00	8.339003823e-01	-4.703905658e-03	8.575807048e-14
1.280000000e+00	8.320870707e-01	-4.719414058e-03	6.532226811e-14
1.290000000e+00	8.302854987e-01	-4.734929081e-03	6.964067269e-14
1.300000000e+00	8.284955406e-01	-4.750450763e-03	1.083004502e-13
1.310000000e+00	8.267170726e-01	-4.765979138e-03	4.928077486e-14
1.320000000e+00	8.249499727e-01	-4.781514241e-03	1.122408333e-13
1.330000000e+00	8.231941207e-01	-4.797056105e-03	7.591589847e-14
1.340000000e+00	8.214493981e-01	-4.812604762e-03	6.379887126e-14
1.350000000e+00	8.197156882e-01	-4.828160247e-03	9.420561294e-14
1.360000000e+00	8.179928759e-01	-4.843722590e-03	8.514367920e-14
1.370000000e+00	8.162808481e-01	-4.859291824e-03	6.785072858e-14
1.380000000e+00	8.145794929e-01	-4.874867981e-03	1.332948689e-13
1.390000000e+00	8.128887002e-01	-4.890451091e-03	7.350111532e-14
1.400000000e+00	8.112083616e-01	-4.906041185e-03	1.106763281e-13
1.410000000e+00	8.095383700e-01	-4.921638293e-03	6.729377086e-14
1.420000000e+00	8.078786201e-01	-4.937242446e-03	1.187216158e-13
1.430000000e+00	8.062290078e-01	-4.952853672e-03	1.087058682e-13
1.440000000e+00	8.045894307e-01	-4.968472002e-03	1.248277699e-13
1.450000000e+00	8.029597878e-01	-4.984097463e-03	1.052989073e-13
1.460000000e+00	8.013399794e-01	-4.999730084e-03	9.430580938e-14
1.470000000e+00	7.997299073e-01	-5.015369893e-03	1.408096519e-13
1.480000000e+00	7.981294745e-01	-5.031016918e-03	1.070072519e-13
1.490000000e+00	7.965385857e-01	-5.046671186e-03	1.308795943e-13
1.500000000e+00	7.949571464e-01	-5.062332724e-03	9.981341171e-14
1.510000000e+00	7.933850639e-01	-5.078001559e-03	1.371003200e-13
1.520000000e+00	7.918222465e-01	-5.093677717e-03	1.390852499e-13
1.530000000e+00	7.902686037e-01	-5.109361224e-03	8.519686851e-14
1.540000000e+00	7.887240464e-01	-5.125052106e-03	6.936648149e-14
1.550000000e+00	7.871884867e-01	-5.140750387e-03	3.272960261e-14
1.560000000e+00	7.856618376e-01	-5.156456093e-03	1.422865540e-13
1.570000000e+00	7.841440136e-01	-5.172169249e-03	1.201075200e-13
1.580000000e+00	7.826349303e-01	-5.187889879e-03	5.027650361e-14
1.590000000e+00	7.811345042e-01	-5.203618006e-03	2.166270454e-13
1.600000000e+00	7.796426531e-01	-5.219353655e-03	7.423086391e-14
1.610000000e+00	7.781592958e-01	-5.235096849e-03	5.426443071e-14
1.620000000e+00	7.766843524e-01	-5.250847612e-03	1.145018337e-13
1.630000000e+00	7.752177436e-01	-5.266605965e-03	1.389096774e-13
1.640000000e+00	7.737593915e-01	-5.282371931e-03	1.496904217e-13
1.650000000e+00	7.723092192e-01	-5.298145534e-03	1.201183873e-13
1.660000000e+00	7.708671505e-01	-5.313926794e-03	1.030477806e-13
1.670000000e+00	7.694331106e-01	-5.329715733e-03	1.429515941e-13
1.680000000e+00	7.680070253e-01	-5.345512373e-03	1.035244285e-13
1.690000000e+00	7.665888216e-01	-5.361316735e-03	9.686354307e-14
1.700000000e+00	7.651784273e-01	-5.377128839e-03	6.757027475e-14
1.710000000e+00	7.637757711e-01	-5.392948706e-03	1.379310028e-13
1.720000000e+00	7.623807828e-01	-5.408776357e-03	1.397131757e-13
1.730000000e+00	7.609933928e-01	-5.424611812e-03	1.971521856e-13
1.740000000e+00	7.596135326e-01	-5.440455090e-03	8.245349554e-14
1.750000000e+00	7.582411346e-01	-5.456306211e-03	1.335826028e-13
1.760000000e+00	7.568761317e-01	-5.472165194e-03	2.218794533e-13
1.770000000e+00	7.555184581e-01	-5.488032058e-03	1.180079634e-13
1.780000000e+00	7.541680484e-01	-5.503906822e-03	9.713221518e-14
1.790000000e+00	7.528248383e-01	-5.519789505e-03	1.580320100e-13
1.800000000e+00	7.514887642e-01	-5.535680124e-03	8.017479555e-14
1.810000000e+00	7.501597632e-01	-5.551578699e-03	1.162276792e-13
1.820000000e+00	7.488377734e-01	-5.567485246e-03	1.217251203e-13
1.830000000e+00	7.475227333e-01	-5.583399783e-03	1.602277840e-13
1.840000000e+00	7.462145825e-01	-5.599322328e-03	1.973831998e-13
1.850000000e+00	7.449132611e-01	-5.615252898e-03	7.874496982e-14
1.860000000e+00	7.436187101e-01	-5.631191509e-03	8.455163944e-14
1.870000000e+00	7.423308710e-01	-5.647138179e-03	7.980179427e-14
1.880000000e+00	7.410496862e-01	-5.663092924e-03	1.641876290e-13
1.890000000e+00	7.397750987e-01	-5.679055760e-03	9.329046585e-14
1.900000000e+00	7.385070522e-01	-5.695026704e-03	1.203182946e-13
1.910000000e+00	7.372454910e-01	-5.711005770e-03	1.010463687e-13
1.920000000e+00	7.359903602e-01	-5.726992975e-03	1.249005374e-13
1.930000000e+00	7.347416053e-01	-5.742988335e-03	7.678759954e-14
1.940000000e+00	7.334991729e-01	-5.758991864e-03	1.125387387e-13
1.950000000e+00	7.322630096e-01	-5.775003577e-03	2.427781579e-13
1.960000000e+00	7.310330632e-01	-5.791023489e-03	2.046272509e-13
1.970000000e+00	7.298092818e-01	-5.807051616e-03	7.758370168e-14
1.980000000e+00	7.285916141e-01	-5.823087970e-03	1.006524723e-13
1.990000000e+00	7.273800096e-01	-5.839132568e-03	2.604325050e-13
2.000000000e+00	7.261744181e-01	-5.855185422e-03	8.128662918e-14
2.010000000e+00	7.249747902e-01	-5.871246547e-03	2.050048690e-13
2.020000000e+00	7.237810769e-01	-5.887315956e-03	3.224407938e-13
2.030000000e+00	7.225932300e-01	-5.903393663e-03	1.584224069e-13
2.040000000e+00	7.214112016e-01	-5.919479681e-03	8.742835378e-14
2.050000000e+00	7.202349444e-01	-5.935574023e-03	1.241445255e-13
2.060000000e+00	7.190644117e-01	-5.951676703e-03	1.277602170e-13
2.070000000e+00	7.178995574e-01	-5.967787732e-03	9.391031640e-14
2.080000000e+00	7.167403358e-01	-5.983907125e-03	1.480504778e-13
2.090000000e+00	7.155867016e-01	-6.000034893e-03	1.140704859e-13
2.100000000e+00	7.144386102e-01	-6.016171048e-03	1.612186337e-13
2.110000000e+00	7.132960175e-01	-6.032315603e-03	2.001750605e-13
2.120000000e+00	7.121588798e-01	-6.048468570e-03	6.103188537e-14
2.130000000e+00	7.110271539e-01	-6.064629960e-03	2.153894759e-13
2.140000000e+00	7.099007970e-01	-6.080799785e-03	3.318563082e-13
2.150000000e+00	7.087797670e-01	-6.096978058e-03	1.816711641e-13
2.160000000e+00	7.076640220e-01	-6.113164788e-03	6.965732158e-14
2.170000000e+00	7.065535207e-01	-6.129359987e-03	3.232153766e-13
2.180000000e+00	7.054482222e-01	-6.145563667e-03	2.286780308e-13
2.190000000e+00	7.043480862e-01	-6.161775838e-03	5.433189906e-14
2.200000000e+00	7.032530726e-01	-6.177996511e-03	2.372642973e-13
2.210000000e+00	7.021631418e-01	-6.194225696e-03	9.598011688e-14
2.220000000e+00	7.010782548e-01	-6.210463405e-03	1.210740331e-13
2.230000000e+00	6.999983728e-01	-6.226709646e-03	6.541022896e-14
2.240000000e+00	6.989234574e-01	-6.242964432e-03	1.070410210e-13
2.250000000e+00	6.978534709e-01	-6.259227770e-03	2.981093620e-13
2.260000000e+00	6.967883756e-01	-6.275499672e-03	1.970400867e-13
2.270000000e+00	6.957281346e-01	-6.291780148e-03	8.338208354e-14
2.280000000e+00	6.946727111e-01	-6.308069206e-03	1.012793652e-13
2.290000000e+00	6.936220688e-01	-6.324366856e-03	1.483481069e-13
2.300000000e+00	6.925761718e-01	-6.340673108e-03	8.700423814e-14
2.310000000e+00	6.915349845e-01	-6.356987971e-03	1.031308788e-13
2.320000000e+00	6.904984717e-01	-6.373311455e-03	1.573958003e-13
2.330000000e+00	6.894665986e-01	-6.389643567e-03	4.310115177e-13
2.340000000e+00	6.884393307e-01	-6.405984316e-03	7.476851856e-14
2.350000000e+00	6.874166340e-01	-6.422333713e-03	3.710109709e-14
2.360000000e+00	6.863984747e-01	-6.438691764e-03	5.751620318e-14
2.370000000e+00	6.853848194e-01	-6.455058479e-03	5.339249406e-14
2.380000000e+00	6.843756350e-01	-6.471433866e-03	2.461941273e-13
2.390000000e+00	6.833708888e-01	-6.487817934e-03	1.126239897e-13
2.400000000e+00	6.823705485e-01	-6.504210689e-03	3.306543530e-13
2.410000000e+00	6.813745819e-01	-6.520612141e-03	8.528480429e-14
2.420000000e+00	6.803829573e-01	-6.537022298e-03	1.017618919e-13
2.430000000e+00	6.793956434e-01	-6.553441166e-03	1.092563394e-13
2.440000000e+00	6.784126090e-01	-6.569868754e-03	7.654842837e-14
2.450000000e+00	6.774338233e-01	-6.586305069e-03	4.903284151e-13
2.460000000e+00	6.764592559e-01	-6.602750119e-03	2.087673956e-13
2.470000000e+00	6.754888766e-01	-6.619203912e-03	3.728112644e-13
2.480000000e+00	6.745226555e-01	-6.635666453e-03	2.301211477e-13
2.490000000e+00	6.735605631e-01	-6.652137751e-03	1.091553110e-13
2.500000000e+00	6.726025701e-01	-6.668617812e-03	1.774217765e-13
2.510000000e+00	6.716486474e-01	-6.685106643e-03	1.907983436e-13
2.520000000e+00	6.706987665e-01	-6.701604252e-03	8.716661832e-14
2.530000000e+00	6.697528988e-01	-6.718110645e-03	7.915806470e-14
2.540000000e+00	6.688110162e-01	-6.734625828e-03	1.457145727e-13
2.550000000e+00	6.678730909e-01	-6.751149808e-03	6.535117914e-14
2.560000000e+00	6.669390952e-01	-6.767682591e-03	9.610527876e-14
2.570000000e+00	6.660090019e-01	-6.784224184e-03	5.542382595e-14
2.580000000e+00	6.650827839e-01	-6.800774594e-03	8.276033624e-14
2.590000000e+00	6.641604143e-01	-6.817333825e-03	1.255419387e-13
2.600000000e+00	6.632418667e-01	-6.833901884e-03	1.156176984e-13
2.610000000e+00	6.623271147e-01	-6.850478778e-03	9.099807163e-14
2.620000000e+00	6.614161323e-01	-6.867064511e-03	1.441796443e-13
2.630000000e+00	6.605088937e-01	-6.883659090e-03	2.290717025e-13
2.640000000e+00	6.596053734e-01	-6.900262521e-03	2.035152689e-13
2.650000000e+00	6.587055461e-01	-6.916874808e-03	2.882501731e-13
2.660000000e+00	6.578093868e-01	-6.933495958e-03	1.005491343e-13
2.670000000e+00	6.569168705e-01	-6.950125976e-03	6.094664955e-14
2.680000000e+00	6.560279728e-01	-6.966764867e-03	1.373224740e-13
2.690000000e+00	6.551426692e-01	-6.983412636e-03	1.562123273e-13
2.700000000e+00	6.542609357e-01	-7.000069289e-03	1.069554687e-13
2.710000000e+00	6.533827483e-01	-7.016734830e-03	4.298177395e-14
2.720000000e+00	6.525080833e-01	-7.033409266e-03	1.613511609e-13
2.730000000e+00	6.516369174e-01	-7.050092599e-03	1.022738993e-13
2.740000000e+00	6.507692273e-01	-7.066784836e-03	1.472175092e-13
2.750000000e+00	6.499049899e-01	-7.083485982e-03	9.547467780e-14
2.760000000e+00	6.490441824e-01	-7.100196040e-03	1.253925519e-13
2.770000000e+00	6.481867823e-01	-7.116915015e-03	3.519687159e-14
2.780000000e+00	6.473327671e-01	-7.133642913e-03	8.899093748e-14
2.790000000e+00	6.464821147e-01	-7.150379736e-03	2.090506693e-13
2.800000000e+00	6.456348030e-01	-7.167125491e-03	1.557204945e-13
2.810000000e+00	6.447908103e-01	-7.183880180e-03	2.131716749e-13
2.820000000e+00	6.439501151e-01	-7.200643809e-03	1.954401245e-13
2.830000000e+00	6.431126958e-01	-7.217416381e-03	2.017942378e-13
2.840000000e+00	6.422785314e-01	-7.234197900e-03	3.136380045e-14
2.850000000e+00	6.414476007e-01	-7.250988371e-03	1.096471605e-13
2.860000000e+00	6.406198831e-01	-7.267787798e-03	5.844625681e-14
2.870000000e+00	6.397953578e-01	-7.284596183e-03	1.699281141e-13
2.880000000e+00	6.389740044e-01	-7.301413532e-03	1.737184228e-13
2.890000000e+00	6.381558027e-01	-7.318239847e-03	1.064792585e-13
2.900000000e+00	6.373407325e-01	-7.335075133e-03	9.339795323e-14
2.910000000e+00	6.365287741e-01	-7.351919393e-03	1.335658544e-13
2.920000000e+00	6.357199075e-01	-7.368772631e-03	1.683293285e-13
2.930000000e+00	6.349141134e-01	-7.385634849e-03	1.215055317e-13
2.940000000e+00	6.341113723e-01	-7.402506052e-03	1.168890635e-13
2.950000000e+00	6.333116649e-01	-7.419386243e-03	2.260734434e-13
2.960000000e+00	6.325149724e-01	-7.436275424e-03	9.137884154e-14
2.970000000e+00	6.317212757e-01	-7.453173600e-03	2.930249608e-13
2.980000000e+00	6.309305562e-01	-7.470080773e-03	1.435630231e-13
2.990000000e+00	6.301427954e-01	-7.486996947e-03	9.434120152e-14
3.000000000e+00	6.293579747e-01	-7.503922124e-03	7.816384543e-14
3.010000000e+00	6.285760761e-01	-7.520856308e-03	4.498055542e-13
3.020000000e+00	6.277970815e-01	-7.537799501e-03	1.616248541e-13
3.030000000e+00	6.270209729e-01	-7.554751706e-03	1.131904668e-13
3.040000000e+00	6.262477326e-01	-7.571712926e-03	1.347778858e-13
3.050000000e+00	6.254773429e-01	-7.588683164e-03	1.847923536e-13
3.060000000e+00	6.247097865e-01	-7.605662422e-03	7.390955407e-14
3.070000000e+00	6.239450460e-01	-7.622650704e-03	1.154107139e-13
3.080000000e+00	6.231831043e-01	-7.639648010e-03	1.337280224e-13
3.090000000e+00	6.224239443e-01	-7.656654345e-03	8.424127672e-14
3.100000000e+00	6.216675492e-01	-7.673669711e-03	4.305712023e-13
3.110000000e+00	6.209139023e-01	-7.690694109e-03	1.409470107e-13
3.120000000e+00	6.201629869e-01	-7.707727543e-03	8.570835463e-14
3.130000000e+00	6.194147866e-01	-7.724770014e-03	8.848477506e-14
3.140000000e+00	6.186692852e-01	-7.741821525e-03	1.777722236e-13
3.150000000e+00	6.179264664e-01	-7.758882078e-03	8.706442294e-14
3.160000000e+00	6.171863142e-01	-7.775951675e-03	8.210247521e-14
3.170000000e+00	6.164488127e-01	-7.793030318e-03	6.747747490e-14
3.180000000e+00	6.157139462e-01	-7.810118010e-03	5.306866058e-14
3.190000000e+00	6.149816990e-01	-7.827214752e-03	9.017268381e-14
3.200000000e+00	6.142520556e-01	-7.844320546e-03	7.829213737e-14
3.210000000e+00	6.135250006e-01	-7.861435394e-03	1.146266562e-13
3.220000000e+00	6.128005188e-01	-7.878559298e-03	1.219304048e-13
3.230000000e+00	6.120785950e-01	-7.895692260e-03	1.070131902e-13
3.240000000e+00	6.113592142e-01	-7.912834281e-03	1.805237062e-13
3.250000000e+00	6.106423616e-01	-7.929985364e-03	6.039003519e-14
3.260000000e+00	6.099280224e-01	-7.947145509e-03	7.931735470e-14
3.270000000e+00	6.092161819e-01	-7.964314719e-03	1.529318414e-13
3.280000000e+00	6.085068257e-01	-7.981492995e-03	1.349250461e-13
3.290000000e+00	6.077999393e-01	-7.998680338e-03	8.329279450e-14
3.300000000e+00	6.070955085e-01	-8.015876750e-03	1.322503054e-13
3.310000000e+00	6.063935190e-01	-8.033082233e-03	1.130351124e-13
3.320000000e+00	6.056939568e-01	-8.050296788e-03	6.147638827e-14
3.330000000e+00	6.049968081e-01	-8.067520415e-03	8.037186589e-14
3.340000000e+00	6.043020588e-01	-8.084753118e-03	1.594671422e-13
3.350000000e+00	6.036096954e-01	-8.101994896e-03	1.914072148e-13
3.360000000e+00	6.029197042e-01	-8.119245751e-03	1.540139859e-13
3.370000000e+00	6.022320717e-01	-8.136505684e-03	4.468233907e-14
3.380000000e+00	6.015467845e-01	-8.153774696e-03	2.956140596e-13
3.390000000e+00	6.008638293e-01	-8.171052789e-03	2.564520083e-13
3.400000000e+00	6.001831930e-01	-8.188339963e-03	6.566471401e-13
3.410000000e+00	5.995048624e-01	-8.205636220e-03	1.407220275e-13
3.420000000e+00	5.988288246e-01	-8.222941560e-03	2.767500804e-13
3.430000000e+00	5.981550667e-01	-8.240255984e-03	1.930128396e-13
3.440000000e+00	5.974835759e-01	-8.257579494e-03	2.422113361e-13
3.450000000e+00	5.968143396e-01	-8.274912090e-03	2.192690474e-14
3.460000000e+00	5.961473451e-01	-8.292253773e-03	5.233312126e-14
3.470000000e+00	5.954825801e-01	-8.309604544e-03	1.476703467e-13
3.480000000e+00	5.948200320e-01	-8.326964403e-03	1.037512921e-13
3.490000000e+00	5.941596887e-01	-8.344333352e-03	1.065877853e-13
3.500000000e+00	5.935015379e-01	-8.361711390e-03	3.440472109e-13
3.510000000e+00	5.928455676e-01	-8.379098520e-03	1.638660601e-13
3.520000000e+00	5.921917657e-01	-8.396494740e-03	7.652779469e-14
3.530000000e+00	5.915401204e-01	-8.413900052e-03	6.289472228e-14
3.540000000e+00	5.908906197e-01	-8.431314457e-03	5.218012783e-14
3.550000000e+00	5.902432520e-01	-8.448737954e-03	1.256043055e-13
3.560000000e+00	5.895980057e-01	-8.466170544e-03	1.310717966e-13
3.570000000e+00	5.889548692e-01	-8.483612229e-03	8.895124610e-14
3.580000000e+00	5.883138310e-01	-8.501063007e-03	8.014864493e-14
3.590000000e+00	5.876748797e-01	-8.518522881e-03	1.204348041e-13
3.600000000e+00	5.870380041e-01	-8.535991849e-03	7.419532094e-14
3.610000000e+00	5.864031930e-01	-8.553469912e-03	5.301314943e-14
3.620000000e+00	5.857704352e-01	-8.570957070e-03	3.904931411e-13
3.630000000e+00	5.851397197e-01	-8.588453325e-03	7.163289816e-14
3.640000000e+00	5.845110355e-01	-8.605958675e-03	1.393586971e-13
3.650000000e+00	5.838843718e-01	-8.623473122e-03	4.364360140e-13
3.660000000e+00	5.832597178e-01	-8.640996665e-03	1.152557087e-13
3.670000000e+00	5.826370628e-01	-8.658529304e-03	1.008972248e-13
3.680000000e+00	5.820163961e-01	-8.676071040e-03	1.019240367e-13
3.690000000e+00	5.813977072e-01	-8.693621872e-03	4.876821198e-13
3.700000000e+00	5.807809856e-01	-8.711181801e-03	2.000897887e-13
3.710000000e+00	5.801662209e-01	-8.728750827e-03	2.456686748e-14
3.720000000e+00	5.795534029e-01	-8.746328949e-03	1.386897539e-13
3.730000000e+00	5.789425212e-01	-8.763916168e-03	1.424215369e-14
3.740000000e+00	5.783335657e-01	-8.781512483e-03	1.060941693e-13
3.750000000e+00	5.777265262e-01	-8.799117895e-03	3.626272062e-14
3.760000000e+00	5.771213929e-01	-8.816732403e-03	3.442148507e-13
3.770000000e+00	5.765181557e-01	-8.834356007e-03	1.830184472e-13
3.780000000e+00	5.759168047e-01	-8.851988707e-03	1.021067233e-13
3.790000000e+00	5.753173302e-01	-8.869630503e-03	2.888441929e-13
3.800000000e+00	5.747197224e-01	-8.887281394e-03	2.408929161e-13
3.810000000e+00	5.741239717e-01	-8.904941380e-03	2.700065192e-13
3.820000000e+00	5.735300684e-01	-8.922610461e-03	3.060287829e-13
3.830000000e+00	5.729380031e-01	-8.940288637e-03	8.225428404e-14
3.840000000e+00	5.723477662e-01	-8.957975907e-03	9.731890105e-14
3.850000000e+00	5.717593485e-01	-8.975672271e-03	4.257328936e-14
3.860000000e+00	5.711727406e-01	-8.993377729e-03	1.001517785e-13
3.870000000e+00	5.705879332e-01	-9.011092279e-03	1.054924693e-13
3.880000000e+00	5.700049172e-01	-9.028815922e-03	1.258162416e-13
3.890000000e+00	5.694236834e-01	-9.046548657e-03	5.568949961e-14
3.900000000e+00	5.688442227e-01	-9.064290484e-03	3.431685945e-13
3.910000000e+00	5.682665263e-01	-9.082041403e-03	9.445251336e-14
3.920000000e+00	5.676905851e-01	-9.099801411e-03	1.910350600e-13
3.930000000e+00	5.671163903e-01	-9.117570510e-03	2.989301213e-13
3.940000000e+00	5.665439331e-01	-9.135348698e-03	3.097840566e-14
3.950000000e+00	5.659732048e-01	-9.153135976e-03	1.383856371e-13
3.960000000e+00	5.654041966e-01	-9.170932341e-03	8.229441580e-14
3.970000000e+00	5.648369000e-01	-9.188737794e-03	3.983882601e-13
3.980000000e+00	5.642713064e-01	-9.206552334e-03	1.427953990e-13
3.990000000e+00	5.637074073e-01	-9.224375960e-03	2.503164251e-13
4.000000000e+00	5.631451942e-01	-9.242208672e-03	5.198879376e-14
4.010000000e+00	5.625846589e-01	-9.260050468e-03	1.406566258e-13
4.020000000e+00	5.620257928e-01	-9.277901349e-03	8.485766926e-14
4.030000000e+00	5.614685879e-01	-9.295761313e-03	1.015512601e-13
4.040000000e+00	5.609130359e-01	-9.313630359e-03	8.535111638e-14
