# Re(epsi1)     Omega/c [1/micrones]    Im(epsi1)     Eq(det).Opt det SIN kz, mu = 0.9 eV, R = 0.25 micrones, solve_det_sinkz_vs_re_epsi1.py
1.000000000e+00	1.023992527e+00	-4.689796876e-03	3.334781372e-14
1.010000000e+00	1.021477068e+00	-4.705069163e-03	5.465554382e-14
1.020000000e+00	1.018980001e+00	-4.720341504e-03	5.761996341e-14
1.030000000e+00	1.016501103e+00	-4.735613978e-03	7.515836915e-14
1.040000000e+00	1.014040157e+00	-4.750886661e-03	5.260012265e-14
1.050000000e+00	1.011596946e+00	-4.766159630e-03	7.776389267e-14
1.060000000e+00	1.009171261e+00	-4.781432961e-03	5.655573134e-14
1.070000000e+00	1.006762892e+00	-4.796706726e-03	4.094247588e-14
1.080000000e+00	1.004371636e+00	-4.811981000e-03	6.073387739e-14
1.090000000e+00	1.001997291e+00	-4.827255854e-03	4.666451911e-14
1.100000000e+00	9.996396591e-01	-4.842531360e-03	6.206335383e-14
1.110000000e+00	9.972985462e-01	-4.857807588e-03	4.902310422e-14
1.120000000e+00	9.949737605e-01	-4.873084609e-03	8.774671836e-14
1.130000000e+00	9.926651138e-01	-4.888362489e-03	7.894635354e-14
1.140000000e+00	9.903724205e-01	-4.903641298e-03	8.147263354e-14
1.150000000e+00	9.880954984e-01	-4.918921102e-03	8.036542445e-14
1.160000000e+00	9.858341679e-01	-4.934201968e-03	8.343009578e-14
1.170000000e+00	9.835882524e-01	-4.949483959e-03	1.065705389e-13
1.180000000e+00	9.813575778e-01	-4.964767142e-03	1.830519099e-13
1.190000000e+00	9.791419732e-01	-4.980051578e-03	9.870878983e-14
1.200000000e+00	9.769412699e-01	-4.995337332e-03	9.532660021e-14
1.210000000e+00	9.747553021e-01	-5.010624466e-03	4.259300912e-14
1.220000000e+00	9.725839066e-01	-5.025913039e-03	8.456868830e-14
1.230000000e+00	9.704269225e-01	-5.041203114e-03	1.251555321e-13
1.240000000e+00	9.682841915e-01	-5.056494750e-03	5.712746850e-14
1.250000000e+00	9.661555576e-01	-5.071788005e-03	9.333132078e-14
1.260000000e+00	9.640408675e-01	-5.087082938e-03	1.273231302e-13
1.270000000e+00	9.619399698e-01	-5.102379607e-03	6.679269702e-14
1.280000000e+00	9.598527156e-01	-5.117678069e-03	9.880994665e-14
1.290000000e+00	9.577789583e-01	-5.132978379e-03	9.021036710e-14
1.300000000e+00	9.557185533e-01	-5.148280593e-03	9.792527488e-14
1.310000000e+00	9.536713584e-01	-5.163584766e-03	6.637545123e-14
1.320000000e+00	9.516372331e-01	-5.178890952e-03	7.816016942e-14
1.330000000e+00	9.496160395e-01	-5.194199205e-03	9.422764173e-14
1.340000000e+00	9.476076414e-01	-5.209509577e-03	8.320442118e-14
1.350000000e+00	9.456119046e-01	-5.224822120e-03	1.286247668e-13
1.360000000e+00	9.436286969e-01	-5.240136887e-03	1.026322384e-13
1.370000000e+00	9.416578881e-01	-5.255453928e-03	1.187381003e-13
1.380000000e+00	9.396993498e-01	-5.270773294e-03	5.812831695e-14
1.390000000e+00	9.377529555e-01	-5.286095033e-03	5.518070249e-14
1.400000000e+00	9.358185804e-01	-5.301419197e-03	9.416035180e-14
1.410000000e+00	9.338961017e-01	-5.316745832e-03	6.193679087e-14
1.420000000e+00	9.319853981e-01	-5.332074987e-03	7.845204771e-14
1.430000000e+00	9.300863502e-01	-5.347406709e-03	1.327670777e-13
1.440000000e+00	9.281988401e-01	-5.362741046e-03	7.749319060e-14
1.450000000e+00	9.263227519e-01	-5.378078043e-03	1.168111338e-13
1.460000000e+00	9.244579709e-01	-5.393417747e-03	5.714873019e-14
1.470000000e+00	9.226043843e-01	-5.408760202e-03	6.666177569e-14
1.480000000e+00	9.207618807e-01	-5.424105453e-03	1.409364205e-13
1.490000000e+00	9.189303504e-01	-5.439453545e-03	9.646169192e-14
1.500000000e+00	9.171096851e-01	-5.454804521e-03	7.774190073e-14
1.510000000e+00	9.152997779e-01	-5.470158424e-03	8.215697267e-14
1.520000000e+00	9.135005236e-01	-5.485515297e-03	1.580063952e-13
1.530000000e+00	9.117118183e-01	-5.500875182e-03	5.059673193e-14
1.540000000e+00	9.099335594e-01	-5.516238121e-03	1.433272293e-13
1.550000000e+00	9.081656459e-01	-5.531604155e-03	2.165983662e-13
1.560000000e+00	9.064079781e-01	-5.546973324e-03	1.155359975e-13
1.570000000e+00	9.046604575e-01	-5.562345670e-03	1.473444670e-13
1.580000000e+00	9.029229871e-01	-5.577721231e-03	2.025746277e-13
1.590000000e+00	9.011954711e-01	-5.593100047e-03	1.776094617e-13
1.600000000e+00	8.994778149e-01	-5.608482157e-03	1.960635493e-13
1.610000000e+00	8.977699253e-01	-5.623867600e-03	1.132758267e-13
1.620000000e+00	8.960717103e-01	-5.639256412e-03	1.248190678e-13
1.630000000e+00	8.943830790e-01	-5.654648633e-03	1.225760139e-13
1.640000000e+00	8.927039417e-01	-5.670044299e-03	1.844263082e-13
1.650000000e+00	8.910342101e-01	-5.685443446e-03	7.994836493e-14
1.660000000e+00	8.893737967e-01	-5.700846112e-03	1.034870796e-13
1.670000000e+00	8.877226154e-01	-5.716252332e-03	3.190898840e-13
1.680000000e+00	8.860805811e-01	-5.731662141e-03	1.212227053e-13
1.690000000e+00	8.844476098e-01	-5.747075575e-03	1.806991408e-13
1.700000000e+00	8.828236185e-01	-5.762492668e-03	1.441198208e-13
1.710000000e+00	8.812085254e-01	-5.777913454e-03	8.271215554e-14
1.720000000e+00	8.796022496e-01	-5.793337968e-03	7.607630625e-14
1.730000000e+00	8.780047114e-01	-5.808766244e-03	8.010705354e-14
1.740000000e+00	8.764158320e-01	-5.824198313e-03	4.987191153e-14
1.750000000e+00	8.748355335e-01	-5.839634210e-03	2.476777993e-13
1.760000000e+00	8.732637391e-01	-5.855073966e-03	6.919284081e-14
1.770000000e+00	8.717003729e-01	-5.870517613e-03	9.948030520e-14
1.780000000e+00	8.701453601e-01	-5.885965184e-03	2.548141687e-13
1.790000000e+00	8.685986265e-01	-5.901416710e-03	2.765474408e-13
1.800000000e+00	8.670600991e-01	-5.916872222e-03	1.155491815e-13
1.810000000e+00	8.655297057e-01	-5.932331749e-03	4.943684879e-14
1.820000000e+00	8.640073750e-01	-5.947795324e-03	9.719582909e-14
1.830000000e+00	8.624930366e-01	-5.963262975e-03	7.642509212e-14
1.840000000e+00	8.609866208e-01	-5.978734734e-03	1.411736217e-13
1.850000000e+00	8.594880589e-01	-5.994210627e-03	1.608712420e-13
1.860000000e+00	8.579972831e-01	-6.009690686e-03	1.116833734e-13
1.870000000e+00	8.565142262e-01	-6.025174938e-03	1.088281927e-13
1.880000000e+00	8.550388219e-01	-6.040663413e-03	2.996575870e-13
1.890000000e+00	8.535710048e-01	-6.056156138e-03	1.339854783e-13
1.900000000e+00	8.521107102e-01	-6.071653140e-03	7.149706981e-14
1.910000000e+00	8.506578740e-01	-6.087154448e-03	9.903220885e-14
1.920000000e+00	8.492124332e-01	-6.102660089e-03	2.065929363e-13
1.930000000e+00	8.477743252e-01	-6.118170090e-03	4.336639711e-14
1.940000000e+00	8.463434885e-01	-6.133684476e-03	1.494874797e-13
1.950000000e+00	8.449198619e-01	-6.149203275e-03	1.196058187e-13
1.960000000e+00	8.435033852e-01	-6.164726513e-03	7.705768116e-14
1.970000000e+00	8.420939990e-01	-6.180254215e-03	1.162793265e-13
1.980000000e+00	8.406916442e-01	-6.195786407e-03	3.075654246e-13
1.990000000e+00	8.392962626e-01	-6.211323114e-03	2.328698617e-13
2.000000000e+00	8.379077969e-01	-6.226864362e-03	1.410508997e-13
2.010000000e+00	8.365261901e-01	-6.242410173e-03	8.198801599e-14
2.020000000e+00	8.351513860e-01	-6.257960574e-03	9.597728754e-14
2.030000000e+00	8.337833290e-01	-6.273515589e-03	6.402435848e-14
2.040000000e+00	8.324219642e-01	-6.289075240e-03	2.199159364e-13
2.050000000e+00	8.310672373e-01	-6.304639553e-03	9.961232867e-14
2.060000000e+00	8.297190946e-01	-6.320208549e-03	2.291431757e-13
2.070000000e+00	8.283774829e-01	-6.335782253e-03	7.884186099e-14
2.080000000e+00	8.270423499e-01	-6.351360688e-03	9.280191161e-14
2.090000000e+00	8.257136436e-01	-6.366943875e-03	1.003226461e-13
2.100000000e+00	8.243913126e-01	-6.382531838e-03	2.654922412e-13
2.110000000e+00	8.230753063e-01	-6.398124598e-03	1.389321688e-13
2.120000000e+00	8.217655744e-01	-6.413722178e-03	7.922265930e-14
2.130000000e+00	8.204620672e-01	-6.429324599e-03	1.764797914e-13
2.140000000e+00	8.191647357e-01	-6.444931883e-03	1.443761700e-13
2.150000000e+00	8.178735314e-01	-6.460544051e-03	1.505802266e-13
2.160000000e+00	8.165884062e-01	-6.476161124e-03	7.180676396e-14
2.170000000e+00	8.153093126e-01	-6.491783123e-03	9.599202727e-14
2.180000000e+00	8.140362037e-01	-6.507410068e-03	1.430181979e-13
2.190000000e+00	8.127690329e-01	-6.523041980e-03	8.496482206e-14
2.200000000e+00	8.115077544e-01	-6.538678880e-03	1.116751405e-13
2.210000000e+00	8.102523226e-01	-6.554320786e-03	1.286034282e-13
2.220000000e+00	8.090026925e-01	-6.569967719e-03	1.674304665e-13
2.230000000e+00	8.077588198e-01	-6.585619699e-03	1.212908365e-13
2.240000000e+00	8.065206603e-01	-6.601276744e-03	9.227693739e-14
2.250000000e+00	8.052881705e-01	-6.616938874e-03	7.403502594e-14
2.260000000e+00	8.040613073e-01	-6.632606108e-03	2.473776275e-13
2.270000000e+00	8.028400280e-01	-6.648278464e-03	1.003644071e-13
2.280000000e+00	8.016242906e-01	-6.663955962e-03	8.822634832e-14
2.290000000e+00	8.004140532e-01	-6.679638619e-03	1.036862754e-13
2.300000000e+00	7.992092746e-01	-6.695326453e-03	1.923040585e-13
2.310000000e+00	7.980099139e-01	-6.711019484e-03	9.943187718e-14
2.320000000e+00	7.968159306e-01	-6.726717727e-03	1.730753305e-13
2.330000000e+00	7.956272847e-01	-6.742421202e-03	1.047739158e-13
2.340000000e+00	7.944439367e-01	-6.758129925e-03	3.202188076e-13
2.350000000e+00	7.932658473e-01	-6.773843914e-03	9.216536349e-14
2.360000000e+00	7.920929778e-01	-6.789563186e-03	1.226987953e-13
2.370000000e+00	7.909252896e-01	-6.805287758e-03	1.480233758e-13
2.380000000e+00	7.897627450e-01	-6.821017646e-03	1.522163240e-13
2.390000000e+00	7.886053062e-01	-6.836752867e-03	1.245893625e-13
2.400000000e+00	7.874529360e-01	-6.852493438e-03	1.384711175e-13
2.410000000e+00	7.863055975e-01	-6.868239374e-03	1.357916795e-13
2.420000000e+00	7.851632544e-01	-6.883990692e-03	1.085904821e-13
2.430000000e+00	7.840258705e-01	-6.899747407e-03	2.085563999e-13
2.440000000e+00	7.828934100e-01	-6.915509536e-03	1.713741714e-13
2.450000000e+00	7.817658376e-01	-6.931277094e-03	8.263060016e-14
2.460000000e+00	7.806431182e-01	-6.947050096e-03	6.983172650e-14
2.470000000e+00	7.795252171e-01	-6.962828557e-03	1.080152864e-13
2.480000000e+00	7.784121002e-01	-6.978612494e-03	9.444416106e-14
2.490000000e+00	7.773037332e-01	-6.994401919e-03	7.986818199e-14
2.500000000e+00	7.762000826e-01	-7.010196850e-03	9.131515199e-14
2.510000000e+00	7.751011151e-01	-7.025997299e-03	2.966358234e-14
2.520000000e+00	7.740067977e-01	-7.041803281e-03	8.556996698e-14
2.530000000e+00	7.729170977e-01	-7.057614812e-03	1.946973210e-13
2.540000000e+00	7.718319827e-01	-7.073431905e-03	2.414327005e-13
2.550000000e+00	7.707514208e-01	-7.089254573e-03	1.088698080e-13
2.560000000e+00	7.696753801e-01	-7.105082832e-03	6.294937626e-14
2.570000000e+00	7.686038294e-01	-7.120916694e-03	1.021897575e-13
2.580000000e+00	7.675367374e-01	-7.136756174e-03	1.094569691e-13
2.590000000e+00	7.664740734e-01	-7.152601285e-03	8.961363744e-14
2.600000000e+00	7.654158069e-01	-7.168452040e-03	2.310151899e-13
2.610000000e+00	7.643619076e-01	-7.184308452e-03	3.111218929e-13
2.620000000e+00	7.633123457e-01	-7.200170535e-03	1.456556863e-13
2.630000000e+00	7.622670914e-01	-7.216038302e-03	2.367297760e-13
2.640000000e+00	7.612261155e-01	-7.231911764e-03	1.396149597e-13
2.650000000e+00	7.601893887e-01	-7.247790936e-03	4.037612695e-13
2.660000000e+00	7.591568825e-01	-7.263675829e-03	5.712054304e-14
2.670000000e+00	7.581285681e-01	-7.279566457e-03	1.177913144e-13
2.680000000e+00	7.571044174e-01	-7.295462830e-03	1.214080529e-13
2.690000000e+00	7.560844023e-01	-7.311364963e-03	1.457661950e-13
2.700000000e+00	7.550684951e-01	-7.327272865e-03	3.080481391e-13
2.710000000e+00	7.540566684e-01	-7.343186550e-03	8.786242169e-14
2.720000000e+00	7.530488949e-01	-7.359106030e-03	3.389137633e-13
2.730000000e+00	7.520451476e-01	-7.375031315e-03	4.305775861e-13
2.740000000e+00	7.510453999e-01	-7.390962418e-03	2.085374866e-13
2.750000000e+00	7.500496252e-01	-7.406899350e-03	1.469130069e-13
2.760000000e+00	7.490577974e-01	-7.422842123e-03	1.886079080e-13
2.770000000e+00	7.480698905e-01	-7.438790747e-03	1.225099918e-13
2.780000000e+00	7.470858787e-01	-7.454745234e-03	1.291235199e-13
2.790000000e+00	7.461057365e-01	-7.470705594e-03	1.889528159e-13
2.800000000e+00	7.451294387e-01	-7.486671840e-03	1.294805783e-13
2.810000000e+00	7.441569601e-01	-7.502643980e-03	8.402679523e-14
2.820000000e+00	7.431882761e-01	-7.518622027e-03	5.818087719e-14
2.830000000e+00	7.422233619e-01	-7.534605991e-03	1.151442588e-13
2.840000000e+00	7.412621932e-01	-7.550595881e-03	1.754911101e-13
2.850000000e+00	7.403047459e-01	-7.566591710e-03	1.338818608e-13
2.860000000e+00	7.393509961e-01	-7.582593486e-03	1.961170556e-13
2.870000000e+00	7.384009200e-01	-7.598601219e-03	1.674516673e-13
2.880000000e+00	7.374544941e-01	-7.614614921e-03	1.439904478e-13
2.890000000e+00	7.365116951e-01	-7.630634601e-03	7.099908794e-14
2.900000000e+00	7.355725000e-01	-7.646660268e-03	1.236507498e-13
2.910000000e+00	7.346368858e-01	-7.662691933e-03	1.380569362e-13
2.920000000e+00	7.337048299e-01	-7.678729605e-03	1.252569735e-13
2.930000000e+00	7.327763098e-01	-7.694773294e-03	1.402341771e-13
2.940000000e+00	7.318513032e-01	-7.710823009e-03	2.369836582e-13
2.950000000e+00	7.309297880e-01	-7.726878759e-03	2.622485206e-13
2.960000000e+00	7.300117424e-01	-7.742940554e-03	9.972289017e-14
2.970000000e+00	7.290971446e-01	-7.759008403e-03	1.420513874e-13
2.980000000e+00	7.281859731e-01	-7.775082315e-03	1.348970888e-13
2.990000000e+00	7.272782066e-01	-7.791162299e-03	1.413099895e-13
3.000000000e+00	7.263738240e-01	-7.807248364e-03	3.001267773e-13
3.010000000e+00	7.254728043e-01	-7.823340519e-03	3.244514673e-13
3.020000000e+00	7.245751267e-01	-7.839438772e-03	7.750074427e-14
3.030000000e+00	7.236807707e-01	-7.855543132e-03	2.635320797e-13
3.040000000e+00	7.227897158e-01	-7.871653607e-03	3.218344867e-14
3.050000000e+00	7.219019418e-01	-7.887770207e-03	2.836072051e-13
3.060000000e+00	7.210174285e-01	-7.903892939e-03	7.845821298e-14
3.070000000e+00	7.201361562e-01	-7.920021812e-03	1.745253998e-13
3.080000000e+00	7.192581051e-01	-7.936156833e-03	9.974958463e-14
3.090000000e+00	7.183832556e-01	-7.952298011e-03	1.286012597e-13
3.100000000e+00	7.175115883e-01	-7.968445355e-03	8.667153918e-14
3.110000000e+00	7.166430840e-01	-7.984598871e-03	1.124897698e-13
3.120000000e+00	7.157777237e-01	-8.000758568e-03	7.575146968e-14
3.130000000e+00	7.149154883e-01	-8.016924454e-03	7.185613520e-14
3.140000000e+00	7.140563592e-01	-8.033096536e-03	1.029453963e-13
3.150000000e+00	7.132003178e-01	-8.049274822e-03	1.621967066e-13
3.160000000e+00	7.123473457e-01	-8.065459319e-03	1.375236537e-13
3.170000000e+00	7.114974245e-01	-8.081650036e-03	3.488995575e-13
3.180000000e+00	7.106505361e-01	-8.097846979e-03	3.161294511e-13
3.190000000e+00	7.098066625e-01	-8.114050155e-03	2.267058018e-13
3.200000000e+00	7.089657860e-01	-8.130259573e-03	1.331031007e-13
3.210000000e+00	7.081278887e-01	-8.146475238e-03	7.124561615e-14
3.220000000e+00	7.072929533e-01	-8.162697159e-03	2.735088670e-13
3.230000000e+00	7.064609622e-01	-8.178925342e-03	7.804867863e-14
3.240000000e+00	7.056318983e-01	-8.195159794e-03	2.868872150e-13
3.250000000e+00	7.048057444e-01	-8.211400522e-03	2.099261177e-13
3.260000000e+00	7.039824835e-01	-8.227647533e-03	3.580232227e-13
3.270000000e+00	7.031620988e-01	-8.243900834e-03	1.013983774e-13
3.280000000e+00	7.023445737e-01	-8.260160431e-03	2.196159215e-13
3.290000000e+00	7.015298915e-01	-8.276426331e-03	3.883690426e-13
3.300000000e+00	7.007180358e-01	-8.292698540e-03	6.124085204e-14
3.310000000e+00	6.999089904e-01	-8.308977065e-03	1.579997155e-13
3.320000000e+00	6.991027390e-01	-8.325261913e-03	8.775566860e-14
3.330000000e+00	6.982992657e-01	-8.341553089e-03	1.851255530e-13
3.340000000e+00	6.974985545e-01	-8.357850600e-03	6.242752378e-13
3.350000000e+00	6.967005896e-01	-8.374154452e-03	7.113229330e-14
3.360000000e+00	6.959053554e-01	-8.390464652e-03	9.804721417e-14
3.370000000e+00	6.951128364e-01	-8.406781204e-03	1.512842951e-13
3.380000000e+00	6.943230171e-01	-8.423104116e-03	2.919144553e-13
3.390000000e+00	6.935358824e-01	-8.439433394e-03	1.858916535e-13
3.400000000e+00	6.927514169e-01	-8.455769042e-03	3.708144902e-14
3.410000000e+00	6.919696057e-01	-8.472111068e-03	2.363106513e-13
3.420000000e+00	6.911904338e-01	-8.488459476e-03	7.401724600e-14
3.430000000e+00	6.904138864e-01	-8.504814273e-03	3.001597130e-13
3.440000000e+00	6.896399489e-01	-8.521175464e-03	4.477499039e-13
3.450000000e+00	6.888686067e-01	-8.537543054e-03	1.052615559e-13
3.460000000e+00	6.880998453e-01	-8.553917050e-03	6.652119879e-13
3.470000000e+00	6.873336503e-01	-8.570297457e-03	6.876099507e-13
3.480000000e+00	6.865700075e-01	-8.586684279e-03	9.922096153e-14
3.490000000e+00	6.858089028e-01	-8.603077523e-03	1.131317262e-13
3.500000000e+00	6.850503222e-01	-8.619477194e-03	2.109728744e-13
3.510000000e+00	6.842942517e-01	-8.635883297e-03	4.122756061e-14
3.520000000e+00	6.835406776e-01	-8.652295837e-03	1.940208681e-13
3.530000000e+00	6.827895861e-01	-8.668714819e-03	2.196678029e-13
3.540000000e+00	6.820409636e-01	-8.685140249e-03	1.301342414e-13
3.550000000e+00	6.812947968e-01	-8.701572131e-03	8.341590193e-13
3.560000000e+00	6.805510721e-01	-8.718010470e-03	4.868062616e-13
3.570000000e+00	6.798097763e-01	-8.734455272e-03	3.175670264e-13
3.580000000e+00	6.790708962e-01	-8.750906541e-03	1.018302102e-13
3.590000000e+00	6.783344187e-01	-8.767364281e-03	1.282618995e-13
3.600000000e+00	6.776003308e-01	-8.783828499e-03	1.483419167e-13
3.610000000e+00	6.768686198e-01	-8.800299198e-03	1.576685565e-13
3.620000000e+00	6.761392726e-01	-8.816776382e-03	2.152601914e-13
3.630000000e+00	6.754122768e-01	-8.833260058e-03	1.342259637e-13
3.640000000e+00	6.746876196e-01	-8.849750229e-03	3.121591988e-13
3.650000000e+00	6.739652885e-01	-8.866246899e-03	2.352918578e-13
3.660000000e+00	6.732452712e-01	-8.882750074e-03	9.970624886e-14
3.670000000e+00	6.725275554e-01	-8.899259757e-03	2.847045672e-14
3.680000000e+00	6.718121287e-01	-8.915775953e-03	1.317090006e-13
3.690000000e+00	6.710989791e-01	-8.932298667e-03	1.330417824e-13
3.700000000e+00	6.703880946e-01	-8.948827901e-03	3.455362942e-14
3.710000000e+00	6.696794631e-01	-8.965363662e-03	1.993828261e-13
3.720000000e+00	6.689730728e-01	-8.981905953e-03	3.685940442e-14
3.730000000e+00	6.682689119e-01	-8.998454777e-03	2.513796971e-13
3.740000000e+00	6.675669687e-01	-9.015010140e-03	2.106851428e-13
3.750000000e+00	6.668672316e-01	-9.031572044e-03	5.699684326e-14
3.760000000e+00	6.661696891e-01	-9.048140495e-03	1.742129552e-13
3.770000000e+00	6.654743297e-01	-9.064715496e-03	6.494681335e-14
3.780000000e+00	6.647811421e-01	-9.081297051e-03	2.708655006e-13
3.790000000e+00	6.640901151e-01	-9.097885163e-03	1.798561300e-14
3.800000000e+00	6.634012373e-01	-9.114479837e-03	6.441905865e-14
3.810000000e+00	6.627144977e-01	-9.131081077e-03	1.990092346e-13
3.820000000e+00	6.620298853e-01	-9.147688886e-03	4.250674402e-13
3.830000000e+00	6.613473891e-01	-9.164303267e-03	2.562037790e-13
3.840000000e+00	6.606669982e-01	-9.180924225e-03	6.823528616e-14
3.850000000e+00	6.599887019e-01	-9.197551763e-03	1.242339565e-13
3.860000000e+00	6.593124894e-01	-9.214185884e-03	2.099039221e-13
3.870000000e+00	6.586383501e-01	-9.230826593e-03	7.452428597e-13
3.880000000e+00	6.579662734e-01	-9.247473892e-03	1.639363378e-13
3.890000000e+00	6.572962488e-01	-9.264127785e-03	1.571354306e-13
3.900000000e+00	6.566282659e-01	-9.280788275e-03	1.831727021e-13
3.910000000e+00	6.559623144e-01	-9.297455367e-03	5.972999872e-14
3.920000000e+00	6.552983840e-01	-9.314129062e-03	1.423654443e-13
3.930000000e+00	6.546364645e-01	-9.330809365e-03	1.423110186e-13
3.940000000e+00	6.539765457e-01	-9.347496278e-03	1.083761935e-13
3.950000000e+00	6.533186177e-01	-9.364189805e-03	1.145715735e-13
3.960000000e+00	6.526626704e-01	-9.380889949e-03	2.885747077e-14
3.970000000e+00	6.520086939e-01	-9.397596713e-03	1.489522147e-13
3.980000000e+00	6.513566784e-01	-9.414310100e-03	2.367442243e-13
3.990000000e+00	6.507066141e-01	-9.431030114e-03	6.137796475e-14
4.000000000e+00	6.500584912e-01	-9.447756757e-03	1.324951526e-13
4.010000000e+00	6.494123003e-01	-9.464490032e-03	5.404083988e-14
4.020000000e+00	6.487680316e-01	-9.481229942e-03	1.472669726e-13
4.030000000e+00	6.481256756e-01	-9.497976490e-03	3.753450435e-13
4.040000000e+00	6.474852231e-01	-9.514729679e-03	1.567584588e-13
