# kz [1/micrones]     Omega [THz]    log10(|det|)     , $\mu_c$ = 0.5000 eV, modo = 1, R = 0.10$\mu$m, $\eta$ = 0.90, plot_det_conkz.py
3.00000000000e-01	6.24564763656e+01	1.38592402569e+00
3.10000000000e-01	6.24577270173e+01	1.27921177129e+00
3.20000000000e-01	6.24589959477e+01	1.18123711630e+00
3.30000000000e-01	6.24602881534e+01	1.09054483349e+00
3.40000000000e-01	6.24616072433e+01	1.00602246421e+00
3.50000000000e-01	6.24629558209e+01	9.26800016308e-01
3.60000000000e-01	6.24643359173e+01	8.52183896908e-01
3.70000000000e-01	6.24657490626e+01	7.81611946551e-01
3.80000000000e-01	6.24671964800e+01	7.14621968174e-01
3.90000000000e-01	6.24686791509e+01	6.50829163022e-01
4.00000000000e-01	6.24701978772e+01	5.89909608341e-01
4.10000000000e-01	6.24717532995e+01	5.31587932620e-01
4.20000000000e-01	6.24733460257e+01	4.75627969362e-01
4.30000000000e-01	6.24749764604e+01	4.21825564491e-01
4.40000000000e-01	6.24766450948e+01	3.70002967375e-01
4.50000000000e-01	6.24783521890e+01	3.20004404128e-01
4.60000000000e-01	6.24800980820e+01	2.71692545760e-01
4.70000000000e-01	6.24818831155e+01	2.24945662160e-01
4.80000000000e-01	6.24837074201e+01	1.79655307747e-01
4.90000000000e-01	6.24855712384e+01	1.35724423648e-01
5.00000000000e-01	6.24874748151e+01	9.30657693309e-02
5.10000000000e-01	6.24894182824e+01	5.16006172034e-02
5.20000000000e-01	6.24914018035e+01	1.12576588171e-02
5.30000000000e-01	6.24934255276e+01	-2.80279173144e-02
5.40000000000e-01	6.24954895899e+01	-6.63152077230e-02
5.50000000000e-01	6.24975941048e+01	-1.03658260727e-01
5.60000000000e-01	6.24997391869e+01	-1.40106647790e-01
5.70000000000e-01	6.25019249222e+01	-1.75705955479e-01
5.80000000000e-01	6.25041514804e+01	-2.10498210973e-01
5.90000000000e-01	6.25064188254e+01	-2.44522251653e-01
6.00000000000e-01	6.25087271363e+01	-2.77814047407e-01
6.10000000000e-01	6.25110764810e+01	-3.10406982779e-01
6.20000000000e-01	6.25134669868e+01	-3.42332104834e-01
6.30000000000e-01	6.25158985654e+01	-3.73618341663e-01
6.40000000000e-01	6.25183714832e+01	-4.04292695624e-01
6.50000000000e-01	6.25208856064e+01	-4.34380414768e-01
6.60000000000e-01	6.25234411478e+01	-4.63905145352e-01
6.70000000000e-01	6.25260380317e+01	-4.92889067923e-01
6.80000000000e-01	6.25286764323e+01	-5.21353019044e-01
6.90000000000e-01	6.25313564303e+01	-5.49316600475e-01
7.00000000000e-01	6.25340778761e+01	-5.76798277328e-01
7.10000000000e-01	6.25368410065e+01	-6.03815466523e-01
7.20000000000e-01	6.25396457418e+01	-6.30384616675e-01
7.30000000000e-01	6.25424922012e+01	-6.56521280409e-01
7.40000000000e-01	6.25453804020e+01	-6.82240179937e-01
7.50000000000e-01	6.25483103972e+01	-7.07555266663e-01
7.60000000000e-01	6.25512821855e+01	-7.32479775448e-01
7.70000000000e-01	6.25542958549e+01	-7.57026274111e-01
7.80000000000e-01	6.25573513155e+01	-7.81206708657e-01
7.90000000000e-01	6.25604487553e+01	-8.05032444686e-01
8.00000000000e-01	6.25635880465e+01	-8.28514305347e-01
8.10000000000e-01	6.25667694299e+01	-8.51662606194e-01
8.20000000000e-01	6.25699927895e+01	-8.74487187245e-01
8.30000000000e-01	6.25732580735e+01	-8.96997442506e-01
8.40000000000e-01	6.25765654634e+01	-9.19202347198e-01
8.50000000000e-01	6.25799149407e+01	-9.41110482915e-01
8.60000000000e-01	6.25833064687e+01	-9.62730060875e-01
8.70000000000e-01	6.25867401397e+01	-9.84068943473e-01
8.80000000000e-01	6.25902159379e+01	-1.00513466423e+00
8.90000000000e-01	6.25937338758e+01	-1.02593444636e+00
9.00000000000e-01	6.25972939880e+01	-1.04647521995e+00
9.10000000000e-01	6.26008962950e+01	-1.06676363806e+00
9.20000000000e-01	6.26045407968e+01	-1.08680609159e+00
9.30000000000e-01	6.26082275136e+01	-1.10660872323e+00
9.40000000000e-01	6.26119564645e+01	-1.12617744046e+00
9.50000000000e-01	6.26157276653e+01	-1.14551792766e+00
9.60000000000e-01	6.26195411201e+01	-1.16463565751e+00
9.70000000000e-01	6.26233968451e+01	-1.18353590159e+00
9.80000000000e-01	6.26272948561e+01	-1.20222374034e+00
9.90000000000e-01	6.26312351476e+01	-1.22070407242e+00
1.00000000000e+00	6.26352177428e+01	-1.23898162344e+00
1.01000000000e+00	6.26392426521e+01	-1.25706095426e+00
1.02000000000e+00	6.26433098703e+01	-1.27494646866e+00
1.03000000000e+00	6.26474194183e+01	-1.29264242069e+00
1.04000000000e+00	6.26515712966e+01	-1.31015292150e+00
1.05000000000e+00	6.26557655104e+01	-1.32748194581e+00
1.06000000000e+00	6.26600020699e+01	-1.34463333803e+00
1.07000000000e+00	6.26642809681e+01	-1.36161081799e+00
1.08000000000e+00	6.26686022242e+01	-1.37841798640e+00
1.09000000000e+00	6.26729658339e+01	-1.39505832997e+00
1.10000000000e+00	6.26773717903e+01	-1.41153522630e+00
1.11000000000e+00	6.26818201153e+01	-1.42785194845e+00
1.12000000000e+00	6.26863107950e+01	-1.44401166932e+00
1.13000000000e+00	6.26908438386e+01	-1.46001746577e+00
1.14000000000e+00	6.26954192417e+01	-1.47587232253e+00
1.15000000000e+00	6.27000369996e+01	-1.49157913591e+00
1.16000000000e+00	6.27046971310e+01	-1.50714071737e+00
1.17000000000e+00	6.27093996103e+01	-1.52255979679e+00
1.18000000000e+00	6.27141444470e+01	-1.53783902573e+00
1.19000000000e+00	6.27189316417e+01	-1.55298098043e+00
1.20000000000e+00	6.27237611795e+01	-1.56798816466e+00
1.21000000000e+00	6.27286330785e+01	-1.58286301251e+00
1.22000000000e+00	6.27335473121e+01	-1.59760789097e+00
1.23000000000e+00	6.27385038841e+01	-1.61222510244e+00
1.24000000000e+00	6.27435027859e+01	-1.62671688708e+00
1.25000000000e+00	6.27485440303e+01	-1.64108542509e+00
1.26000000000e+00	6.27536275863e+01	-1.65533283886e+00
1.27000000000e+00	6.27587534514e+01	-1.66946119505e+00
1.28000000000e+00	6.27639216347e+01	-1.68347250652e+00
1.29000000000e+00	6.27691321227e+01	-1.69736873426e+00
1.30000000000e+00	6.27743848996e+01	-1.71115178915e+00
1.31000000000e+00	6.27796799560e+01	-1.72482353372e+00
1.32000000000e+00	6.27850172926e+01	-1.73838578375e+00
1.33000000000e+00	6.27903968993e+01	-1.75184030989e+00
1.34000000000e+00	6.27958187572e+01	-1.76518883914e+00
1.35000000000e+00	6.28012828626e+01	-1.77843305630e+00
1.36000000000e+00	6.28067892099e+01	-1.79157460537e+00
1.37000000000e+00	6.28123377779e+01	-1.80461509088e+00
1.38000000000e+00	6.28179285627e+01	-1.81755607913e+00
1.39000000000e+00	6.28235615427e+01	-1.83039909946e+00
1.40000000000e+00	6.28292367227e+01	-1.84314564539e+00
1.41000000000e+00	6.28349540688e+01	-1.85579717575e+00
1.42000000000e+00	6.28407135839e+01	-1.86835511580e+00
1.43000000000e+00	6.28465152512e+01	-1.88082085820e+00
1.44000000000e+00	6.28523590486e+01	-1.89319576407e+00
1.45000000000e+00	6.28582449772e+01	-1.90548116392e+00
1.46000000000e+00	6.28641730041e+01	-1.91767835860e+00
1.47000000000e+00	6.28701431269e+01	-1.92978862016e+00
1.48000000000e+00	6.28761553274e+01	-1.94181319272e+00
1.49000000000e+00	6.28822095867e+01	-1.95375329328e+00
1.50000000000e+00	6.28883058928e+01	-1.96561011255e+00
1.51000000000e+00	6.28944442196e+01	-1.97738481566e+00
1.52000000000e+00	6.29006245662e+01	-1.98907854296e+00
1.53000000000e+00	6.29068469015e+01	-2.00069241065e+00
1.54000000000e+00	6.29131112145e+01	-2.01222751156e+00
1.55000000000e+00	6.29194174794e+01	-2.02368491571e+00
1.56000000000e+00	6.29257656941e+01	-2.03506567102e+00
1.57000000000e+00	6.29321558301e+01	-2.04637080390e+00
1.58000000000e+00	6.29385878588e+01	-2.05760131983e+00
1.59000000000e+00	6.29450617741e+01	-2.06875820396e+00
1.60000000000e+00	6.29515775499e+01	-2.07984242161e+00
1.61000000000e+00	6.29581351638e+01	-2.09085491889e+00
1.62000000000e+00	6.29647346119e+01	-2.10179662313e+00
1.63000000000e+00	6.29713758513e+01	-2.11266844343e+00
1.64000000000e+00	6.29780588733e+01	-2.12347127110e+00
1.65000000000e+00	6.29847836496e+01	-2.13420598018e+00
1.66000000000e+00	6.29915501703e+01	-2.14487342785e+00
1.67000000000e+00	6.29983583959e+01	-2.15547445488e+00
1.68000000000e+00	6.30052083204e+01	-2.16600988603e+00
1.69000000000e+00	6.30120999082e+01	-2.17648053051e+00
1.70000000000e+00	6.30190331494e+01	-2.18688718231e+00
1.71000000000e+00	6.30260080045e+01	-2.19723062063e+00
1.72000000000e+00	6.30330244624e+01	-2.20751161023e+00
1.73000000000e+00	6.30400824920e+01	-2.21773090179e+00
1.74000000000e+00	6.30471820717e+01	-2.22788923227e+00
1.75000000000e+00	6.30543231831e+01	-2.23798732521e+00
1.76000000000e+00	6.30615057873e+01	-2.24802589112e+00
1.77000000000e+00	6.30687298645e+01	-2.25800562774e+00
1.78000000000e+00	6.30759954019e+01	-2.26792722035e+00
1.79000000000e+00	6.30833023571e+01	-2.27779134212e+00
1.80000000000e+00	6.30906507115e+01	-2.28759865433e+00
1.81000000000e+00	6.30980404329e+01	-2.29734980669e+00
1.82000000000e+00	6.31054714963e+01	-2.30704543763e+00
1.83000000000e+00	6.31129438817e+01	-2.31668617450e+00
1.84000000000e+00	6.31204575650e+01	-2.32627263388e+00
1.85000000000e+00	6.31280124998e+01	-2.33580542182e+00
1.86000000000e+00	6.31356086713e+01	-2.34528513406e+00
1.87000000000e+00	6.31432460507e+01	-2.35471235629e+00
1.88000000000e+00	6.31509246100e+01	-2.36408766435e+00
1.89000000000e+00	6.31586443113e+01	-2.37341162448e+00
1.90000000000e+00	6.31664051392e+01	-2.38268479352e+00
1.91000000000e+00	6.31742070541e+01	-2.39190771912e+00
1.92000000000e+00	6.31820500291e+01	-2.40108093994e+00
1.93000000000e+00	6.31899340321e+01	-2.41020498586e+00
1.94000000000e+00	6.31978590488e+01	-2.41928037815e+00
1.95000000000e+00	6.32058250208e+01	-2.42830762969e+00
1.96000000000e+00	6.32138319398e+01	-2.43728724512e+00
1.97000000000e+00	6.32218797680e+01	-2.44621972103e+00
1.98000000000e+00	6.32299684752e+01	-2.45510554613e+00
1.99000000000e+00	6.32380980270e+01	-2.46394520144e+00
2.00000000000e+00	6.32462683911e+01	-2.47273916039e+00
2.01000000000e+00	6.32544795429e+01	-2.48148788905e+00
2.02000000000e+00	6.32627314508e+01	-2.49019184626e+00
2.03000000000e+00	6.32710240679e+01	-2.49885148376e+00
2.04000000000e+00	6.32793573687e+01	-2.50746724636e+00
2.05000000000e+00	6.32877313297e+01	-2.51603957207e+00
2.06000000000e+00	6.32961459095e+01	-2.52456889224e+00
2.07000000000e+00	6.33046010718e+01	-2.53305563171e+00
2.08000000000e+00	6.33130967877e+01	-2.54150020893e+00
2.09000000000e+00	6.33216330208e+01	-2.54990303608e+00
2.10000000000e+00	6.33302097374e+01	-2.55826451921e+00
2.11000000000e+00	6.33388269052e+01	-2.56658505837e+00
2.12000000000e+00	6.33474844885e+01	-2.57486504770e+00
2.13000000000e+00	6.33561824549e+01	-2.58310487558e+00
2.14000000000e+00	6.33649207603e+01	-2.59130492470e+00
2.15000000000e+00	6.33736993722e+01	-2.59946557223e+00
2.16000000000e+00	6.33825182726e+01	-2.60758718987e+00
2.17000000000e+00	6.33913774006e+01	-2.61567014399e+00
2.18000000000e+00	6.34002767373e+01	-2.62371479573e+00
2.19000000000e+00	6.34092162363e+01	-2.63172150108e+00
2.20000000000e+00	6.34181958631e+01	-2.63969061101e+00
2.21000000000e+00	6.34272155851e+01	-2.64762247152e+00
2.22000000000e+00	6.34362753642e+01	-2.65551742378e+00
2.23000000000e+00	6.34453751523e+01	-2.66337580421e+00
2.24000000000e+00	6.34545149300e+01	-2.67119794453e+00
2.25000000000e+00	6.34636946477e+01	-2.67898417189e+00
2.26000000000e+00	6.34729142772e+01	-2.68673480897e+00
2.27000000000e+00	6.34821737720e+01	-2.69445017398e+00
2.28000000000e+00	6.34914730945e+01	-2.70213058085e+00
2.29000000000e+00	6.35008122040e+01	-2.70977633922e+00
2.30000000000e+00	6.35101910763e+01	-2.71738775456e+00
2.31000000000e+00	6.35196096621e+01	-2.72496512824e+00
2.32000000000e+00	6.35290679097e+01	-2.73250875760e+00
2.33000000000e+00	6.35385657966e+01	-2.74001893603e+00
2.34000000000e+00	6.35481032816e+01	-2.74749595303e+00
2.35000000000e+00	6.35576803182e+01	-2.75494009427e+00
2.36000000000e+00	6.35672968830e+01	-2.76235164168e+00
2.37000000000e+00	6.35769529101e+01	-2.76973087352e+00
2.38000000000e+00	6.35866483820e+01	-2.77707806441e+00
2.39000000000e+00	6.35963832322e+01	-2.78439348542e+00
2.40000000000e+00	6.36061574479e+01	-2.79167740413e+00
2.41000000000e+00	6.36159709738e+01	-2.79893008469e+00
2.42000000000e+00	6.36258237749e+01	-2.80615178785e+00
2.43000000000e+00	6.36357157981e+01	-2.81334277107e+00
2.44000000000e+00	6.36456470169e+01	-2.82050328855e+00
2.45000000000e+00	6.36556173916e+01	-2.82763359125e+00
2.46000000000e+00	6.36656268520e+01	-2.83473392703e+00
2.47000000000e+00	6.36756753893e+01	-2.84180454060e+00
2.48000000000e+00	6.36857629475e+01	-2.84884567366e+00
2.49000000000e+00	6.36958894728e+01	-2.85585756490e+00
2.50000000000e+00	6.37060549485e+01	-2.86284045006e+00
