# kz [1/micrones]     Omega [THz]    log10(|det|)     , $\mu_c$ = 0.4000 eV, modo = 1, R = 0.50$\mu$m, $\eta$ = 0.95, solve_det_conkz.py
1.00000000000e-02	2.48974758044e+01	6.84553136024e-01
2.00000000000e-02	2.48979920022e+01	7.25051274036e-01
3.00000000000e-02	2.48988449229e+01	7.96752896950e-01
4.00000000000e-02	2.49000216646e+01	9.07554836403e-01
5.00000000000e-02	2.49014993098e+01	1.07314714328e+00
6.00000000000e-02	2.49032366604e+01	1.32795459044e+00
7.00000000000e-02	2.49051582789e+01	1.76929071032e+00
8.00000000000e-02	2.49076474016e+01	2.98838013206e+00
9.00000000000e-02	2.49086547986e+01	2.15451020688e+00
1.00000000000e-01	2.49136140991e+01	1.33410842598e+00
1.10000000000e-01	2.49182062764e+01	8.86081788115e-01
1.20000000000e-01	2.49230022037e+01	5.68761452401e-01
1.30000000000e-01	2.49281194590e+01	3.19538113216e-01
1.40000000000e-01	2.49336019552e+01	1.12537735921e-01
1.50000000000e-01	2.49394709849e+01	-6.55061958777e-02
1.60000000000e-01	2.49457386102e+01	-2.22333569462e-01
1.70000000000e-01	2.49524123634e+01	-3.62870649063e-01
1.80000000000e-01	2.49594972502e+01	-4.90456696478e-01
1.90000000000e-01	2.49669968349e+01	-6.07466003777e-01
2.00000000000e-01	2.49749135654e+01	-7.15651301348e-01
2.10000000000e-01	2.49832493163e+01	-8.16346223621e-01
2.20000000000e-01	2.49920053741e+01	-9.10591113850e-01
2.30000000000e-01	2.50011826695e+01	-9.99214628726e-01
2.40000000000e-01	2.50107817837e+01	-1.08288860643e+00
2.50000000000e-01	2.50208030892e+01	-1.16216609809e+00
2.60000000000e-01	2.50312467124e+01	-1.23750842755e+00
2.70000000000e-01	2.50421125977e+01	-1.30930488694e+00
2.80000000000e-01	2.50534005170e+01	-1.37788736061e+00
2.90000000000e-01	2.50651101281e+01	-1.44354137622e+00
3.00000000000e-01	2.50772408981e+01	-1.50651458780e+00
3.10000000000e-01	2.50897922018e+01	-1.56702337960e+00
3.20000000000e-01	2.51027633691e+01	-1.62525807247e+00
3.30000000000e-01	2.51161534662e+01	-1.68138707570e+00
3.40000000000e-01	2.51299615782e+01	-1.73556023268e+00
3.50000000000e-01	2.51441867169e+01	-1.78791154254e+00
3.60000000000e-01	2.51588277198e+01	-1.83856139363e+00
3.70000000000e-01	2.51738834157e+01	-1.88761841115e+00
3.80000000000e-01	2.51893524824e+01	-1.93518099687e+00
3.90000000000e-01	2.52052335637e+01	-1.98133862116e+00
4.00000000000e-01	2.52215252451e+01	-2.02617291396e+00
4.10000000000e-01	2.52382260092e+01	-2.06975859162e+00
4.20000000000e-01	2.52553342841e+01	-2.11216424845e+00
4.30000000000e-01	2.52728484385e+01	-2.15345303644e+00
4.40000000000e-01	2.52907667738e+01	-2.19368325160e+00
4.50000000000e-01	2.53090875235e+01	-2.23290884214e+00
4.60000000000e-01	2.53278088774e+01	-2.27117985085e+00
4.70000000000e-01	2.53469289558e+01	-2.30854280163e+00
4.80000000000e-01	2.53664458380e+01	-2.34504103857e+00
4.90000000000e-01	2.53863575333e+01	-2.38071502461e+00
5.00000000000e-01	2.54066620185e+01	-2.41560260526e+00
5.10000000000e-01	2.54273572066e+01	-2.44973924244e+00
5.20000000000e-01	2.54484409716e+01	-2.48315822238e+00
5.30000000000e-01	2.54699111395e+01	-2.51589084102e+00
5.40000000000e-01	2.54917654862e+01	-2.54796656985e+00
5.50000000000e-01	2.55140017504e+01	-2.57941320461e+00
5.60000000000e-01	2.55366176300e+01	-2.61025699901e+00
5.70000000000e-01	2.55596107800e+01	-2.64052278530e+00
5.80000000000e-01	2.55829788171e+01	-2.67023408320e+00
5.90000000000e-01	2.56067193089e+01	-2.69941319856e+00
6.00000000000e-01	2.56308298123e+01	-2.72808131300e+00
6.10000000000e-01	2.56553078219e+01	-2.75625856544e+00
6.20000000000e-01	2.56801508168e+01	-2.78396412644e+00
6.30000000000e-01	2.57053562292e+01	-2.81121626615e+00
6.40000000000e-01	2.57309214715e+01	-2.83803241662e+00
6.50000000000e-01	2.57568439194e+01	-2.86442922884e+00
6.60000000000e-01	2.57831209194e+01	-2.89042262533e+00
6.70000000000e-01	2.58097497872e+01	-2.91602784855e+00
6.80000000000e-01	2.58367278218e+01	-2.94125950557e+00
6.90000000000e-01	2.58640522855e+01	-2.96613160947e+00
7.00000000000e-01	2.58917204171e+01	-2.99065761763e+00
7.10000000000e-01	2.59197294362e+01	-3.01485046740e+00
7.20000000000e-01	2.59480765352e+01	-3.03872260921e+00
7.30000000000e-01	2.59767588814e+01	-3.06228603751e+00
7.40000000000e-01	2.60057736274e+01	-3.08555231965e+00
7.50000000000e-01	2.60351179054e+01	-3.10853262297e+00
7.60000000000e-01	2.60647888251e+01	-3.13123774018e+00
7.70000000000e-01	2.60947834767e+01	-3.15367811328e+00
7.80000000000e-01	2.61250989379e+01	-3.17586385606e+00
7.90000000000e-01	2.61557322677e+01	-3.19780477542e+00
8.00000000000e-01	2.61866805041e+01	-3.21951039153e+00
8.10000000000e-01	2.62179406855e+01	-3.24098995696e+00
8.20000000000e-01	2.62495098182e+01	-3.26225247495e+00
8.30000000000e-01	2.62813849037e+01	-3.28330671683e+00
8.40000000000e-01	2.63135629382e+01	-3.30416123862e+00
8.50000000000e-01	2.63460408901e+01	-3.32482439713e+00
8.60000000000e-01	2.63788157340e+01	-3.34530436532e+00
8.70000000000e-01	2.64118844218e+01	-3.36560914720e+00
8.80000000000e-01	2.64452439052e+01	-3.38574659228e+00
8.90000000000e-01	2.64788911246e+01	-3.40572440965e+00
9.00000000000e-01	2.65128230061e+01	-3.42555018164e+00
9.10000000000e-01	2.65470364813e+01	-3.44523137733e+00
9.20000000000e-01	2.65815284635e+01	-3.46477536573e+00
9.30000000000e-01	2.66162958635e+01	-3.48418942885e+00
9.40000000000e-01	2.66513355946e+01	-3.50348077468e+00
9.50000000000e-01	2.66866445532e+01	-3.52265655010e+00
9.60000000000e-01	2.67222196393e+01	-3.54172385376e+00
9.70000000000e-01	2.67580577485e+01	-3.56068974906e+00
9.80000000000e-01	2.67941557759e+01	-3.57956127727e+00
9.90000000000e-01	2.68305106055e+01	-3.59834547076e+00
1.00000000000e+00	2.68671191297e+01	-3.61704936652e+00
1.01000000000e+00	2.69039782325e+01	-3.63568002000e+00
1.02000000000e+00	2.69410847976e+01	-3.65424451923e+00
1.03000000000e+00	2.69784357114e+01	-3.67274999956e+00
1.04000000000e+00	2.70160278599e+01	-3.69120365876e+00
1.05000000000e+00	2.70538581250e+01	-3.70961277284e+00
1.06000000000e+00	2.70919233936e+01	-3.72798471253e+00
1.07000000000e+00	2.71302205537e+01	-3.74632696066e+00
1.08000000000e+00	2.71687464887e+01	-3.76464713032e+00
1.09000000000e+00	2.72074980926e+01	-3.78295298426e+00
1.10000000000e+00	2.72464722473e+01	-3.80125245530e+00
1.11000000000e+00	2.72856658570e+01	-3.81955366823e+00
1.12000000000e+00	2.73250758074e+01	-3.83786496316e+00
1.13000000000e+00	2.73646990010e+01	-3.85619492060e+00
1.14000000000e+00	2.74045323363e+01	-3.87455238848e+00
1.15000000000e+00	2.74445727173e+01	-3.89294651136e+00
1.16000000000e+00	2.74848170502e+01	-3.91138676207e+00
1.17000000000e+00	2.75252622420e+01	-3.92988297617e+00
1.18000000000e+00	2.75659052040e+01	-3.94844538956e+00
1.19000000000e+00	2.76067428548e+01	-3.96708467963e+00
1.20000000000e+00	2.76477721109e+01	-3.98581201045e+00
1.21000000000e+00	2.76889898902e+01	-4.00463908259e+00
1.22000000000e+00	2.77303931214e+01	-4.02357818822e+00
1.23000000000e+00	2.77719787329e+01	-4.04264227207e+00
1.24000000000e+00	2.78137436479e+01	-4.06184499943e+00
1.25000000000e+00	2.78556848093e+01	-4.08120083183e+00
1.26000000000e+00	2.78977991482e+01	-4.10072511199e+00
1.27000000000e+00	2.79400836035e+01	-4.12043415909e+00
1.28000000000e+00	2.79825351167e+01	-4.14034537628e+00
1.29000000000e+00	2.80251506342e+01	-4.16047737230e+00
1.30000000000e+00	2.80679270991e+01	-4.18085009961e+00
1.31000000000e+00	2.81108614627e+01	-4.20148501188e+00
1.32000000000e+00	2.81539506722e+01	-4.22240524429e+00
1.33000000000e+00	2.81971916782e+01	-4.24363582076e+00
1.34000000000e+00	2.82405814368e+01	-4.26520389325e+00
1.35000000000e+00	2.82841168964e+01	-4.28713901938e+00
1.36000000000e+00	2.83277950189e+01	-4.30947348600e+00
1.37000000000e+00	2.83716127555e+01	-4.33224268835e+00
1.38000000000e+00	2.84155670625e+01	-4.35548557677e+00
1.39000000000e+00	2.84596548935e+01	-4.37924518607e+00
1.40000000000e+00	2.85038732060e+01	-4.40356926679e+00
1.41000000000e+00	2.85482189538e+01	-4.42851104293e+00
1.42000000000e+00	2.85926890957e+01	-4.45413012803e+00
1.43000000000e+00	2.86372805773e+01	-4.48049364124e+00
1.44000000000e+00	2.86819903607e+01	-4.50767757840e+00
1.45000000000e+00	2.87268153920e+01	-4.53576851152e+00
1.46000000000e+00	2.87717526233e+01	-4.56486571622e+00
1.47000000000e+00	2.88167990042e+01	-4.59508386355e+00
1.48000000000e+00	2.88619514839e+01	-4.62655646624e+00
1.49000000000e+00	2.89072070082e+01	-4.65944034868e+00
1.50000000000e+00	2.89525625258e+01	-4.69392152904e+00
1.51000000000e+00	2.89980149836e+01	-4.73022308580e+00
1.52000000000e+00	2.90435613259e+01	-4.76861587086e+00
1.53000000000e+00	2.90891984969e+01	-4.80943340324e+00
1.54000000000e+00	2.91349234430e+01	-4.85309306840e+00
1.55000000000e+00	2.91807331154e+01	-4.90012712688e+00
1.56000000000e+00	2.92266244598e+01	-4.95122953998e+00
1.57000000000e+00	2.92725944324e+01	-5.00732940726e+00
1.58000000000e+00	2.93186399852e+01	-5.06971152057e+00
1.59000000000e+00	2.93647580840e+01	-5.14022572525e+00
1.60000000000e+00	2.94109456943e+01	-5.22167738389e+00
1.61000000000e+00	2.94571997915e+01	-5.31862706312e+00
1.62000000000e+00	2.95035173602e+01	-5.43925424283e+00
1.63000000000e+00	2.95498953963e+01	-5.60062375930e+00
1.64000000000e+00	2.95963309107e+01	-5.84939335024e+00
1.65000000000e+00	2.96428209299e+01	-6.44972342419e+00
1.66000000000e+00	2.96893624946e+01	-6.17343305881e+00
1.67000000000e+00	2.97359526712e+01	-5.77898755040e+00
1.68000000000e+00	2.97825885455e+01	-5.58110370390e+00
1.69000000000e+00	2.98292672334e+01	-5.44957098710e+00
1.70000000000e+00	2.98759858764e+01	-5.35183024005e+00
1.71000000000e+00	2.99227416529e+01	-5.27464145028e+00
1.72000000000e+00	2.99695317750e+01	-5.21129831663e+00
1.73000000000e+00	3.00163534975e+01	-5.15793195252e+00
1.74000000000e+00	3.00632041182e+01	-5.11210737287e+00
1.75000000000e+00	3.01100809801e+01	-5.07219304934e+00
1.76000000000e+00	3.01569814903e+01	-5.03704290193e+00
1.77000000000e+00	3.02039030985e+01	-5.00582156600e+00
1.78000000000e+00	3.02508433200e+01	-4.97790183614e+00
1.79000000000e+00	3.02977997444e+01	-4.95280122356e+00
1.80000000000e+00	3.03447700184e+01	-4.93014098743e+00
1.81000000000e+00	3.03917518672e+01	-4.90961871474e+00
1.82000000000e+00	3.04387431012e+01	-4.89098940356e+00
1.83000000000e+00	3.04857416059e+01	-4.87405206849e+00
1.84000000000e+00	3.05327453615e+01	-4.85864003969e+00
1.85000000000e+00	3.05797524285e+01	-4.84461379638e+00
1.86000000000e+00	3.06267609744e+01	-4.83185557909e+00
1.87000000000e+00	3.06737692575e+01	-4.82026527556e+00
1.88000000000e+00	3.07207756434e+01	-4.80975723476e+00
1.89000000000e+00	3.07677785992e+01	-4.80025776850e+00
1.90000000000e+00	3.08147766979e+01	-4.79170316953e+00
1.91000000000e+00	3.08617686349e+01	-4.78403812306e+00
1.92000000000e+00	3.09087532021e+01	-4.77721442132e+00
1.93000000000e+00	3.09557293180e+01	-4.77118991433e+00
1.94000000000e+00	3.10026960050e+01	-4.76592764664e+00
1.95000000000e+00	3.10496524099e+01	-4.76139514186e+00
1.96000000000e+00	3.10965977949e+01	-4.75756380574e+00
1.97000000000e+00	3.11435315255e+01	-4.75440842515e+00
1.98000000000e+00	3.11904530986e+01	-4.75190674517e+00
1.99000000000e+00	3.12373621220e+01	-4.75003911052e+00
2.00000000000e+00	3.12842582974e+01	-4.74878816007e+00
2.01000000000e+00	3.13311414573e+01	-4.74813856584e+00
2.02000000000e+00	3.13780115240e+01	-4.74807680911e+00
2.03000000000e+00	3.14248685376e+01	-4.74859098823e+00
2.04000000000e+00	3.14717126211e+01	-4.74967065317e+00
2.05000000000e+00	3.15185440061e+01	-4.75130666326e+00
2.06000000000e+00	3.15653630000e+01	-4.75349106491e+00
2.07000000000e+00	3.16121700114e+01	-4.75621698677e+00
2.08000000000e+00	3.16589655178e+01	-4.75947855031e+00
2.09000000000e+00	3.17057500765e+01	-4.76327079403e+00
2.10000000000e+00	3.17525243023e+01	-4.76758960999e+00
2.11000000000e+00	3.17992888824e+01	-4.77243169149e+00
2.12000000000e+00	3.18460445554e+01	-4.77779449097e+00
2.13000000000e+00	3.18927921050e+01	-4.78367618747e+00
2.14000000000e+00	3.19395323646e+01	-4.79007566310e+00
2.15000000000e+00	3.19862661943e+01	-4.79699248802e+00
2.16000000000e+00	3.20329944829e+01	-4.80442691387e+00
2.17000000000e+00	3.20797181435e+01	-4.81237987534e+00
2.18000000000e+00	3.21264381026e+01	-4.82085300000e+00
2.19000000000e+00	3.21731552885e+01	-4.82984862646e+00
2.20000000000e+00	3.22198706342e+01	-4.83936983123e+00
2.21000000000e+00	3.22665850628e+01	-4.84942046450e+00
2.22000000000e+00	3.23132994898e+01	-4.86000519567e+00
2.23000000000e+00	3.23600148042e+01	-4.87112956909e+00
2.24000000000e+00	3.24067318659e+01	-4.88280007116e+00
2.25000000000e+00	3.24534515168e+01	-4.89502420986e+00
2.26000000000e+00	3.25001745457e+01	-4.90781060819e+00
2.27000000000e+00	3.25469017110e+01	-4.92116911324e+00
2.28000000000e+00	3.25936337199e+01	-4.93511092312e+00
2.29000000000e+00	3.26403712197e+01	-4.94964873430e+00
2.30000000000e+00	3.26871148098e+01	-4.96479691269e+00
2.31000000000e+00	3.27338650277e+01	-4.98057169228e+00
2.32000000000e+00	3.27806223459e+01	-4.99699140631e+00
2.33000000000e+00	3.28273871667e+01	-5.01407675682e+00
2.34000000000e+00	3.28741598320e+01	-5.03185113010e+00
2.35000000000e+00	3.29209406029e+01	-5.05034096722e+00
2.36000000000e+00	3.29677296749e+01	-5.06957620120e+00
2.37000000000e+00	3.30145271593e+01	-5.08959077546e+00
2.38000000000e+00	3.30613331079e+01	-5.11042326217e+00
2.39000000000e+00	3.31081474853e+01	-5.13211760421e+00
2.40000000000e+00	3.31549701788e+01	-5.15472401178e+00
2.41000000000e+00	3.32018010114e+01	-5.17830005370e+00
2.42000000000e+00	3.32486397262e+01	-5.20291199672e+00
2.43000000000e+00	3.32954859891e+01	-5.22863646376e+00
2.44000000000e+00	3.33423394067e+01	-5.25556250692e+00
2.45000000000e+00	3.33891995096e+01	-5.28379422669e+00
2.46000000000e+00	3.34360657535e+01	-5.31345412013e+00
2.47000000000e+00	3.34829375486e+01	-5.34468741622e+00
2.48000000000e+00	3.35298142255e+01	-5.37766777041e+00
2.49000000000e+00	3.35766950699e+01	-5.41260486462e+00
2.50000000000e+00	3.36235793003e+01	-5.44975473385e+00
