# R [micrones]     Omega/c [1/micrones]    Im(epsi1)     Eq(det)$\mu$ = 0.3 eV, $E_p$ = 0.900 eV, modo = 1, $\epsilon_\infty$ = 3.9, $\gamma_{DL}$ = 0.01 eV, solve_det_sinkz_vs_R.py
5.000000000e+00	2.675817722e+00	-5.556702424e-02	1.512030648e-14
4.999000000e+00	2.675817599e+00	-5.556762332e-02	8.470254885e-15
4.998000000e+00	2.675817476e+00	-5.556821333e-02	1.819034484e-14
4.997000000e+00	2.675817356e+00	-5.556879426e-02	1.508897599e-14
4.996000000e+00	2.675817237e+00	-5.556936609e-02	3.182733801e-15
4.995000000e+00	2.675817121e+00	-5.556992879e-02	1.272492977e-14
4.994000000e+00	2.675817006e+00	-5.557048233e-02	1.247972398e-14
4.993000000e+00	2.675816893e+00	-5.557102670e-02	9.001089408e-15
4.992000000e+00	2.675816781e+00	-5.557156188e-02	1.217312574e-14
4.991000000e+00	2.675816672e+00	-5.557208784e-02	2.047445483e-14
4.990000000e+00	2.675816564e+00	-5.557260456e-02	8.883962592e-15
4.989000000e+00	2.675816458e+00	-5.557311202e-02	9.877512469e-15
4.988000000e+00	2.675816354e+00	-5.557361020e-02	1.424166503e-14
4.987000000e+00	2.675816252e+00	-5.557409908e-02	1.325237624e-14
4.986000000e+00	2.675816152e+00	-5.557457864e-02	1.360456730e-14
4.985000000e+00	2.675816054e+00	-5.557504886e-02	1.648151045e-14
4.984000000e+00	2.675815957e+00	-5.557550972e-02	2.657170495e-14
4.983000000e+00	2.675815862e+00	-5.557596119e-02	9.377547492e-15
4.982000000e+00	2.675815770e+00	-5.557640326e-02	1.198944404e-14
4.981000000e+00	2.675815679e+00	-5.557683592e-02	2.226939472e-14
4.980000000e+00	2.675815590e+00	-5.557725913e-02	4.672338932e-15
4.979000000e+00	2.675815502e+00	-5.557767288e-02	1.777498405e-14
4.978000000e+00	2.675815417e+00	-5.557807716e-02	1.310002824e-14
4.977000000e+00	2.675815334e+00	-5.557847194e-02	3.241258332e-15
4.976000000e+00	2.675815252e+00	-5.557885721e-02	2.109760486e-14
4.975000000e+00	2.675815173e+00	-5.557923295e-02	2.063587171e-14
4.974000000e+00	2.675815095e+00	-5.557959914e-02	1.820859506e-14
4.973000000e+00	2.675815019e+00	-5.557995576e-02	1.206235747e-14
4.972000000e+00	2.675814945e+00	-5.558030280e-02	9.048156079e-15
4.971000000e+00	2.675814873e+00	-5.558064024e-02	2.070652798e-14
4.970000000e+00	2.675814803e+00	-5.558096806e-02	1.747150858e-14
4.969000000e+00	2.675814735e+00	-5.558128625e-02	1.201358686e-14
4.968000000e+00	2.675814669e+00	-5.558159479e-02	1.888542184e-14
4.967000000e+00	2.675814604e+00	-5.558189366e-02	1.784150770e-14
4.966000000e+00	2.675814542e+00	-5.558218285e-02	1.273659166e-14
4.965000000e+00	2.675814482e+00	-5.558246235e-02	9.783502280e-15
4.964000000e+00	2.675814423e+00	-5.558273213e-02	8.185040186e-15
4.963000000e+00	2.675814367e+00	-5.558299218e-02	1.141431530e-14
4.962000000e+00	2.675814312e+00	-5.558324250e-02	1.451808205e-14
4.961000000e+00	2.675814259e+00	-5.558348305e-02	1.846598454e-14
4.960000000e+00	2.675814208e+00	-5.558371384e-02	2.244362036e-14
4.959000000e+00	2.675814160e+00	-5.558393484e-02	1.725762948e-14
4.958000000e+00	2.675814113e+00	-5.558414605e-02	2.260844286e-14
4.957000000e+00	2.675814068e+00	-5.558434744e-02	1.986212308e-14
4.956000000e+00	2.675814025e+00	-5.558453901e-02	1.160377324e-14
4.955000000e+00	2.675813984e+00	-5.558472074e-02	1.190521489e-14
4.954000000e+00	2.675813945e+00	-5.558489262e-02	1.185202836e-14
4.953000000e+00	2.675813908e+00	-5.558505464e-02	1.496654544e-14
4.952000000e+00	2.675813873e+00	-5.558520678e-02	1.349703486e-14
4.951000000e+00	2.675813840e+00	-5.558534904e-02	1.742602957e-14
4.950000000e+00	2.675813809e+00	-5.558548140e-02	1.936476360e-14
4.949000000e+00	2.675813780e+00	-5.558560385e-02	9.518919336e-15
4.948000000e+00	2.675813753e+00	-5.558571638e-02	9.225982917e-15
4.947000000e+00	2.675813727e+00	-5.558581898e-02	1.173233401e-14
4.946000000e+00	2.675813704e+00	-5.558591164e-02	1.216587551e-14
4.945000000e+00	2.675813683e+00	-5.558599435e-02	1.650562410e-14
4.944000000e+00	2.675813664e+00	-5.558606709e-02	1.328256840e-14
4.943000000e+00	2.675813647e+00	-5.558612987e-02	1.145299345e-14
4.942000000e+00	2.675813632e+00	-5.558618266e-02	1.819273799e-14
4.941000000e+00	2.675813618e+00	-5.558622546e-02	1.753075178e-14
4.940000000e+00	2.675813607e+00	-5.558625827e-02	2.749884924e-14
4.939000000e+00	2.675813598e+00	-5.558628106e-02	6.739167830e-15
4.938000000e+00	2.675813591e+00	-5.558629385e-02	1.158168414e-14
4.937000000e+00	2.675813586e+00	-5.558629660e-02	7.864396656e-15
4.936000000e+00	2.675813583e+00	-5.558628933e-02	9.834417273e-15
4.935000000e+00	2.675813581e+00	-5.558627202e-02	1.999067579e-14
4.934000000e+00	2.675813582e+00	-5.558624466e-02	8.670055603e-15
4.933000000e+00	2.675813585e+00	-5.558620725e-02	2.599572502e-14
4.932000000e+00	2.675813590e+00	-5.558615978e-02	1.170587628e-14
4.931000000e+00	2.675813597e+00	-5.558610225e-02	9.656115387e-15
4.930000000e+00	2.675813606e+00	-5.558603464e-02	1.418060625e-14
4.929000000e+00	2.675813617e+00	-5.558595696e-02	6.762008214e-15
4.928000000e+00	2.675813630e+00	-5.558586919e-02	1.495058915e-14
4.927000000e+00	2.675813645e+00	-5.558577134e-02	9.253408539e-15
4.926000000e+00	2.675813662e+00	-5.558566339e-02	1.210993014e-14
4.925000000e+00	2.675813681e+00	-5.558554534e-02	6.811875706e-15
4.924000000e+00	2.675813702e+00	-5.558541720e-02	1.166688787e-14
4.923000000e+00	2.675813725e+00	-5.558527895e-02	1.471582199e-14
4.922000000e+00	2.675813750e+00	-5.558513058e-02	1.660462069e-14
4.921000000e+00	2.675813777e+00	-5.558497211e-02	1.695495292e-14
4.920000000e+00	2.675813806e+00	-5.558480352e-02	1.884805158e-14
4.919000000e+00	2.675813838e+00	-5.558462481e-02	1.311597616e-14
4.918000000e+00	2.675813871e+00	-5.558443598e-02	1.287262039e-14
4.917000000e+00	2.675813906e+00	-5.558423703e-02	1.354478462e-14
4.916000000e+00	2.675813943e+00	-5.558402795e-02	9.252232411e-15
4.915000000e+00	2.675813983e+00	-5.558380874e-02	1.807706962e-14
4.914000000e+00	2.675814024e+00	-5.558357941e-02	1.632044938e-14
4.913000000e+00	2.675814067e+00	-5.558333994e-02	1.464878818e-14
4.912000000e+00	2.675814113e+00	-5.558309035e-02	5.546521634e-15
4.911000000e+00	2.675814160e+00	-5.558283063e-02	9.287903801e-15
4.910000000e+00	2.675814210e+00	-5.558256077e-02	7.665868506e-15
4.909000000e+00	2.675814262e+00	-5.558228079e-02	2.000503934e-14
4.908000000e+00	2.675814315e+00	-5.558199067e-02	1.351930471e-14
4.907000000e+00	2.675814371e+00	-5.558169043e-02	8.567729609e-15
4.906000000e+00	2.675814428e+00	-5.558138006e-02	2.401396954e-14
4.905000000e+00	2.675814488e+00	-5.558105956e-02	7.081259271e-15
4.904000000e+00	2.675814550e+00	-5.558072894e-02	1.063472917e-14
4.903000000e+00	2.675814614e+00	-5.558038819e-02	1.219842741e-14
4.902000000e+00	2.675814679e+00	-5.558003733e-02	1.734854675e-14
4.901000000e+00	2.675814747e+00	-5.557967635e-02	1.472204003e-14
4.900000000e+00	2.675814817e+00	-5.557930525e-02	4.914462467e-15
4.899000000e+00	2.675814889e+00	-5.557892404e-02	8.287747567e-15
4.898000000e+00	2.675814963e+00	-5.557853272e-02	8.587753204e-15
4.897000000e+00	2.675815039e+00	-5.557813130e-02	1.193972571e-14
4.896000000e+00	2.675815117e+00	-5.557771978e-02	4.916624068e-15
4.895000000e+00	2.675815197e+00	-5.557729816e-02	1.249211812e-14
4.894000000e+00	2.675815279e+00	-5.557686646e-02	1.714872570e-14
4.893000000e+00	2.675815364e+00	-5.557642467e-02	8.072932662e-15
4.892000000e+00	2.675815450e+00	-5.557597280e-02	1.522565717e-14
4.891000000e+00	2.675815538e+00	-5.557551085e-02	3.535252064e-15
4.890000000e+00	2.675815628e+00	-5.557503884e-02	9.614785279e-15
4.889000000e+00	2.675815721e+00	-5.557455677e-02	1.019054875e-14
4.888000000e+00	2.675815815e+00	-5.557406464e-02	1.134338552e-14
4.887000000e+00	2.675815911e+00	-5.557356246e-02	1.275983632e-14
4.886000000e+00	2.675816010e+00	-5.557305025e-02	1.108529075e-14
4.885000000e+00	2.675816110e+00	-5.557252800e-02	1.378958522e-14
4.884000000e+00	2.675816212e+00	-5.557199573e-02	2.697992980e-14
4.883000000e+00	2.675816317e+00	-5.557145344e-02	1.366081322e-14
4.882000000e+00	2.675816423e+00	-5.557090115e-02	1.462024167e-14
4.881000000e+00	2.675816532e+00	-5.557033885e-02	5.598893087e-15
4.880000000e+00	2.675816642e+00	-5.556976657e-02	5.792556163e-15
4.879000000e+00	2.675816755e+00	-5.556918431e-02	9.083964548e-15
4.878000000e+00	2.675816869e+00	-5.556859208e-02	1.145250498e-14
4.877000000e+00	2.675816986e+00	-5.556798989e-02	1.504020377e-14
4.876000000e+00	2.675817104e+00	-5.556737775e-02	1.813336124e-14
4.875000000e+00	2.675817225e+00	-5.556675568e-02	1.231197333e-14
4.874000000e+00	2.675817347e+00	-5.556612368e-02	1.192355147e-14
4.873000000e+00	2.675817472e+00	-5.556548176e-02	1.165138798e-14
4.872000000e+00	2.675817599e+00	-5.556482994e-02	5.635370848e-15
4.871000000e+00	2.675817727e+00	-5.556416823e-02	1.922032721e-14
4.870000000e+00	2.675817858e+00	-5.556349665e-02	1.079607162e-14
4.869000000e+00	2.675817990e+00	-5.556281520e-02	1.218623304e-14
4.868000000e+00	2.675818125e+00	-5.556212389e-02	1.391529272e-14
4.867000000e+00	2.675818261e+00	-5.556142275e-02	1.112971663e-14
4.866000000e+00	2.675818400e+00	-5.556071179e-02	1.315822507e-14
4.865000000e+00	2.675818541e+00	-5.555999101e-02	9.924403169e-15
4.864000000e+00	2.675818683e+00	-5.555926044e-02	1.374195768e-14
4.863000000e+00	2.675818828e+00	-5.555852009e-02	1.064681036e-14
4.862000000e+00	2.675818974e+00	-5.555776997e-02	9.858592660e-15
4.861000000e+00	2.675819123e+00	-5.555701010e-02	1.619930860e-14
4.860000000e+00	2.675819273e+00	-5.555624050e-02	8.596014259e-15
4.859000000e+00	2.675819425e+00	-5.555546119e-02	2.419129952e-14
4.858000000e+00	2.675819580e+00	-5.555467217e-02	1.398404464e-14
4.857000000e+00	2.675819736e+00	-5.555387346e-02	1.273698056e-14
4.856000000e+00	2.675819894e+00	-5.555306509e-02	8.601331627e-15
4.855000000e+00	2.675820055e+00	-5.555224707e-02	1.228557734e-14
4.854000000e+00	2.675820217e+00	-5.555141941e-02	1.523342291e-14
4.853000000e+00	2.675820381e+00	-5.555058215e-02	1.190728944e-14
4.852000000e+00	2.675820547e+00	-5.554973529e-02	1.825153711e-14
4.851000000e+00	2.675820715e+00	-5.554887885e-02	1.978422060e-14
4.850000000e+00	2.675820885e+00	-5.554801285e-02	1.153954779e-14
4.849000000e+00	2.675821057e+00	-5.554713732e-02	1.888956347e-14
4.848000000e+00	2.675821231e+00	-5.554625227e-02	2.317371861e-14
4.847000000e+00	2.675821407e+00	-5.554535772e-02	1.394918705e-14
4.846000000e+00	2.675821585e+00	-5.554445369e-02	2.479727334e-14
4.845000000e+00	2.675821764e+00	-5.554354021e-02	1.084088612e-14
4.844000000e+00	2.675821946e+00	-5.554261729e-02	1.021664594e-14
4.843000000e+00	2.675822129e+00	-5.554168496e-02	1.773766442e-14
4.842000000e+00	2.675822315e+00	-5.554074323e-02	1.030467980e-14
4.841000000e+00	2.675822502e+00	-5.553979214e-02	1.669165703e-14
4.840000000e+00	2.675822691e+00	-5.553883170e-02	1.919480176e-14
4.839000000e+00	2.675822882e+00	-5.553786193e-02	1.590329222e-14
4.838000000e+00	2.675823075e+00	-5.553688286e-02	1.280855714e-14
4.837000000e+00	2.675823270e+00	-5.553589452e-02	5.308199292e-15
4.836000000e+00	2.675823467e+00	-5.553489692e-02	1.789118859e-14
4.835000000e+00	2.675823666e+00	-5.553389009e-02	1.889258529e-14
4.834000000e+00	2.675823866e+00	-5.553287405e-02	2.134012787e-14
4.833000000e+00	2.675824069e+00	-5.553184884e-02	1.556283727e-14
4.832000000e+00	2.675824273e+00	-5.553081446e-02	9.231250036e-15
4.831000000e+00	2.675824479e+00	-5.552977096e-02	1.485571593e-14
4.830000000e+00	2.675824687e+00	-5.552871835e-02	1.677666881e-14
4.829000000e+00	2.675824897e+00	-5.552765667e-02	1.011592969e-14
4.828000000e+00	2.675825109e+00	-5.552658593e-02	9.342117749e-15
4.827000000e+00	2.675825322e+00	-5.552550617e-02	1.090622006e-14
4.826000000e+00	2.675825537e+00	-5.552441741e-02	1.049884349e-14
4.825000000e+00	2.675825755e+00	-5.552331967e-02	7.215737487e-15
4.824000000e+00	2.675825974e+00	-5.552221300e-02	5.476199806e-15
4.823000000e+00	2.675826194e+00	-5.552109741e-02	1.471957920e-14
4.822000000e+00	2.675826417e+00	-5.551997293e-02	1.615548130e-14
4.821000000e+00	2.675826641e+00	-5.551883960e-02	2.129473121e-14
4.820000000e+00	2.675826868e+00	-5.551769744e-02	8.044089037e-15
4.819000000e+00	2.675827096e+00	-5.551654647e-02	1.064834572e-14
4.818000000e+00	2.675827326e+00	-5.551538674e-02	1.446277991e-14
4.817000000e+00	2.675827557e+00	-5.551421827e-02	1.856021327e-14
4.816000000e+00	2.675827791e+00	-5.551304109e-02	1.019386367e-14
4.815000000e+00	2.675828026e+00	-5.551185523e-02	1.149556535e-14
4.814000000e+00	2.675828263e+00	-5.551066072e-02	1.806472440e-14
4.813000000e+00	2.675828501e+00	-5.550945760e-02	1.659644093e-14
4.812000000e+00	2.675828742e+00	-5.550824589e-02	5.245444086e-15
4.811000000e+00	2.675828984e+00	-5.550702563e-02	1.226863729e-14
4.810000000e+00	2.675829228e+00	-5.550579685e-02	2.181481545e-14
4.809000000e+00	2.675829474e+00	-5.550455958e-02	1.109945568e-14
4.808000000e+00	2.675829721e+00	-5.550331385e-02	1.362480533e-14
4.807000000e+00	2.675829970e+00	-5.550205970e-02	5.116027331e-15
4.806000000e+00	2.675830221e+00	-5.550079717e-02	1.221365450e-14
4.805000000e+00	2.675830474e+00	-5.549952628e-02	1.021101666e-14
4.804000000e+00	2.675830728e+00	-5.549824707e-02	1.698554263e-14
4.803000000e+00	2.675830984e+00	-5.549695957e-02	9.126259398e-15
4.802000000e+00	2.675831242e+00	-5.549566383e-02	1.871032802e-14
4.801000000e+00	2.675831501e+00	-5.549435986e-02	1.590564778e-14
4.800000000e+00	2.675831762e+00	-5.549304772e-02	6.639914226e-15
4.799000000e+00	2.675832025e+00	-5.549172744e-02	1.970705237e-14
4.798000000e+00	2.675832289e+00	-5.549039904e-02	1.436046075e-14
4.797000000e+00	2.675832555e+00	-5.548906257e-02	9.886730360e-15
4.796000000e+00	2.675832822e+00	-5.548771807e-02	1.126877589e-14
4.795000000e+00	2.675833092e+00	-5.548636557e-02	9.463900719e-15
4.794000000e+00	2.675833363e+00	-5.548500511e-02	1.779618732e-14
4.793000000e+00	2.675833635e+00	-5.548363672e-02	1.601909651e-14
4.792000000e+00	2.675833909e+00	-5.548226045e-02	6.313825016e-15
4.791000000e+00	2.675834185e+00	-5.548087633e-02	1.483401051e-14
4.790000000e+00	2.675834462e+00	-5.547948441e-02	1.058749564e-14
4.789000000e+00	2.675834741e+00	-5.547808471e-02	2.628191353e-14
4.788000000e+00	2.675835022e+00	-5.547667728e-02	1.570523645e-14
4.787000000e+00	2.675835304e+00	-5.547526216e-02	1.473542298e-14
4.786000000e+00	2.675835588e+00	-5.547383939e-02	1.053980534e-14
4.785000000e+00	2.675835873e+00	-5.547240901e-02	1.076318149e-14
4.784000000e+00	2.675836160e+00	-5.547097106e-02	6.497388860e-15
4.783000000e+00	2.675836448e+00	-5.546952557e-02	2.099562672e-14
4.782000000e+00	2.675836738e+00	-5.546807260e-02	1.823053774e-14
4.781000000e+00	2.675837030e+00	-5.546661218e-02	1.327527353e-14
4.780000000e+00	2.675837323e+00	-5.546514435e-02	1.326070157e-14
4.779000000e+00	2.675837617e+00	-5.546366916e-02	1.318006730e-14
4.778000000e+00	2.675837913e+00	-5.546218665e-02	1.601438130e-14
4.777000000e+00	2.675838210e+00	-5.546069685e-02	7.705970350e-15
4.776000000e+00	2.675838509e+00	-5.545919982e-02	3.763905038e-15
4.775000000e+00	2.675838810e+00	-5.545769559e-02	1.051134494e-14
4.774000000e+00	2.675839112e+00	-5.545618421e-02	9.107984045e-15
4.773000000e+00	2.675839415e+00	-5.545466573e-02	1.211084546e-14
4.772000000e+00	2.675839720e+00	-5.545314018e-02	2.697175315e-14
4.771000000e+00	2.675840026e+00	-5.545160761e-02	1.345387359e-14
4.770000000e+00	2.675840334e+00	-5.545006807e-02	1.617513225e-14
4.769000000e+00	2.675840643e+00	-5.544852159e-02	9.910440912e-15
4.768000000e+00	2.675840954e+00	-5.544696823e-02	2.746479750e-14
4.767000000e+00	2.675841266e+00	-5.544540803e-02	1.839905676e-14
4.766000000e+00	2.675841579e+00	-5.544384103e-02	1.050715520e-14
4.765000000e+00	2.675841894e+00	-5.544226729e-02	1.556179774e-14
4.764000000e+00	2.675842210e+00	-5.544068684e-02	1.114234268e-14
4.763000000e+00	2.675842527e+00	-5.543909974e-02	1.288682456e-14
4.762000000e+00	2.675842846e+00	-5.543750603e-02	1.824561000e-14
4.761000000e+00	2.675843166e+00	-5.543590575e-02	1.373422040e-14
4.760000000e+00	2.675843488e+00	-5.543429896e-02	9.928182851e-15
4.759000000e+00	2.675843811e+00	-5.543268571e-02	8.339710533e-15
4.758000000e+00	2.675844135e+00	-5.543106603e-02	6.285596294e-15
4.757000000e+00	2.675844461e+00	-5.542943998e-02	1.162399256e-14
4.756000000e+00	2.675844787e+00	-5.542780760e-02	1.161277632e-14
4.755000000e+00	2.675845116e+00	-5.542616895e-02	1.818973106e-14
4.754000000e+00	2.675845445e+00	-5.542452408e-02	1.647771611e-14
4.753000000e+00	2.675845776e+00	-5.542287302e-02	7.309875897e-15
4.752000000e+00	2.675846108e+00	-5.542121584e-02	1.153045096e-14
4.751000000e+00	2.675846441e+00	-5.541955258e-02	7.625155241e-15
4.750000000e+00	2.675846775e+00	-5.541788329e-02	1.169211786e-14
4.749000000e+00	2.675847111e+00	-5.541620802e-02	2.605296096e-14
4.748000000e+00	2.675847448e+00	-5.541452682e-02	1.674246080e-14
4.747000000e+00	2.675847786e+00	-5.541283975e-02	8.117790286e-15
4.746000000e+00	2.675848126e+00	-5.541114684e-02	1.299566737e-14
4.745000000e+00	2.675848466e+00	-5.540944817e-02	1.333544690e-14
4.744000000e+00	2.675848808e+00	-5.540774376e-02	1.131882577e-14
4.743000000e+00	2.675849151e+00	-5.540603369e-02	1.765721578e-14
4.742000000e+00	2.675849495e+00	-5.540431799e-02	1.194063318e-14
4.741000000e+00	2.675849840e+00	-5.540259672e-02	1.067905838e-14
4.740000000e+00	2.675850186e+00	-5.540086994e-02	1.393539286e-14
4.739000000e+00	2.675850534e+00	-5.539913769e-02	9.797187588e-15
4.738000000e+00	2.675850882e+00	-5.539740003e-02	8.900458965e-15
4.737000000e+00	2.675851232e+00	-5.539565702e-02	2.123701776e-14
4.736000000e+00	2.675851583e+00	-5.539390869e-02	9.514816217e-15
4.735000000e+00	2.675851935e+00	-5.539215512e-02	1.162451654e-14
4.734000000e+00	2.675852288e+00	-5.539039634e-02	9.553027036e-15
4.733000000e+00	2.675852642e+00	-5.538863242e-02	7.609403285e-15
4.732000000e+00	2.675852997e+00	-5.538686341e-02	6.523194168e-15
4.731000000e+00	2.675853353e+00	-5.538508937e-02	2.710451041e-14
4.730000000e+00	2.675853710e+00	-5.538331034e-02	2.123488466e-14
4.729000000e+00	2.675854069e+00	-5.538152639e-02	1.063262209e-14
4.728000000e+00	2.675854428e+00	-5.537973757e-02	1.770850531e-14
4.727000000e+00	2.675854788e+00	-5.537794393e-02	1.800238564e-14
4.726000000e+00	2.675855149e+00	-5.537614552e-02	1.099501935e-14
4.725000000e+00	2.675855512e+00	-5.537434242e-02	1.248597690e-14
4.724000000e+00	2.675855875e+00	-5.537253466e-02	8.114252709e-15
4.723000000e+00	2.675856239e+00	-5.537072231e-02	1.236946486e-14
4.722000000e+00	2.675856604e+00	-5.536890542e-02	1.233696985e-14
4.721000000e+00	2.675856970e+00	-5.536708405e-02	1.548368473e-14
4.720000000e+00	2.675857337e+00	-5.536525826e-02	9.478554748e-15
4.719000000e+00	2.675857705e+00	-5.536342810e-02	2.583529463e-14
4.718000000e+00	2.675858073e+00	-5.536159363e-02	8.603639155e-15
4.717000000e+00	2.675858443e+00	-5.535975491e-02	1.517874313e-14
4.716000000e+00	2.675858813e+00	-5.535791199e-02	2.493559512e-14
4.715000000e+00	2.675859185e+00	-5.535606493e-02	1.241692064e-14
4.714000000e+00	2.675859557e+00	-5.535421379e-02	1.007390024e-14
4.713000000e+00	2.675859930e+00	-5.535235863e-02	2.093017679e-14
4.712000000e+00	2.675860304e+00	-5.535049951e-02	1.197404199e-14
4.711000000e+00	2.675860679e+00	-5.534863648e-02	1.176081525e-14
4.710000000e+00	2.675861054e+00	-5.534676961e-02	1.235074287e-14
4.709000000e+00	2.675861430e+00	-5.534489894e-02	1.430298783e-14
4.708000000e+00	2.675861807e+00	-5.534302455e-02	1.519552851e-14
4.707000000e+00	2.675862185e+00	-5.534114648e-02	9.453670871e-15
4.706000000e+00	2.675862564e+00	-5.533926481e-02	1.755367229e-14
4.705000000e+00	2.675862943e+00	-5.533737958e-02	1.083406165e-14
4.704000000e+00	2.675863323e+00	-5.533549086e-02	2.617581144e-14
4.703000000e+00	2.675863704e+00	-5.533359871e-02	1.380221329e-14
4.702000000e+00	2.675864085e+00	-5.533170319e-02	1.245746083e-14
4.701000000e+00	2.675864468e+00	-5.532980435e-02	8.442491977e-15
4.700000000e+00	2.675864850e+00	-5.532790226e-02	1.492939925e-14
4.699000000e+00	2.675865234e+00	-5.532599698e-02	7.659918066e-15
4.698000000e+00	2.675865618e+00	-5.532408856e-02	1.528238195e-14
4.697000000e+00	2.675866003e+00	-5.532217708e-02	8.758480873e-15
